20.000        47
20.010        47
20.020        67
20.030        40
20.040        47
20.050        53
20.060        53
20.070         7
20.080        80
20.090        40
20.100        33
20.110        13
20.120        47
20.130        40
20.140        33
20.150        27
20.160        47
20.170        33
20.180        33
20.190        33
20.200        33
20.210        47
20.220        47
20.230        33
20.240        40
20.250        20
20.260        47
20.270        73
20.280        47
20.290        53
20.300        33
20.310        60
20.320        40
20.330        20
20.340        33
20.350        20
20.360        20
20.370        40
20.380        40
20.390        33
20.400        20
20.410        47
20.420        13
20.430        33
20.440        67
20.450        27
20.460        53
20.470        40
20.480        27
20.490        27
20.500        53
20.510        20
20.520        27
20.530        60
20.540        47
20.550        20
20.560        27
20.570        73
20.580        13
20.590        33
20.600        13
20.610        47
20.620        53
20.630        60
20.640        67
20.650        33
20.660        20
20.670        93
20.680        67
20.690        33
20.700        40
20.710        33
20.720        47
20.730        40
20.740        60
20.750        53
20.760        33
20.770        67
20.780        33
20.790        33
20.800        33
20.810        33
20.820        40
20.830        40
20.840        60
20.850        27
20.860        33
20.870        20
20.880        20
20.890        40
20.900        60
20.910        53
20.920        60
20.930        40
20.940        40
20.950         7
20.960        53
20.970        33
20.980        60
20.990        60
21.000        40
21.010        33
21.020        73
21.030        53
21.040        27
21.050        20
21.060        40
21.070        47
21.080        53
21.090        67
21.100        20
21.110        33
21.120        73
21.130        47
21.140        27
21.150        47
21.160        53
21.170        27
21.180        53
21.190        53
21.200        40
21.210        40
21.220        73
21.230        40
21.240        40
21.250        47
21.260        60
21.270        13
21.280        20
21.290        33
21.300        47
21.310        40
21.320        47
21.330        60
21.340       100
21.350        40
21.360        67
21.370        47
21.380        33
21.390        47
21.400        67
21.410        53
21.420        13
21.430        20
21.440        33
21.450        53
21.460        33
21.470        33
21.480        53
21.490        60
21.500        33
21.510        20
21.520        40
21.530        33
21.540        60
21.550        87
21.560        53
21.570        40
21.580        53
21.590        33
21.600        40
21.610        47
21.620        40
21.630        47
21.640        13
21.650        13
21.660        53
21.670        27
21.680        33
21.690        53
21.700        20
21.710        27
21.720        20
21.730        87
21.740        13
21.750        13
21.760        27
21.770         7
21.780        13
21.790        33
21.800        27
21.810        33
21.820        33
21.830        53
21.840        40
21.850        13
21.860        60
21.870        60
21.880        40
21.890        47
21.900        20
21.910        27
21.920        27
21.930        47
21.940        27
21.950        67
21.960        20
21.970        13
21.980        40
21.990        27
22.000        40
22.010        40
22.020        47
22.030        80
22.040        47
22.050        60
22.060        40
22.070        67
22.080        40
22.090        40
22.100        13
22.110        53
22.120        13
22.130        33
22.140        47
22.150        80
22.160        20
22.170        33
22.180        20
22.190        13
22.200        20
22.210        73
22.220        47
22.230        33
22.240        40
22.250        13
22.260        33
22.270        20
22.280        40
22.290        33
22.300        33
22.310        20
22.320        80
22.330        40
22.340        47
22.350        40
22.360        20
22.370        33
22.380        60
22.390        53
22.400        27
22.410        33
22.420        20
22.430        33
22.440        53
22.450        27
22.460        47
22.470        33
22.480        40
22.490        40
22.500        33
22.510        47
22.520        20
22.530        67
22.540        27
22.550        13
22.560        13
22.570        40
22.580        33
22.590        13
22.600        47
22.610        60
22.620        33
22.630        53
22.640        27
22.650        27
22.660        67
22.670        53
22.680        33
22.690        33
22.700        40
22.710        80
22.720        67
22.730        47
22.740        67
22.750        33
22.760        73
22.770        40
22.780        40
22.790        27
22.800        20
22.810        13
22.820        47
22.830        20
22.840        40
22.850        47
22.860        20
22.870        60
22.880        40
22.890        20
22.900        13
22.910        33
22.920        33
22.930        27
22.940        27
22.950        40
22.960        53
22.970        73
22.980        20
22.990        20
23.000        13
23.010        40
23.020        40
23.030        33
23.040        33
23.050        27
23.060        13
23.070        73
23.080        47
23.090        20
23.100        27
23.110        47
23.120        33
23.130        33
23.140        47
23.150        33
23.160        33
23.170         7
23.180        13
23.190        20
23.200        20
23.210        40
23.220        60
23.230        40
23.240        20
23.250        47
23.260        27
23.270        60
23.280        27
23.290        33
23.300        47
23.310        40
23.320        20
23.330        47
23.340        27
23.350        60
23.360        33
23.370        13
23.380        53
23.390        40
23.400        47
23.410        67
23.420        47
23.430        33
23.440         7
23.450        27
23.460        47
23.470        53
23.480        40
23.490        40
23.500        13
23.510        33
23.520        33
23.530        47
23.540        33
23.550        20
23.560        13
23.570        13
23.580        27
23.590        40
23.600        20
23.610        33
23.620        27
23.630        53
23.640        13
23.650        20
23.660        33
23.670        33
23.680        47
23.690        13
23.700        20
23.710        47
23.720        13
23.730        27
23.740         7
23.750        40
23.760        27
23.770         7
23.780         7
23.790        27
23.800        20
23.810        60
23.820        20
23.830        20
23.840         0
23.850        27
23.860        47
23.870        40
23.880        27
23.890        73
23.900        40
23.910        20
23.920        33
23.930        47
23.940         7
23.950        67
23.960        27
23.970        27
23.980        27
23.990        20
24.000        20
24.010        33
24.020        40
24.030         7
24.040        40
24.050        13
24.060        60
24.070        27
24.080        47
24.090        40
24.100        67
24.110        20
24.120        27
24.130        13
24.140        27
24.150        40
24.160        53
24.170        87
24.180        47
24.190        27
24.200        20
24.210        13
24.220        13
24.230         0
24.240        53
24.250        20
24.260        27
24.270        20
24.280        20
24.290        40
24.300        27
24.310        33
24.320        27
24.330        20
24.340         7
24.350        27
24.360         0
24.370        60
24.380        47
24.390        13
24.400        40
24.410        13
24.420        53
24.430        27
24.440        27
24.450        27
24.460        33
24.470        33
24.480        40
24.490        27
24.500        33
24.510        33
24.520        67
24.530        40
24.540        20
24.550        13
24.560        40
24.570        33
24.580        27
24.590        20
24.600        40
24.610        20
24.620        13
24.630        33
24.640        33
24.650        40
24.660        40
24.670        60
24.680        33
24.690        20
24.700        67
24.710        33
24.720        33
24.730        27
24.740        27
24.750        27
24.760        13
24.770         0
24.780        13
24.790        47
24.800        47
24.810         0
24.820        53
24.830         7
24.840        33
24.850        60
24.860        27
24.870        20
24.880        20
24.890        33
24.900        53
24.910        33
24.920        53
24.930        20
24.940        33
24.950        33
24.960        27
24.970        27
24.980        53
24.990        33
25.000        40
25.010        47
25.020         7
25.030        40
25.040        27
25.050        27
25.060        40
25.070        33
25.080        27
25.090        27
25.100        27
25.110        20
25.120        47
25.130        13
25.140        33
25.150        33
25.160        13
25.170        40
25.180        53
25.190        27
25.200        20
25.210        40
25.220        27
25.230        20
25.240        33
25.250        27
25.260        13
25.270        20
25.280        20
25.290        33
25.300        33
25.310        53
25.320        27
25.330        40
25.340        33
25.350        33
25.360        27
25.370        40
25.380        27
25.390        33
25.400        40
25.410        27
25.420        60
25.430        27
25.440        27
25.450        13
25.460        33
25.470        47
25.480        33
25.490        33
25.500        47
25.510        33
25.520        47
25.530        13
25.540        33
25.550        33
25.560        40
25.570        53
25.580        47
25.590        47
25.600        27
25.610        40
25.620        47
25.630        33
25.640        27
25.650        80
25.660        33
25.670        60
25.680        20
25.690        40
25.700        20
25.710        33
25.720        47
25.730        27
25.740        33
25.750        47
25.760        33
25.770        13
25.780        27
25.790        60
25.800        20
25.810        40
25.820        80
25.830        20
25.840        53
25.850        13
25.860        60
25.870        33
25.880         7
25.890        20
25.900        40
25.910        13
25.920        27
25.930        33
25.940        33
25.950        47
25.960        20
25.970         7
25.980        20
25.990        20
26.000        33
26.010         7
26.020        40
26.030        33
26.040        33
26.050        20
26.060        33
26.070        27
26.080         7
26.090        13
26.100        40
26.110        13
26.120        33
26.130        27
26.140        40
26.150        40
26.160        27
26.170        27
26.180        20
26.190        13
26.200        27
26.210         7
26.220        33
26.230         7
26.240        20
26.250        27
26.260        13
26.270        33
26.280        60
26.290        67
26.300        20
26.310         7
26.320        47
26.330        20
26.340        40
26.350        20
26.360        27
26.370        20
26.380        33
26.390        33
26.400        40
26.410        40
26.420         7
26.430        33
26.440         7
26.450        80
26.460        33
26.470        27
26.480        53
26.490        13
26.500        47
26.510        13
26.520        40
26.530        40
26.540         7
26.550        27
26.560        13
26.570        27
26.580        27
26.590        27
26.600        20
26.610        40
26.620        27
26.630        33
26.640        13
26.650        33
26.660        40
26.670        20
26.680        33
26.690        40
26.700        20
26.710        47
26.720        40
26.730        20
26.740        13
26.750        40
26.760        27
26.770        27
26.780        33
26.790        27
26.800        13
26.810        20
26.820        27
26.830        47
26.840        20
26.850        27
26.860        40
26.870        13
26.880        33
26.890         7
26.900        27
26.910        13
26.920        27
26.930        33
26.940        20
26.950        40
26.960        40
26.970        27
26.980        27
26.990        20
27.000        40
27.010        13
27.020        33
27.030        67
27.040        40
27.050        53
27.060        20
27.070        13
27.080        13
27.090        20
27.100        13
27.110        27
27.120         7
27.130        13
27.140        47
27.150        33
27.160        53
27.170        33
27.180        27
27.190        20
27.200        13
27.210        53
27.220        27
27.230        47
27.240         7
27.250        33
27.260        47
27.270        20
27.280        27
27.290        53
27.300        20
27.310        20
27.320        27
27.330        20
27.340        13
27.350        33
27.360        27
27.370        20
27.380         7
27.390         7
27.400        67
27.410         0
27.420        33
27.430        13
27.440        13
27.450        27
27.460        20
27.470        27
27.480        20
27.490        40
27.500        33
27.510        40
27.520        40
27.530        20
27.540        33
27.550        53
27.560        20
27.570        20
27.580        20
27.590         7
27.600        20
27.610        53
27.620        20
27.630        20
27.640        33
27.650        27
27.660        20
27.670        27
27.680        27
27.690        13
27.700        20
27.710        20
27.720        13
27.730        20
27.740         7
27.750        27
27.760         0
27.770        27
27.780        20
27.790        13
27.800        13
27.810         7
27.820        13
27.830        20
27.840         7
27.850        33
27.860        47
27.870        13
27.880        27
27.890        27
27.900        27
27.910        27
27.920        13
27.930        27
27.940         7
27.950        27
27.960        13
27.970        33
27.980        20
27.990        47
28.000        27
28.010        20
28.020        20
28.030        13
28.040        27
28.050        40
28.060        27
28.070        40
28.080        13
28.090        33
28.100        20
28.110        20
28.120        13
28.130        20
28.140        20
28.150        47
28.160         7
28.170        33
28.180        33
28.190        47
28.200        40
28.210         0
28.220        40
28.230        13
28.240        20
28.250        27
28.260        33
28.270        13
28.280        13
28.290        20
28.300         7
28.310        33
28.320         7
28.330        40
28.340        47
28.350        60
28.360        40
28.370        40
28.380        40
28.390        40
28.400         0
28.410        33
28.420        13
28.430         7
28.440        27
28.450        20
28.460        47
28.470        33
28.480         7
28.490        20
28.500        20
28.510         7
28.520         7
28.530        40
28.540        33
28.550        20
28.560        13
28.570        27
28.580         0
28.590        60
28.600        27
28.610        33
28.620        20
28.630        33
28.640         7
28.650        27
28.660        20
28.670        20
28.680        33
28.690        53
28.700        20
28.710        20
28.720        40
28.730        20
28.740        27
28.750        20
28.760        27
28.770        13
28.780        27
28.790        20
28.800        13
28.810        33
28.820        27
28.830         0
28.840        20
28.850        40
28.860        47
28.870        33
28.880        40
28.890        13
28.900        27
28.910        40
28.920        40
28.930        20
28.940        60
28.950        20
28.960        27
28.970        27
28.980        13
28.990         7
29.000        20
29.010        13
29.020        20
29.030        27
29.040        20
29.050        20
29.060        47
29.070         7
29.080        47
29.090        27
29.100         7
29.110         0
29.120         7
29.130        47
29.140        13
29.150        20
29.160        27
29.170        20
29.180        13
29.190        33
29.200        27
29.210         7
29.220        40
29.230        20
29.240        33
29.250         0
29.260        13
29.270         7
29.280        20
29.290        40
29.300        13
29.310        20
29.320         0
29.330        53
29.340        13
29.350        53
29.360        27
29.370        33
29.380        40
29.390        20
29.400        33
29.410        13
29.420        20
29.430        33
29.440        33
29.450        27
29.460        47
29.470        40
29.480        20
29.490        13
29.500        20
29.510        20
29.520        13
29.530        20
29.540        40
29.550        73
29.560        47
29.570        27
29.580        27
29.590        13
29.600        27
29.610        53
29.620        20
29.630        13
29.640        33
29.650        13
29.660        33
29.670        33
29.680        13
29.690        33
29.700        20
29.710        33
29.720         7
29.730        27
29.740        20
29.750        20
29.760        20
29.770         7
29.780        33
29.790        40
29.800        27
29.810        40
29.820        27
29.830        13
29.840        20
29.850        20
29.860        40
29.870        33
29.880        27
29.890        20
29.900         7
29.910        40
29.920        13
29.930        27
29.940        13
29.950        40
29.960        13
29.970        27
29.980        13
29.990        33
30.000        27
30.010        20
30.020        33
30.030        13
30.040        33
30.050        27
30.060         7
30.070        20
30.080        20
30.090         7
30.100        47
30.110        20
30.120        33
30.130        27
30.140        27
30.150        27
30.160        47
30.170        27
30.180        13
30.190         7
30.200        13
30.210         7
30.220        40
30.230        13
30.240        40
30.250        47
30.260        20
30.270        27
30.280        20
30.290         0
30.300        20
30.310        13
30.320         7
30.330        13
30.340        13
30.350        20
30.360         7
30.370         7
30.380        27
30.390        20
30.400        33
30.410        20
30.420        27
30.430        27
30.440        13
30.450        27
30.460        20
30.470         0
30.480        33
30.490        53
30.500        40
30.510        13
30.520        53
30.530        33
30.540        20
30.550         7
30.560        13
30.570         7
30.580        13
30.590        20
30.600        33
30.610        47
30.620        20
30.630        33
30.640        13
30.650        20
30.660        13
30.670        47
30.680        20
30.690        20
30.700        33
30.710        13
30.720        33
30.730        33
30.740        27
30.750        33
30.760        20
30.770        33
30.780        20
30.790         7
30.800        33
30.810         7
30.820        13
30.830         7
30.840        27
30.850        20
30.860        33
30.870        33
30.880        27
30.890         7
30.900        20
30.910         7
30.920        13
30.930         7
30.940        27
30.950        27
30.960        20
30.970        27
30.980         7
30.990         0
31.000        33
31.010        20
31.020        40
31.030        40
31.040        53
31.050        47
31.060        40
31.070        33
31.080        33
31.090        13
31.100        27
31.110        20
31.120        53
31.130        27
31.140        60
31.150        40
31.160        40
31.170        47
31.180        27
31.190         7
31.200        40
31.210        53
31.220        73
31.230        60
31.240        47
31.250        93
31.260        93
31.270        87
31.280        60
31.290        47
31.300        73
31.310        87
31.320        80
31.330       120
31.340       127
31.350       113
31.360       127
31.370       120
31.380        47
31.390        93
31.400        87
31.410       120
31.420       140
31.430       147
31.440       120
31.450       107
31.460        87
31.470        67
31.480        53
31.490        67
31.500       100
31.510        87
31.520        53
31.530        47
31.540        27
31.550        47
31.560        53
31.570        60
31.580        27
31.590         0
31.600        40
31.610        27
31.620         7
31.630        27
31.640        13
31.650        33
31.660        13
31.670        33
31.680        20
31.690        13
31.700        13
31.710        13
31.720        27
31.730        20
31.740        27
31.750        13
31.760        33
31.770        33
31.780        20
31.790        13
31.800        20
31.810        33
31.820        53
31.830        13
31.840        47
31.850        27
31.860        13
31.870        33
31.880        13
31.890        33
31.900         7
31.910        13
31.920        13
31.930        27
31.940        40
31.950        20
31.960        20
31.970        27
31.980        13
31.990        40
32.000         7
32.010        53
32.020        40
32.030        13
32.040        33
32.050        27
32.060        13
32.070        13
32.080        27
32.090        33
32.100        20
32.110        47
32.120        20
32.130        47
32.140        20
32.150        27
32.160        13
32.170         7
32.180        13
32.190        20
32.200         7
32.210        40
32.220         7
32.230        27
32.240        20
32.250        33
32.260        27
32.270        13
32.280        20
32.290        13
32.300        27
32.310        20
32.320        13
32.330        33
32.340        13
32.350        20
32.360         7
32.370        13
32.380        13
32.390        27
32.400        47
32.410         7
32.420         7
32.430        40
32.440        20
32.450        33
32.460        13
32.470        13
32.480        33
32.490         7
32.500        20
32.510        53
32.520        27
32.530        27
32.540        20
32.550        27
32.560        13
32.570        20
32.580        27
32.590        20
32.600        53
32.610        13
32.620        13
32.630        20
32.640        13
32.650        13
32.660        13
32.670         0
32.680        20
32.690        33
32.700        27
32.710        27
32.720        27
32.730        33
32.740        47
32.750        33
32.760        20
32.770        20
32.780         7
32.790        20
32.800         7
32.810         7
32.820        13
32.830        40
32.840        20
32.850        27
32.860        13
32.870        27
32.880         7
32.890        27
32.900        20
32.910         7
32.920        27
32.930        20
32.940        13
32.950         7
32.960        27
32.970        13
32.980        20
32.990        27
33.000        13
33.010        20
33.020        27
33.030         7
33.040        13
33.050        13
33.060        53
33.070         7
33.080        20
33.090        27
33.100        27
33.110        27
33.120        27
33.130        27
33.140        47
33.150        13
33.160        20
33.170        20
33.180        13
33.190        13
33.200        20
33.210        40
33.220        27
33.230        20
33.240         7
33.250        27
33.260        27
33.270         7
33.280        20
33.290        27
33.300        40
33.310        47
33.320        40
33.330        20
33.340         7
33.350        27
33.360        13
33.370        27
33.380         7
33.390         7
33.400         7
33.410        40
33.420        20
33.430        27
33.440        47
33.450         0
33.460        13
33.470        13
33.480        20
33.490        13
33.500         7
33.510        27
33.520        33
33.530        13
33.540        20
33.550        47
33.560        27
33.570        13
33.580         7
33.590         7
33.600        27
33.610        13
33.620        13
33.630         7
33.640        33
33.650        33
33.660        20
33.670        47
33.680        13
33.690        13
33.700         7
33.710         0
33.720        33
33.730        27
33.740        33
33.750        27
33.760        27
33.770        20
33.780        33
33.790        33
33.800        27
33.810         7
33.820        27
33.830        40
33.840        40
33.850        27
33.860        20
33.870        27
33.880        27
33.890         7
33.900        40
33.910        27
33.920        13
33.930        33
33.940         7
33.950        13
33.960        40
33.970        20
33.980        20
33.990        27
34.000        20
34.010        20
34.020        13
34.030         7
34.040        20
34.050         7
34.060        20
34.070        20
34.080        20
34.090         7
34.100        13
34.110        13
34.120        20
34.130        13
34.140        13
34.150         7
34.160        27
34.170        20
34.180        13
34.190        27
34.200        47
34.210        40
34.220        33
34.230        20
34.240        47
34.250        20
34.260         0
34.270        53
34.280        40
34.290        33
34.300        27
34.310        13
34.320         7
34.330         0
34.340        13
34.350        13
34.360         7
34.370        20
34.380        13
34.390        27
34.400        40
34.410        27
34.420         7
34.430         0
34.440        20
34.450        20
34.460        20
34.470        13
34.480        20
34.490        20
34.500        13
34.510        27
34.520       107
34.530        20
34.540        13
34.550        13
34.560        13
34.570        40
34.580         7
34.590        13
34.600        27
34.610        13
34.620        27
34.630        20
34.640         7
34.650        33
34.660        40
34.670        13
34.680        20
34.690        27
34.700        13
34.710        20
34.720        20
34.730        20
34.740        27
34.750        40
34.760        53
34.770        20
34.780        13
34.790        33
34.800        13
34.810        33
34.820        20
34.830        27
34.840         0
34.850        27
34.860        13
34.870        20
34.880        20
34.890        27
34.900        13
34.910        33
34.920        20
34.930        33
34.940        33
34.950        27
34.960        13
34.970        13
34.980        20
34.990        27
35.000        53
35.010        27
35.020        27
35.030        20
35.040        33
35.050        20
35.060        20
35.070        53
35.080        13
35.090        27
35.100         0
35.110        20
35.120        13
35.130        13
35.140        27
35.150        40
35.160        33
35.170        20
35.180        27
35.190        27
35.200        47
35.210        47
35.220        53
35.230        20
35.240        40
35.250        27
35.260        33
35.270        40
35.280        33
35.290        47
35.300        33
35.310        20
35.320        33
35.330         7
35.340        20
35.350        20
35.360        20
35.370        13
35.380        20
35.390        27
35.400        27
35.410        20
35.420        13
35.430         7
35.440        13
35.450        20
35.460        13
35.470        27
35.480        33
35.490        33
35.500        13
35.510        20
35.520        13
35.530         7
35.540         7
35.550        13
35.560        20
35.570        20
35.580        13
35.590         7
35.600        33
35.610        33
35.620        20
35.630        13
35.640        40
35.650        13
35.660        33
35.670         7
35.680        13
35.690        20
35.700         7
35.710        20
35.720        27
35.730        27
35.740         7
35.750        33
35.760        20
35.770        27
35.780         7
35.790        13
35.800         7
35.810        27
35.820        33
35.830        20
35.840        40
35.850        20
35.860        20
35.870        20
35.880        20
35.890        27
35.900         7
35.910        40
35.920        20
35.930        13
35.940        27
35.950        13
35.960        27
35.970        27
35.980        13
35.990        13
36.000         7
36.010        33
36.020         7
36.030        20
36.040        13
36.050        20
36.060        13
36.070        27
36.080        20
36.090        20
36.100        33
36.110        13
36.120        20
36.130        27
36.140        47
36.150        13
36.160        20
36.170        27
36.180        20
36.190         7
36.200        20
36.210         0
36.220        33
36.230        13
36.240        33
36.250         7
36.260        20
36.270        27
36.280        20
36.290        27
36.300        33
36.310        13
36.320        40
36.330        20
36.340         7
36.350        13
36.360         7
36.370        20
36.380        20
36.390        27
36.400        27
36.410         7
36.420        27
36.430         7
36.440        27
36.450         0
36.460         7
36.470        20
36.480        13
36.490        27
36.500        40
36.510         7
36.520        27
36.530         7
36.540        40
36.550        20
36.560         7
36.570         7
36.580        33
36.590         7
36.600        40
36.610         0
36.620        20
36.630        13
36.640        47
36.650        20
36.660        13
36.670        13
36.680        13
36.690         7
36.700        27
36.710        27
36.720        33
36.730        33
36.740         0
36.750        27
36.760        33
36.770        20
36.780         7
36.790         7
36.800         7
36.810         0
36.820        20
36.830        20
36.840         7
36.850        33
36.860        20
36.870        13
36.880        27
36.890        13
36.900        27
36.910        13
36.920        20
36.930        27
36.940        20
36.950        60
36.960         7
36.970        27
36.980         0
36.990        20
37.000        27
37.010         7
37.020        40
37.030        27
37.040        20
37.050        27
37.060        27
37.070        13
37.080        20
37.090        27
37.100        20
37.110        27
37.120        27
37.130         7
37.140        13
37.150         7
37.160        13
37.170        40
37.180        13
37.190        20
37.200        13
37.210         7
37.220        40
37.230        27
37.240        33
37.250        13
37.260         7
37.270         7
37.280        20
37.290         7
37.300        13
37.310        33
37.320        13
37.330        27
37.340         7
37.350        33
37.360         7
37.370        20
37.380        33
37.390        13
37.400        20
37.410        20
37.420        20
37.430         7
37.440        27
37.450        27
37.460         7
37.470        20
37.480        20
37.490        40
37.500        13
37.510         7
37.520        33
37.530        33
37.540        27
37.550        27
37.560        13
37.570        13
37.580        13
37.590        33
37.600         7
37.610         7
37.620         7
37.630        20
37.640         7
37.650        33
37.660         7
37.670        27
37.680         0
37.690         7
37.700        20
37.710        27
37.720        20
37.730        13
37.740        53
37.750        27
37.760        20
37.770        27
37.780        27
37.790        27
37.800        13
37.810        33
37.820        20
37.830        33
37.840        27
37.850        27
37.860        33
37.870        13
37.880        27
37.890        33
37.900        53
37.910        13
37.920        47
37.930        20
37.940        40
37.950        20
37.960        13
37.970        47
37.980         0
37.990        33
38.000        13
38.010        13
38.020        20
38.030        27
38.040        13
38.050        27
38.060        27
38.070        40
38.080         7
38.090        13
38.100         7
38.110        20
38.120        20
38.130        13
38.140        13
38.150        13
38.160        13
38.170         0
38.180        20
38.190        33
38.200        20
38.210        20
38.220        40
38.230        27
38.240         7
38.250        13
38.260         7
38.270        20
38.280        13
38.290        20
38.300        20
38.310        53
38.320         7
38.330        20
38.340        27
38.350         7
38.360         7
38.370        27
38.380        40
38.390        13
38.400        27
38.410        27
38.420        13
38.430        53
38.440        53
38.450        47
38.460        27
38.470        47
38.480        40
38.490        80
38.500        60
38.510        53
38.520        27
38.530        53
38.540        80
38.550        87
38.560        80
38.570        67
38.580        93
38.590        93
38.600       187
38.610       160
38.620       147
38.630       147
38.640       227
38.650       353
38.660       200
38.670       207
38.680       280
38.690       407
38.700       253
38.710       320
38.720       333
38.730       267
38.740       240
38.750       260
38.760       280
38.770       267
38.780       173
38.790       113
38.800       160
38.810       173
38.820       213
38.830       153
38.840       140
38.850        87
38.860       107
38.870        67
38.880        60
38.890        47
38.900        40
38.910        47
38.920        20
38.930        27
38.940        53
38.950        20
38.960        33
38.970        47
38.980         7
38.990        40
39.000         7
39.010        33
39.020         0
39.030        33
39.040        20
39.050        27
39.060        27
39.070         0
39.080        20
39.090        20
39.100        20
39.110        13
39.120        13
39.130        33
39.140         0
39.150        20
39.160        27
39.170        27
39.180        27
39.190        33
39.200        13
39.210        20
39.220        20
39.230        27
39.240         7
39.250        13
39.260        20
39.270        20
39.280         0
39.290        13
39.300         7
39.310        47
39.320        40
39.330        13
39.340         7
39.350         7
39.360        47
39.370        27
39.380         0
39.390        13
39.400        13
39.410        13
39.420        33
39.430        27
39.440        20
39.450         7
39.460        13
39.470         0
39.480        20
39.490        20
39.500        13
39.510        13
39.520         7
39.530        20
39.540         7
39.550        27
39.560        20
39.570        20
39.580         7
39.590         0
39.600         0
39.610        13
39.620        20
39.630         7
39.640         7
39.650        13
39.660         7
39.670        13
39.680        20
39.690        20
39.700         7
39.710         0
39.720        20
39.730        27
39.740         7
39.750        27
39.760        47
39.770        20
39.780         7
39.790        40
39.800        20
39.810        27
39.820        27
39.830        13
39.840         7
39.850        13
39.860        33
39.870        13
39.880         7
39.890         7
39.900         7
39.910        27
39.920         7
39.930        20
39.940        27
39.950        20
39.960        13
39.970         0
39.980        27
39.990        27
40.000        20
40.010         7
40.020         7
40.030        20
40.040         0
40.050        13
40.060        20
40.070         7
40.080        20
40.090        20
40.100         7
40.110         7
40.120        40
40.130        13
40.140        33
40.150        47
40.160        13
40.170        20
40.180        27
40.190        20
40.200        20
40.210        27
40.220        33
40.230        27
40.240        20
40.250        13
40.260        13
40.270        27
40.280        13
40.290        20
40.300         0
40.310        33
40.320         7
40.330        53
40.340        20
40.350        40
40.360        33
40.370        13
40.380        13
40.390        20
40.400        13
40.410        13
40.420        13
40.430        33
40.440        27
40.450        13
40.460        47
40.470        20
40.480        47
40.490        13
40.500        20
40.510         7
40.520        33
40.530        13
40.540        20
40.550        33
40.560        27
40.570        20
40.580        13
40.590         7
40.600         0
40.610        33
40.620        20
40.630        13
40.640        27
40.650        33
40.660         7
40.670        53
40.680        40
40.690        20
40.700        20
40.710        40
40.720         7
40.730        27
40.740        13
40.750        20
40.760         0
40.770         7
40.780        47
40.790        13
40.800        13
40.810        13
40.820        27
40.830        27
40.840        20
40.850        20
40.860        13
40.870        47
40.880        20
40.890        13
40.900        27
40.910         7
40.920        33
40.930        13
40.940        27
40.950        20
40.960        13
40.970        27
40.980        27
40.990         7
41.000        33
41.010        20
41.020        33
41.030        27
41.040        20
41.050         0
41.060        20
41.070        20
41.080        60
41.090        13
41.100         7
41.110         7
41.120        13
41.130        40
41.140         7
41.150        47
41.160        13
41.170        40
41.180        20
41.190        53
41.200        27
41.210        13
41.220        20
41.230         7
41.240        27
41.250        33
41.260        27
41.270         7
41.280         0
41.290         7
41.300        13
41.310         7
41.320        13
41.330        20
41.340         7
41.350         7
41.360        13
41.370        27
41.380        13
41.390        27
41.400        13
41.410         7
41.420         7
41.430        13
41.440        20
41.450        27
41.460        27
41.470        33
41.480        33
41.490        20
41.500         7
41.510         0
41.520        27
41.530        20
41.540        13
41.550        20
41.560         0
41.570        20
41.580        13
41.590        27
41.600         0
41.610        13
41.620        13
41.630         7
41.640        13
41.650        33
41.660        33
41.670         7
41.680        53
41.690        27
41.700        33
41.710        47
41.720        27
41.730        13
41.740        27
41.750        20
41.760        33
41.770        13
41.780        27
41.790        20
41.800        33
41.810        27
41.820        40
41.830        47
41.840        33
41.850        13
41.860        13
41.870         7
41.880         7
41.890        33
41.900         7
41.910        27
41.920        20
41.930        13
41.940         0
41.950        27
41.960        27
41.970        13
41.980         0
41.990        40
42.000        33
42.010        20
42.020        33
42.030        33
42.040        27
42.050        20
42.060         0
42.070         7
42.080        33
42.090        20
42.100        13
42.110        20
42.120        13
42.130         7
42.140         7
42.150        20
42.160        27
42.170        20
42.180        27
42.190        13
42.200        20
42.210        20
42.220        20
42.230        13
42.240        33
42.250        13
42.260         0
42.270        27
42.280         7
42.290        20
42.300        33
42.310         0
42.320        20
42.330        13
42.340        33
42.350        20
42.360        20
42.370        27
42.380        13
42.390        20
42.400        20
42.410        13
42.420         0
42.430        13
42.440        33
42.450         7
42.460        13
42.470        13
42.480        20
42.490        13
42.500        40
42.510        20
42.520        27
42.530        40
42.540         7
42.550        27
42.560        13
42.570        20
42.580        20
42.590        33
42.600        27
42.610         0
42.620        40
42.630        27
42.640        40
42.650         7
42.660        27
42.670        27
42.680         7
42.690        20
42.700         0
42.710        20
42.720         7
42.730         7
42.740        13
42.750         7
42.760         7
42.770        20
42.780         0
42.790         7
42.800         7
42.810        20
42.820        27
42.830        20
42.840        20
42.850        33
42.860         0
42.870        13
42.880        20
42.890        27
42.900        13
42.910        33
42.920         7
42.930         0
42.940        20
42.950        13
42.960        20
42.970        13
42.980         7
42.990        27
43.000        20
43.010        13
43.020        20
43.030         7
43.040        13
43.050         7
43.060        33
43.070        13
43.080        20
43.090         7
43.100        13
43.110        13
43.120        20
43.130         7
43.140        20
43.150        27
43.160         0
43.170        13
43.180        13
43.190         7
43.200        20
43.210        27
43.220         0
43.230        13
43.240        33
43.250        20
43.260        13
43.270         7
43.280        13
43.290        20
43.300         7
43.310        27
43.320        20
43.330        47
43.340        73
43.350        40
43.360       100
43.370       120
43.380       160
43.390       180
43.400       253
43.410       220
43.420       247
43.430       193
43.440       173
43.450       107
43.460       127
43.470        93
43.480       107
43.490        67
43.500       160
43.510       160
43.520        87
43.530       133
43.540       140
43.550        60
43.560        60
43.570        40
43.580        40
43.590        20
43.600        27
43.610         7
43.620        13
43.630        13
43.640        33
43.650        13
43.660        40
43.670        13
43.680        20
43.690        33
43.700        33
43.710         7
43.720         0
43.730        13
43.740         7
43.750        47
43.760        33
43.770         7
43.780        13
43.790        33
43.800         7
43.810        20
43.820        13
43.830        20
43.840        13
43.850        20
43.860        27
43.870        20
43.880         7
43.890        13
43.900         7
43.910         0
43.920        27
43.930        13
43.940        33
43.950        47
43.960         0
43.970        13
43.980        47
43.990        27
44.000        20
44.010        20
44.020         7
44.030        13
44.040        20
44.050        20
44.060        13
44.070         7
44.080        27
44.090         0
44.100         0
44.110         0
44.120        13
44.130        20
44.140        20
44.150        13
44.160        20
44.170         7
44.180         7
44.190        13
44.200         0
44.210        13
44.220        20
44.230        13
44.240         7
44.250        27
44.260        13
44.270         7
44.280        13
44.290        53
44.300         0
44.310         7
44.320        27
44.330        13
44.340        47
44.350        33
44.360        27
44.370        13
44.380         7
44.390        20
44.400         7
44.410        20
44.420        20
44.430        20
44.440        27
44.450        33
44.460        13
44.470        27
44.480         0
44.490        20
44.500        27
44.510         7
44.520        20
44.530        20
44.540         0
44.550        13
44.560        13
44.570         7
44.580        20
44.590         0
44.600        33
44.610        27
44.620        20
44.630        33
44.640         7
44.650        13
44.660        27
44.670         0
44.680        20
44.690        40
44.700         7
44.710         7
44.720        33
44.730        27
44.740        20
44.750        20
44.760        20
44.770        13
44.780        27
44.790        20
44.800        40
44.810        27
44.820        60
44.830        47
44.840        13
44.850        53
44.860        40
44.870        60
44.880        47
44.890        40
44.900        80
44.910        47
44.920        13
44.930        33
44.940        73
44.950        27
44.960        33
44.970        60
44.980        47
44.990        80
45.000        73
45.010        53
45.020        40
45.030        53
45.040        87
45.050        67
45.060        47
45.070        47
45.080        47
45.090        13
45.100        40
45.110        20
45.120        67
45.130        53
45.140        40
45.150        33
45.160        40
45.170        20
45.180        40
45.190        40
45.200         7
45.210        13
45.220        27
45.230        27
45.240        40
45.250        20
45.260         0
45.270        27
45.280        13
45.290        13
45.300         7
45.310        33
45.320        33
45.330        33
45.340        27
45.350         7
45.360        33
45.370        27
45.380         0
45.390        13
45.400        20
45.410        27
45.420         7
45.430         7
45.440        20
45.450        33
45.460        13
45.470        20
45.480         0
45.490        13
45.500        33
45.510        13
45.520        13
45.530        33
45.540        20
45.550        13
45.560        13
45.570         0
45.580         7
45.590        13
45.600        27
45.610        40
45.620        20
45.630        20
45.640         7
45.650         7
45.660        13
45.670        20
45.680        20
45.690         7
45.700         7
45.710        20
45.720        20
45.730        13
45.740        27
45.750        20
45.760        27
45.770        20
45.780        13
45.790        47
45.800        27
45.810        13
45.820         7
45.830         0
45.840         7
45.850         0
45.860         7
45.870         7
45.880        20
45.890         7
45.900         7
45.910        53
45.920        33
45.930        20
45.940        20
45.950        33
45.960         7
45.970        20
45.980        13
45.990        27
46.000        27
46.010        13
46.020        13
46.030        27
46.040        20
46.050        13
46.060        27
46.070        27
46.080        27
46.090        13
46.100        13
46.110        20
46.120        20
46.130         7
46.140        20
46.150        20
46.160         0
46.170        13
46.180        27
46.190        20
46.200        13
46.210        27
46.220        13
46.230         7
46.240        27
46.250        13
46.260         7
46.270        27
46.280         7
46.290        27
46.300         7
46.310        27
46.320         7
46.330        13
46.340         0
46.350        27
46.360         7
46.370        27
46.380         7
46.390        20
46.400        13
46.410        27
46.420         7
46.430         7
46.440        27
46.450        13
46.460        40
46.470        13
46.480        13
46.490         7
46.500         7
46.510        20
46.520        13
46.530        27
46.540        33
46.550        13
46.560        27
46.570        20
46.580         7
46.590        20
46.600        20
46.610        13
46.620        13
46.630        33
46.640        27
46.650        13
46.660         7
46.670        13
46.680        60
46.690         7
46.700        40
46.710        20
46.720         7
46.730         7
46.740        13
46.750        13
46.760        20
46.770        20
46.780         0
46.790        40
46.800         7
46.810        20
46.820        53
46.830        13
46.840        27
46.850        20
46.860         0
46.870        20
46.880         7
46.890        20
46.900        20
46.910        20
46.920         7
46.930        20
46.940         0
46.950        53
46.960        27
46.970        13
46.980        20
46.990        33
47.000         7
47.010        20
47.020        27
47.030        33
47.040        13
47.050        27
47.060        13
47.070        20
47.080         7
47.090        13
47.100        27
47.110        20
47.120        13
47.130        33
47.140        13
47.150         7
47.160        20
47.170         7
47.180        13
47.190        27
47.200        13
47.210        20
47.220        27
47.230        27
47.240        20
47.250        20
47.260        20
47.270         7
47.280        27
47.290        33
47.300         7
47.310        13
47.320        13
47.330         0
47.340        13
47.350        13
47.360        13
47.370        27
47.380        13
47.390        20
47.400         7
47.410         7
47.420         7
47.430        40
47.440        27
47.450        13
47.460        13
47.470         7
47.480        33
47.490        27
47.500        13
47.510        13
47.520        20
47.530        27
47.540         0
47.550         7
47.560        20
47.570        27
47.580         0
47.590        27
47.600        27
47.610        27
47.620         7
47.630         7
47.640        33
47.650        33
47.660         0
47.670        13
47.680         7
47.690        13
47.700         7
47.710        13
47.720         7
47.730         0
47.740        20
47.750        27
47.760        20
47.770        13
47.780        27
47.790         7
47.800         7
47.810        27
47.820        27
47.830        20
47.840         0
47.850        27
47.860        13
47.870         7
47.880         7
47.890        20
47.900        47
47.910        13
47.920         7
47.930        13
47.940        13
47.950        20
47.960        27
47.970        20
47.980         7
47.990        13
48.000         7
48.010        13
48.020         7
48.030        20
48.040        13
48.050        27
48.060        13
48.070        20
48.080         0
48.090        13
48.100        13
48.110        33
48.120         7
48.130        33
48.140        13
48.150         7
48.160        13
48.170        13
48.180        40
48.190        20
48.200         0
48.210        40
48.220        27
48.230        13
48.240        13
48.250        27
48.260        20
48.270        13
48.280        27
48.290         7
48.300        20
48.310        13
48.320        27
48.330        20
48.340        20
48.350        33
48.360        27
48.370        13
48.380        27
48.390        27
48.400         0
48.410        40
48.420        27
48.430         7
48.440        20
48.450        13
48.460        13
48.470        27
48.480         7
48.490        13
48.500        20
48.510        20
48.520        13
48.530        20
48.540        20
48.550        27
48.560        13
48.570         0
48.580        13
48.590         7
48.600         7
48.610         7
48.620        13
48.630        20
48.640        27
48.650        13
48.660        20
48.670        13
48.680        47
48.690        40
48.700         0
48.710        20
48.720        13
48.730         7
48.740         7
48.750        20
48.760        47
48.770        13
48.780         7
48.790         7
48.800         0
48.810         7
48.820         7
48.830         0
48.840        33
48.850        33
48.860        13
48.870        13
48.880        13
48.890        27
48.900         7
48.910        33
48.920        27
48.930         7
48.940         0
48.950         0
48.960         7
48.970         7
48.980         7
48.990        40
49.000         7
49.010        27
49.020         7
49.030        13
49.040        27
49.050        27
49.060        33
49.070         7
49.080         0
49.090        13
49.100         0
49.110        20
49.120        13
49.130        13
49.140        20
49.150        33
49.160        20
49.170        13
49.180         7
49.190         7
49.200         7
49.210        27
49.220         0
49.230        20
49.240        13
49.250         7
49.260        27
49.270         7
49.280         0
49.290        27
49.300        13
49.310         7
49.320        13
49.330        33
49.340        27
49.350        13
49.360        27
49.370         7
49.380        13
49.390        27
49.400         7
49.410         0
49.420        33
49.430        13
49.440        20
49.450         7
49.460        20
49.470        20
49.480         7
49.490        13
49.500        13
49.510        27
49.520        33
49.530        20
49.540         7
49.550        27
49.560        20
49.570         7
49.580        13
49.590         7
49.600        13
49.610        13
49.620        20
49.630        13
49.640        27
49.650        13
49.660         0
49.670        20
49.680        33
49.690         7
49.700        13
49.710        47
49.720        20
49.730        13
49.740         7
49.750         7
49.760        13
49.770         7
49.780        20
49.790        13
49.800        27
49.810        20
49.820        20
49.830        27
49.840         7
49.850        13
49.860        20
49.870        27
49.880         7
49.890        27
49.900        13
49.910        20
49.920        27
49.930        13
49.940        13
49.950         0
49.960        27
49.970        13
49.980        20
49.990        20
50.000        13
50.010        27
50.020        27
50.030        13
50.040        20
50.050        33
50.060        40
50.070         7
50.080        33
50.090        20
50.100         7
50.110        20
50.120        27
50.130         7
50.140        27
50.150        13
50.160        13
50.170        20
50.180        20
50.190        13
50.200        13
50.210        27
50.220        20
50.230         7
50.240         7
50.250        20
50.260        13
50.270         7
50.280         0
50.290         0
50.300         7
50.310         7
50.320        27
50.330        20
50.340         7
50.350         0
50.360        13
50.370         0
50.380        13
50.390        27
50.400        20
50.410         7
50.420        33
50.430        13
50.440        20
50.450         7
50.460        13
50.470        33
50.480        40
50.490        13
50.500        20
50.510        13
50.520        20
50.530        20
50.540        33
50.550        13
50.560        53
50.570         7
50.580         7
50.590        13
50.600        40
50.610        20
50.620        27
50.630        27
50.640        13
50.650        27
50.660        33
50.670        20
50.680        13
50.690         7
50.700         7
50.710        27
50.720         7
50.730         7
50.740        13
50.750        20
50.760        13
50.770         7
50.780         7
50.790        20
50.800        13
50.810        27
50.820        20
50.830        20
50.840        13
50.850        27
50.860        27
50.870        13
50.880        27
50.890         7
50.900         7
50.910        20
50.920         7
50.930         7
50.940        20
50.950        27
50.960        13
50.970        20
50.980        20
50.990        27
51.000        13
51.010        13
51.020        13
51.030        13
51.040         7
51.050        13
51.060        13
51.070        13
51.080        20
51.090        13
51.100         7
51.110        27
51.120        13
51.130         7
51.140        20
51.150        20
51.160         7
51.170         0
51.180        13
51.190         7
51.200        20
51.210         0
51.220        33
51.230        20
51.240         7
51.250        13
51.260        13
51.270        13
51.280        27
51.290        27
51.300        20
51.310        33
51.320         7
51.330        13
51.340        13
51.350         7
51.360         0
51.370        13
51.380        13
51.390        20
51.400        20
51.410        13
51.420        20
51.430        27
51.440        33
51.450         0
51.460        53
51.470         7
51.480         7
51.490         7
51.500        33
51.510         7
51.520        20
51.530        13
51.540        20
51.550        13
51.560         0
51.570        20
51.580        33
51.590        20
51.600        20
51.610        27
51.620         7
51.630        27
51.640        13
51.650        13
51.660        20
51.670         7
51.680         7
51.690         7
51.700         0
51.710        13
51.720        13
51.730         7
51.740         7
51.750         7
51.760         0
51.770         7
51.780         0
51.790        27
51.800         7
51.810        13
51.820        27
51.830        13
51.840         7
51.850         7
51.860        13
51.870         0
51.880        13
51.890        20
51.900        20
51.910        13
51.920        20
51.930        27
51.940         0
51.950         7
51.960        13
51.970        20
51.980         0
51.990         7
52.000         7
52.010        20
52.020        20
52.030         0
52.040        20
52.050         7
52.060         0
52.070        27
52.080        13
52.090         7
52.100        13
52.110        13
52.120        13
52.130        33
52.140         0
52.150        13
52.160        13
52.170        20
52.180        20
52.190         0
52.200         7
52.210         0
52.220         7
52.230         0
52.240        13
52.250        13
52.260        13
52.270        13
52.280        33
52.290         0
52.300        13
52.310        27
52.320        13
52.330        13
52.340        13
52.350        27
52.360         0
52.370        13
52.380         7
52.390        13
52.400        20
52.410        33
52.420        20
52.430        27
52.440        33
52.450        13
52.460        20
52.470         7
52.480         7
52.490        20
52.500         0
52.510        47
52.520        27
52.530        27
52.540        27
52.550        27
52.560        27
52.570        33
52.580        20
52.590        13
52.600        47
52.610        13
52.620        20
52.630        13
52.640        33
52.650        20
52.660         7
52.670        27
52.680        13
52.690         7
52.700        20
52.710        13
52.720        33
52.730        27
52.740        13
52.750        27
52.760         0
52.770         0
52.780        13
52.790        20
52.800        20
52.810        13
52.820        27
52.830        13
52.840         7
52.850        27
52.860        13
52.870         0
52.880        20
52.890        20
52.900        20
52.910        20
52.920         0
52.930        13
52.940        13
52.950         0
52.960         0
52.970        13
52.980        33
52.990        13
53.000        13
53.010        20
53.020        13
53.030        27
53.040        20
53.050         7
53.060        20
53.070        20
53.080         0
53.090        13
53.100        13
53.110        40
53.120        33
53.130         7
53.140         7
53.150        13
53.160        20
53.170        40
53.180        20
53.190         7
53.200         0
53.210        13
53.220        13
53.230        20
53.240         7
53.250        20
53.260         7
53.270         7
53.280        13
53.290         7
53.300        27
53.310         7
53.320        20
53.330        13
53.340        20
53.350         0
53.360        13
53.370         7
53.380        13
53.390         7
53.400         0
53.410         0
53.420         7
53.430        20
53.440         7
53.450        20
53.460        13
53.470        27
53.480        33
53.490        13
53.500         0
53.510        33
53.520        13
53.530         0
53.540        13
53.550        13
53.560         7
53.570        20
53.580        13
53.590        27
53.600        33
53.610        27
53.620        27
53.630        47
53.640        13
53.650        20
53.660         7
53.670        13
53.680        20
53.690        40
53.700        13
53.710        20
53.720        20
53.730        13
53.740        13
53.750        33
53.760        13
53.770        13
53.780         7
53.790         7
53.800        20
53.810        20
53.820        27
53.830        13
53.840        53
53.850        20
53.860        27
53.870        13
53.880        13
53.890        13
53.900        13
53.910        13
53.920         0
53.930         0
53.940        27
53.950        20
53.960        20
53.970         7
53.980        27
53.990         7
54.000        40
54.010        27
54.020        40
54.030         7
54.040        33
54.050         7
54.060         7
54.070         0
54.080        20
54.090        20
54.100        20
54.110         7
54.120        20
54.130        13
54.140        27
54.150         7
54.160        13
54.170        33
54.180         7
54.190         0
54.200        20
54.210        13
54.220        20
54.230        13
54.240         7
54.250        20
54.260         0
54.270        20
54.280         7
54.290        20
54.300        20
54.310        13
54.320         7
54.330        20
54.340         7
54.350        20
54.360        13
54.370        13
54.380        20
54.390        13
54.400        33
54.410        53
54.420        27
54.430        27
54.440         7
54.450        13
54.460        20
54.470        27
54.480         7
54.490         7
54.500        27
54.510        33
54.520         7
54.530        27
54.540         7
54.550        13
54.560        20
54.570        27
54.580        13
54.590        40
54.600        13
54.610        13
54.620        13
54.630        27
54.640        20
54.650        27
54.660        13
54.670        13
54.680        33
54.690         7
54.700        27
54.710        13
54.720         7
54.730        13
54.740         7
54.750         7
54.760         7
54.770         7
54.780        27
54.790         7
54.800        27
54.810         7
54.820        27
54.830        13
54.840        33
54.850        27
54.860         7
54.870        33
54.880        40
54.890        20
54.900        13
54.910        33
54.920        13
54.930         0
54.940        33
54.950        13
54.960        33
54.970        33
54.980        13
54.990        27
55.000        20
55.010        13
55.020        20
55.030         7
55.040        27
55.050         0
55.060        20
55.070        20
55.080        20
55.090         7
55.100        20
55.110        20
55.120         7
55.130        20
55.140        40
55.150        13
55.160        27
55.170        20
55.180         7
55.190        13
55.200        20
55.210        47
55.220        13
55.230         0
55.240        27
55.250        20
55.260        20
55.270        20
55.280         0
55.290         7
55.300         7
55.310        13
55.320        13
55.330        40
55.340        20
55.350        20
55.360        33
55.370        27
55.380        33
55.390        27
55.400        13
55.410        13
55.420        40
55.430        33
55.440        20
55.450        33
55.460        33
55.470        40
55.480         7
55.490        27
55.500        73
55.510        53
55.520        60
55.530        40
55.540        20
55.550        33
55.560        53
55.570        67
55.580        87
55.590        40
55.600        40
55.610        73
55.620       113
55.630       127
55.640       100
55.650       120
55.660       107
55.670       193
55.680       180
55.690       220
55.700       253
55.710       167
55.720       253
55.730       353
55.740       373
55.750       307
55.760       387
55.770       420
55.780       433
55.790       433
55.800       526
55.810       633
55.820       633
55.830       700
55.840       740
55.850       580
55.860       646
55.870       613
55.880       740
55.890       740
55.900       706
55.910       713
55.920       793
55.930       733
55.940       646
55.950       613
55.960       693
55.970       633
55.980       613
55.990       526
56.000       546
56.010       453
56.020       493
56.030       520
56.040       446
56.050       473
56.060       373
56.070       407
56.080       347
56.090       293
56.100       307
56.110       227
56.120       247
56.130       180
56.140       200
56.150       140
56.160       100
56.170       107
56.180       100
56.190        87
56.200        27
56.210       107
56.220        87
56.230        87
56.240        80
56.250        60
56.260        47
56.270        67
56.280        27
56.290        40
56.300        47
56.310        53
56.320        20
56.330        33
56.340        27
56.350        33
56.360        33
56.370        53
56.380         7
56.390        40
56.400        33
56.410        33
56.420        13
56.430        40
56.440        33
56.450        33
56.460        47
56.470        27
56.480        13
56.490        33
56.500        33
56.510         7
56.520         0
56.530        40
56.540        20
56.550        20
56.560        40
56.570         0
56.580        40
56.590        20
56.600        20
56.610         7
56.620        33
56.630         7
56.640         7
56.650        20
56.660         0
56.670        13
56.680         0
56.690        13
56.700         7
56.710        13
56.720         7
56.730         7
56.740        13
56.750        33
56.760        20
56.770        40
56.780        27
56.790        20
56.800        20
56.810        27
56.820        13
56.830         7
56.840        20
56.850         7
56.860         7
56.870        33
56.880        13
56.890         7
56.900        53
56.910        33
56.920        20
56.930        27
56.940        13
56.950         7
56.960        13
56.970         7
56.980        13
56.990         7
57.000        13
57.010        20
57.020        27
57.030        20
57.040        13
57.050         0
57.060        20
57.070         7
57.080        13
57.090        20
57.100        20
57.110        27
57.120         7
57.130        33
57.140         7
57.150        13
57.160        33
57.170        33
57.180        13
57.190        27
57.200        13
57.210         0
57.220         7
57.230        27
57.240         7
57.250         7
57.260        20
57.270        20
57.280         7
57.290        27
57.300         7
57.310        20
57.320        13
57.330        27
57.340        27
57.350        27
57.360        13
57.370        20
57.380        40
57.390        20
57.400        13
57.410        40
57.420        27
57.430        40
57.440        13
57.450        47
57.460        33
57.470        73
57.480        33
57.490        40
57.500        53
57.510        20
57.520        80
57.530       127
57.540        60
57.550        93
57.560        80
57.570        67
57.580        67
57.590        13
57.600        40
57.610        20
57.620        27
57.630        40
57.640        67
57.650        20
57.660        33
57.670        27
57.680        27
57.690         7
57.700        67
57.710        40
57.720        13
57.730        60
57.740        53
57.750        53
57.760        27
57.770        40
57.780        47
57.790         7
57.800        13
57.810        27
57.820         7
57.830        40
57.840        27
57.850        20
57.860         0
57.870        33
57.880        27
57.890        20
57.900        13
57.910         0
57.920         7
57.930        13
57.940        33
57.950        13
57.960         0
57.970        27
57.980        27
57.990         7
58.000         7
58.010         7
58.020         7
58.030         0
58.040        27
58.050        20
58.060         0
58.070        27
58.080        27
58.090        13
58.100        13
58.110        13
58.120        20
58.130        13
58.140         7
58.150         0
58.160        20
58.170        20
58.180         0
58.190        20
58.200        13
58.210        20
58.220         7
58.230         0
58.240        13
58.250        20
58.260         7
58.270         7
58.280        20
58.290         7
58.300        13
58.310        47
58.320         0
58.330        27
58.340        20
58.350        40
58.360        20
58.370        20
58.380        27
58.390        13
58.400        33
58.410        13
58.420        20
58.430        13
58.440         0
58.450        27
58.460        20
58.470        27
58.480        13
58.490        27
58.500         0
58.510         7
58.520        20
58.530         7
58.540         7
58.550         7
58.560        13
58.570         0
58.580         7
58.590        27
58.600         7
58.610        13
58.620         7
58.630         7
58.640         7
58.650        27
58.660        33
58.670        27
58.680         7
58.690        27
58.700        20
58.710        20
58.720         7
58.730         0
58.740         7
58.750         7
58.760        40
58.770        20
58.780        13
58.790        27
58.800        20
58.810        27
58.820        13
58.830         7
58.840         0
58.850        13
58.860        20
58.870        13
58.880         7
58.890        13
58.900        27
58.910         7
58.920        13
58.930        13
58.940        13
58.950        33
58.960        33
58.970        13
58.980        33
58.990         7
59.000        20
59.010         0
59.020         0
59.030        20
59.040        60
59.050         0
59.060        13
59.070        13
59.080        13
59.090        40
59.100        33
59.110         7
59.120        20
59.130         0
59.140         7
59.150        13
59.160         7
59.170        13
59.180         7
59.190         0
59.200         7
59.210         7
59.220        13
59.230         7
59.240        20
59.250        20
59.260        27
59.270        20
59.280         7
59.290         0
59.300        13
59.310         7
59.320        20
59.330        13
59.340        20
59.350         7
59.360        13
59.370        13
59.380         7
59.390         7
59.400        33
59.410         7
59.420        13
59.430        20
59.440         7
59.450         7
59.460        33
59.470        13
59.480        13
59.490         0
59.500         7
59.510         0
59.520        27
59.530         7
59.540         7
59.550        13
59.560         7
59.570        20
59.580        13
59.590        33
59.600        20
59.610         7
59.620        20
59.630         7
59.640         7
59.650        27
59.660        13
59.670        20
59.680         7
59.690        13
59.700         0
59.710        13
59.720        13
59.730        20
59.740        27
59.750        20
59.760        20
59.770        20
59.780        20
59.790        27
59.800         7
59.810         7
59.820        13
59.830         7
59.840         7
59.850         0
59.860        40
59.870        13
59.880        20
59.890         7
59.900        13
59.910        27
59.920        33
59.930        13
59.940        13
59.950         7
59.960        13
59.970         7
59.980         7
59.990        27
60.000        20
