20.000        33
20.010        33
20.020        27
20.030        60
20.040        67
20.050        33
20.060        33
20.070        67
20.080        40
20.090        87
20.100        47
20.110        33
20.120        13
20.130        73
20.140        40
20.150        33
20.160        67
20.170        20
20.180        27
20.190        47
20.200        20
20.210        60
20.220        33
20.230        20
20.240        67
20.250        33
20.260        33
20.270        27
20.280        40
20.290        53
20.300        60
20.310        60
20.320        40
20.330        40
20.340        80
20.350        33
20.360        33
20.370        33
20.380        53
20.390        27
20.400        40
20.410        47
20.420        33
20.430        73
20.440        27
20.450        47
20.460        53
20.470        53
20.480        60
20.490        40
20.500        40
20.510        60
20.520        27
20.530        53
20.540        20
20.550        27
20.560        27
20.570        53
20.580        27
20.590        20
20.600        40
20.610        40
20.620        40
20.630        27
20.640        20
20.650        47
20.660        60
20.670        40
20.680        40
20.690        53
20.700        53
20.710        33
20.720        13
20.730         7
20.740        80
20.750        60
20.760        33
20.770        13
20.780        53
20.790        60
20.800        60
20.810        40
20.820        40
20.830        33
20.840        27
20.850        47
20.860        53
20.870        33
20.880        20
20.890        53
20.900        40
20.910        67
20.920        60
20.930         7
20.940        27
20.950        33
20.960        60
20.970        40
20.980        60
20.990        40
21.000        27
21.010        53
21.020        27
21.030        33
21.040        33
21.050        27
21.060        20
21.070        33
21.080        27
21.090        40
21.100        53
21.110        33
21.120        47
21.130        47
21.140        60
21.150        60
21.160        20
21.170        27
21.180        60
21.190        13
21.200        33
21.210        53
21.220        40
21.230        53
21.240        27
21.250        47
21.260        20
21.270        20
21.280        33
21.290        40
21.300        40
21.310        27
21.320        13
21.330        13
21.340        67
21.350        33
21.360        33
21.370        53
21.380        20
21.390        33
21.400        60
21.410        47
21.420        40
21.430        67
21.440        20
21.450        53
21.460        47
21.470        33
21.480        33
21.490        27
21.500        73
21.510        47
21.520        53
21.530        67
21.540        53
21.550        60
21.560        60
21.570        80
21.580        40
21.590        53
21.600        67
21.610        20
21.620        47
21.630        33
21.640        40
21.650        40
21.660        53
21.670         7
21.680        53
21.690        33
21.700        27
21.710        60
21.720        33
21.730        20
21.740        40
21.750        40
21.760        60
21.770        67
21.780        53
21.790        67
21.800        60
21.810        27
21.820        40
21.830        33
21.840        53
21.850        67
21.860        60
21.870        93
21.880       107
21.890        40
21.900        73
21.910        40
21.920        53
21.930        47
21.940        33
21.950        67
21.960        53
21.970        40
21.980        40
21.990        67
22.000        47
22.010        73
22.020        27
22.030        47
22.040        47
22.050        33
22.060        40
22.070        27
22.080        33
22.090        67
22.100        33
22.110        33
22.120        47
22.130        47
22.140        40
22.150        40
22.160        60
22.170        13
22.180        80
22.190        40
22.200        53
22.210        27
22.220        33
22.230        33
22.240        47
22.250        27
22.260        60
22.270        53
22.280        60
22.290        67
22.300        40
22.310        60
22.320        60
22.330        20
22.340        47
22.350        27
22.360        20
22.370        20
22.380        60
22.390        47
22.400        13
22.410        53
22.420        40
22.430        20
22.440        20
22.450        47
22.460        53
22.470        27
22.480        47
22.490        40
22.500        27
22.510         7
22.520        53
22.530        53
22.540        53
22.550        13
22.560        40
22.570        47
22.580        33
22.590        53
22.600        33
22.610        53
22.620        20
22.630        40
22.640        20
22.650        60
22.660        40
22.670        53
22.680        33
22.690        73
22.700        47
22.710        47
22.720        27
22.730        60
22.740        73
22.750        47
22.760        53
22.770        33
22.780        87
22.790        60
22.800        20
22.810        47
22.820        13
22.830        13
22.840        20
22.850        33
22.860        53
22.870        47
22.880        27
22.890        60
22.900        33
22.910       113
22.920        33
22.930        53
22.940        40
22.950        20
22.960        33
22.970        20
22.980        13
22.990        27
23.000        40
23.010        33
23.020        40
23.030        60
23.040        40
23.050        40
23.060        47
23.070        47
23.080        60
23.090        20
23.100        80
23.110        40
23.120        40
23.130        27
23.140        20
23.150        27
23.160        40
23.170        53
23.180         7
23.190        33
23.200        27
23.210        47
23.220        27
23.230        40
23.240        33
23.250        27
23.260        27
23.270        47
23.280        60
23.290        27
23.300        20
23.310        20
23.320        47
23.330        27
23.340        20
23.350        60
23.360        53
23.370        33
23.380        40
23.390        60
23.400        33
23.410        47
23.420         7
23.430        47
23.440        33
23.450        27
23.460        47
23.470        20
23.480         7
23.490         7
23.500        13
23.510        27
23.520        47
23.530        53
23.540        27
23.550        33
23.560        33
23.570        47
23.580        20
23.590        53
23.600        47
23.610         7
23.620        20
23.630        20
23.640        47
23.650        80
23.660        20
23.670        27
23.680        40
23.690        47
23.700        40
23.710        40
23.720        40
23.730        33
23.740        53
23.750        13
23.760        87
23.770        73
23.780        40
23.790        20
23.800        33
23.810        47
23.820        27
23.830        33
23.840        20
23.850        20
23.860         7
23.870         7
23.880        27
23.890        53
23.900        53
23.910        27
23.920        67
23.930        93
23.940        20
23.950        27
23.960        87
23.970        27
23.980         7
23.990        47
24.000        20
24.010        27
24.020        27
24.030        60
24.040        27
24.050        13
24.060        33
24.070        33
24.080        40
24.090        47
24.100        13
24.110        53
24.120        27
24.130        13
24.140        33
24.150        80
24.160        60
24.170        47
24.180        40
24.190        27
24.200        27
24.210        20
24.220        20
24.230        27
24.240        20
24.250        40
24.260        20
24.270        67
24.280        27
24.290        40
24.300        27
24.310        13
24.320        33
24.330        47
24.340        40
24.350        20
24.360        27
24.370         7
24.380        40
24.390        20
24.400        53
24.410        47
24.420        33
24.430        40
24.440        40
24.450        13
24.460        53
24.470        20
24.480        13
24.490        33
24.500        20
24.510        53
24.520        27
24.530        40
24.540        13
24.550        27
24.560        40
24.570        20
24.580        40
24.590        27
24.600        27
24.610        13
24.620        33
24.630        47
24.640        13
24.650        27
24.660        27
24.670        73
24.680         7
24.690        20
24.700         0
24.710        47
24.720        47
24.730        27
24.740        27
24.750        47
24.760        53
24.770        60
24.780        20
24.790        33
24.800        67
24.810        20
24.820        33
24.830        27
24.840        33
24.850        53
24.860        33
24.870        40
24.880        13
24.890        47
24.900        40
24.910        20
24.920        60
24.930        47
24.940        33
24.950        47
24.960        13
24.970        33
24.980         7
24.990        40
25.000        40
25.010        33
25.020        27
25.030        20
25.040        20
25.050        27
25.060        40
25.070        53
25.080        40
25.090        27
25.100        33
25.110        40
25.120        27
25.130        33
25.140        47
25.150        13
25.160        33
25.170        47
25.180         0
25.190        53
25.200        47
25.210        33
25.220        20
25.230        27
25.240        40
25.250        53
25.260        53
25.270         0
25.280         0
25.290        20
25.300        60
25.310        33
25.320        33
25.330        27
25.340        33
25.350        13
25.360        40
25.370         7
25.380         7
25.390        33
25.400         0
25.410        27
25.420        40
25.430        67
25.440        33
25.450        47
25.460        20
25.470        40
25.480        13
25.490        67
25.500        47
25.510        27
25.520        20
25.530        33
25.540        33
25.550        27
25.560        47
25.570        60
25.580        27
25.590         7
25.600        47
25.610        67
25.620        13
25.630        60
25.640        40
25.650        27
25.660        33
25.670        53
25.680        27
25.690        40
25.700        27
25.710        13
25.720        47
25.730        33
25.740        27
25.750        47
25.760        33
25.770        53
25.780        33
25.790        13
25.800        53
25.810        33
25.820        47
25.830        47
25.840        27
25.850        20
25.860        40
25.870        40
25.880        40
25.890        47
25.900        33
25.910        60
25.920        20
25.930        27
25.940        40
25.950        40
25.960         7
25.970        47
25.980        27
25.990        47
26.000        60
26.010        27
26.020        13
26.030        13
26.040        27
26.050        27
26.060        40
26.070        13
26.080        27
26.090        27
26.100        40
26.110        20
26.120        33
26.130        33
26.140        33
26.150        33
26.160        13
26.170        40
26.180        40
26.190        33
26.200        27
26.210        13
26.220        47
26.230        47
26.240        33
26.250        13
26.260        27
26.270        20
26.280        33
26.290        33
26.300        20
26.310        13
26.320        27
26.330        33
26.340         0
26.350        67
26.360        27
26.370        33
26.380        27
26.390        40
26.400        20
26.410        33
26.420        33
26.430        33
26.440        47
26.450        47
26.460        40
26.470        13
26.480        27
26.490        33
26.500        20
26.510        20
26.520        27
26.530        27
26.540        33
26.550        40
26.560        20
26.570        40
26.580         0
26.590        60
26.600        20
26.610        13
26.620        13
26.630        20
26.640        27
26.650        40
26.660        53
26.670        40
26.680        20
26.690        27
26.700        40
26.710         7
26.720        33
26.730        40
26.740        80
26.750        20
26.760        40
26.770        27
26.780        20
26.790        73
26.800        47
26.810        33
26.820         7
26.830        33
26.840        20
26.850        20
26.860        47
26.870        27
26.880        13
26.890        13
26.900        13
26.910        33
26.920        33
26.930        27
26.940        33
26.950        53
26.960        40
26.970        27
26.980        20
26.990         7
27.000         7
27.010        27
27.020        13
27.030        27
27.040        20
27.050        47
27.060         7
27.070         0
27.080        13
27.090        73
27.100        13
27.110        40
27.120        33
27.130        40
27.140        40
27.150        47
27.160         7
27.170        60
27.180        33
27.190        60
27.200        20
27.210        47
27.220        13
27.230        53
27.240        20
27.250        33
27.260        27
27.270         7
27.280         7
27.290        40
27.300         7
27.310        33
27.320        13
27.330        13
27.340        33
27.350        20
27.360         7
27.370        27
27.380        33
27.390        13
27.400        40
27.410        40
27.420        20
27.430        60
27.440        27
27.450        13
27.460        27
27.470        53
27.480        40
27.490        20
27.500        27
27.510        20
27.520        53
27.530        20
27.540         7
27.550        27
27.560        47
27.570        27
27.580        33
27.590        20
27.600        27
27.610        33
27.620        20
27.630        27
27.640        53
27.650        60
27.660        60
27.670        13
27.680        13
27.690        20
27.700        33
27.710        67
27.720        13
27.730        20
27.740        33
27.750        27
27.760        27
27.770        33
27.780        33
27.790         7
27.800        40
27.810        40
27.820        80
27.830        40
27.840        33
27.850        53
27.860         7
27.870        33
27.880        53
27.890        53
27.900        13
27.910        47
27.920        47
27.930         7
27.940        13
27.950        47
27.960        47
27.970        67
27.980        27
27.990        27
28.000        40
28.010        33
28.020        20
28.030        20
28.040        53
28.050         7
28.060        27
28.070        47
28.080        27
28.090        40
28.100        27
28.110        27
28.120        47
28.130        47
28.140        13
28.150        60
28.160        20
28.170        13
28.180        40
28.190        27
28.200        40
28.210        40
28.220        20
28.230        47
28.240        20
28.250        27
28.260        20
28.270        53
28.280        20
28.290        60
28.300        33
28.310        27
28.320        27
28.330        20
28.340        27
28.350        27
28.360        33
28.370        13
28.380        53
28.390        20
28.400        27
28.410        20
28.420        47
28.430        20
28.440        20
28.450        27
28.460        27
28.470        20
28.480        33
28.490        13
28.500        27
28.510         7
28.520         7
28.530        27
28.540        53
28.550        13
28.560        33
28.570        27
28.580        20
28.590        47
28.600        33
28.610        27
28.620        13
28.630        40
28.640        33
28.650        53
28.660        20
28.670        13
28.680        33
28.690        27
28.700        13
28.710        20
28.720        33
28.730        40
28.740         7
28.750        53
28.760        33
28.770        20
28.780        13
28.790        60
28.800        20
28.810        33
28.820        20
28.830        33
28.840        33
28.850        27
28.860        20
28.870         7
28.880        13
28.890        33
28.900        33
28.910        33
28.920        33
28.930        53
28.940        20
28.950        40
28.960        33
28.970        13
28.980        13
28.990        27
29.000        33
29.010         7
29.020        47
29.030        60
29.040        13
29.050        40
29.060         7
29.070        47
29.080        27
29.090        27
29.100        40
29.110        20
29.120        27
29.130        53
29.140        33
29.150        53
29.160        27
29.170        47
29.180        33
29.190        27
29.200        47
29.210        40
29.220        27
29.230        40
29.240        40
29.250        40
29.260        33
29.270        13
29.280        27
29.290        20
29.300        20
29.310         7
29.320        33
29.330        33
29.340        33
29.350        20
29.360         0
29.370        13
29.380        33
29.390        60
29.400        27
29.410        13
29.420        20
29.430        47
29.440        20
29.450        33
29.460        13
29.470        27
29.480        20
29.490        67
29.500        40
29.510        47
29.520        20
29.530        33
29.540        33
29.550         7
29.560        20
29.570        47
29.580        47
29.590        20
29.600        27
29.610        13
29.620        20
29.630        13
29.640        20
29.650        20
29.660        33
29.670        33
29.680         0
29.690         7
29.700        40
29.710        47
29.720        13
29.730        20
29.740        27
29.750        27
29.760        60
29.770        27
29.780        33
29.790        80
29.800        20
29.810        47
29.820        20
29.830        20
29.840        33
29.850        27
29.860        40
29.870        60
29.880        33
29.890        13
29.900        20
29.910        40
29.920        27
29.930        20
29.940        27
29.950        13
29.960        33
29.970        40
29.980        20
29.990        27
30.000        33
30.010        20
30.020        27
30.030        60
30.040        27
30.050        33
30.060        33
30.070        27
30.080        60
30.090        20
30.100        20
30.110        27
30.120        13
30.130         7
30.140         7
30.150        20
30.160        27
30.170        13
30.180        47
30.190        20
30.200        20
30.210        27
30.220        20
30.230         7
30.240        33
30.250        20
30.260        40
30.270        27
30.280        27
30.290        13
30.300        33
30.310        47
30.320        20
30.330        33
30.340        33
30.350        27
30.360        40
30.370        13
30.380        27
30.390        67
30.400         7
30.410        47
30.420        53
30.430        13
30.440         7
30.450        33
30.460        27
30.470        33
30.480        20
30.490        13
30.500        33
30.510        40
30.520        20
30.530        47
30.540        20
30.550        13
30.560        20
30.570        40
30.580        27
30.590        40
30.600        33
30.610        27
30.620        33
30.630        20
30.640        13
30.650        27
30.660        27
30.670        47
30.680        13
30.690         0
30.700        40
30.710        40
30.720         7
30.730        27
30.740        40
30.750        33
30.760        20
30.770        20
30.780        60
30.790        27
30.800        33
30.810        27
30.820        47
30.830        27
30.840        40
30.850        53
30.860        47
30.870        33
30.880        60
30.890        60
30.900        33
30.910        53
30.920        87
30.930        33
30.940        93
30.950        60
30.960       100
30.970        80
30.980        87
30.990        93
31.000       140
31.010       107
31.020       127
31.030       167
31.040       140
31.050       127
31.060       113
31.070       187
31.080       287
31.090       240
31.100       253
31.110       273
31.120       320
31.130       320
31.140       333
31.150       327
31.160       420
31.170       347
31.180       347
31.190       407
31.200       426
31.210       333
31.220       407
31.230       360
31.240       380
31.250       240
31.260       240
31.270       200
31.280       227
31.290       260
31.300       207
31.310       227
31.320       173
31.330       173
31.340       140
31.350       120
31.360       107
31.370       120
31.380        87
31.390        73
31.400        40
31.410        60
31.420       127
31.430        53
31.440        73
31.450        47
31.460        47
31.470        53
31.480        27
31.490        60
31.500        27
31.510        33
31.520        33
31.530        27
31.540        20
31.550        27
31.560        33
31.570        40
31.580        27
31.590        40
31.600        33
31.610        33
31.620        33
31.630        47
31.640        20
31.650        27
31.660        20
31.670         0
31.680        20
31.690        33
31.700        47
31.710        53
31.720        13
31.730        47
31.740        13
31.750        47
31.760        47
31.770        27
31.780        27
31.790        20
31.800        20
31.810        33
31.820         7
31.830        33
31.840        20
31.850        33
31.860        53
31.870        53
31.880        33
31.890        27
31.900        33
31.910        27
31.920        20
31.930        20
31.940        20
31.950        47
31.960         0
31.970        33
31.980        40
31.990        60
32.000        13
32.010        53
32.020        20
32.030        33
32.040        33
32.050        47
32.060        40
32.070        13
32.080        40
32.090        33
32.100        40
32.110        27
32.120        20
32.130        27
32.140        27
32.150        20
32.160         7
32.170        33
32.180        20
32.190        33
32.200        53
32.210        20
32.220        27
32.230        40
32.240        20
32.250        13
32.260        13
32.270        27
32.280         7
32.290        13
32.300        13
32.310        27
32.320        20
32.330        27
32.340        33
32.350        20
32.360         7
32.370         7
32.380        13
32.390        33
32.400        20
32.410        40
32.420        27
32.430        40
32.440        33
32.450        40
32.460        47
32.470        40
32.480        33
32.490         0
32.500        47
32.510        40
32.520        33
32.530        20
32.540        20
32.550         7
32.560        27
32.570        33
32.580        20
32.590        20
32.600        53
32.610         7
32.620        20
32.630        33
32.640        20
32.650        20
32.660        27
32.670        13
32.680         7
32.690        20
32.700        40
32.710        33
32.720        13
32.730        20
32.740        13
32.750        13
32.760        27
32.770        40
32.780        33
32.790        13
32.800        40
32.810        20
32.820        47
32.830        13
32.840        27
32.850        40
32.860        33
32.870        20
32.880        40
32.890        20
32.900        47
32.910        33
32.920         7
32.930        27
32.940        20
32.950        20
32.960        33
32.970        33
32.980        53
32.990        13
33.000        27
33.010        33
33.020        27
33.030        13
33.040        20
33.050        20
33.060        40
33.070        33
33.080        33
33.090        27
33.100        13
33.110        13
33.120        20
33.130        27
33.140        33
33.150        20
33.160        13
33.170        27
33.180        27
33.190        13
33.200         7
33.210         7
33.220        13
33.230        20
33.240        20
33.250        13
33.260        67
33.270        20
33.280        33
33.290        20
33.300        13
33.310        20
33.320        13
33.330        33
33.340        47
33.350        20
33.360        13
33.370        13
33.380        27
33.390        27
33.400        20
33.410        27
33.420         0
33.430        33
33.440        33
33.450         7
33.460        33
33.470         0
33.480        33
33.490         7
33.500        27
33.510        53
33.520        40
33.530        13
33.540        40
33.550         7
33.560        40
33.570        13
33.580        20
33.590        40
33.600         7
33.610        20
33.620        27
33.630        13
33.640        27
33.650        20
33.660        13
33.670         7
33.680        13
33.690        13
33.700        13
33.710         0
33.720        33
33.730         7
33.740        33
33.750        20
33.760        33
33.770        20
33.780        13
33.790        27
33.800        13
33.810        20
33.820        20
33.830        27
33.840        27
33.850        40
33.860        27
33.870         7
33.880        40
33.890        33
33.900        27
33.910        20
33.920        20
33.930        27
33.940        53
33.950        40
33.960         7
33.970        33
33.980        33
33.990         7
34.000        27
34.010        27
34.020        20
34.030        60
34.040        33
34.050        27
34.060        27
34.070        13
34.080         7
34.090        27
34.100        27
34.110        13
34.120        13
34.130        20
34.140        40
34.150        20
34.160        33
34.170        47
34.180         7
34.190        13
34.200        27
34.210         7
34.220        13
34.230        33
34.240        13
34.250        40
34.260        27
34.270        20
34.280        27
34.290        13
34.300        13
34.310        20
34.320         7
34.330        20
34.340        27
34.350        33
34.360        27
34.370        40
34.380        20
34.390        33
34.400        27
34.410        13
34.420        20
34.430        20
34.440        20
34.450         7
34.460        20
34.470        20
34.480        33
34.490        13
34.500        20
34.510        33
34.520        40
34.530        13
34.540        13
34.550         7
34.560        27
34.570        20
34.580        33
34.590        13
34.600        60
34.610        13
34.620         7
34.630        20
34.640        40
34.650        27
34.660        27
34.670        13
34.680        27
34.690        40
34.700        13
34.710        33
34.720        13
34.730        13
34.740        27
34.750        20
34.760        40
34.770         0
34.780        20
34.790        47
34.800        27
34.810        13
34.820        13
34.830        47
34.840        27
34.850        13
34.860        13
34.870        20
34.880        27
34.890        20
34.900        20
34.910        33
34.920        13
34.930        53
34.940        33
34.950        47
34.960        27
34.970        13
34.980        47
34.990        27
35.000        20
35.010        20
35.020        47
35.030        47
35.040        40
35.050        80
35.060        73
35.070        47
35.080        80
35.090        40
35.100        53
35.110        60
35.120       120
35.130       107
35.140       127
35.150       100
35.160       140
35.170       100
35.180       120
35.190        93
35.200       127
35.210       113
35.220        67
35.230       120
35.240        93
35.250        60
35.260        47
35.270        60
35.280        73
35.290        20
35.300        47
35.310        27
35.320        33
35.330        33
35.340        33
35.350        40
35.360        13
35.370         7
35.380        47
35.390        33
35.400        20
35.410        27
35.420        13
35.430         0
35.440        47
35.450        27
35.460        13
35.470         0
35.480        20
35.490        47
35.500        20
35.510        13
35.520        40
35.530        20
35.540        20
35.550        27
35.560        27
35.570         7
35.580        33
35.590        20
35.600        20
35.610        53
35.620        40
35.630        40
35.640        13
35.650        13
35.660         7
35.670        20
35.680        20
35.690        13
35.700        40
35.710        27
35.720        33
35.730        53
35.740        20
35.750        20
35.760        13
35.770         7
35.780        13
35.790        20
35.800        33
35.810        33
35.820        13
35.830        13
35.840        60
35.850        47
35.860        33
35.870        13
35.880        33
35.890        20
35.900        13
35.910        13
35.920        13
35.930        27
35.940        13
35.950        27
35.960        33
35.970        13
35.980        27
35.990        13
36.000        20
36.010        20
36.020        60
36.030         7
36.040        33
36.050        33
36.060        13
36.070        27
36.080        13
36.090        40
36.100        53
36.110         7
36.120        20
36.130        33
36.140        27
36.150        47
36.160        33
36.170        33
36.180        20
36.190        13
36.200         0
36.210        33
36.220        13
36.230         7
36.240         7
36.250        27
36.260        27
36.270        20
36.280         7
36.290         7
36.300        60
36.310        20
36.320        20
36.330        20
36.340         0
36.350        13
36.360        13
36.370        20
36.380        27
36.390        27
36.400        13
36.410         7
36.420        20
36.430        33
36.440        13
36.450        33
36.460        20
36.470        27
36.480        20
36.490        60
36.500        27
36.510        20
36.520        13
36.530        27
36.540        33
36.550        20
36.560         7
36.570        13
36.580        40
36.590         7
36.600        20
36.610         0
36.620        20
36.630        20
36.640        13
36.650         7
36.660        40
36.670         0
36.680         0
36.690        20
36.700        27
36.710        27
36.720         7
36.730        20
36.740        27
36.750        13
36.760        20
36.770         7
36.780        73
36.790        20
36.800        33
36.810        13
36.820         0
36.830        33
36.840        33
36.850        27
36.860        40
36.870        13
36.880        33
36.890        33
36.900        20
36.910        20
36.920         7
36.930        20
36.940        27
36.950        33
36.960        20
36.970        13
36.980        27
36.990        20
37.000        20
37.010        13
37.020        20
37.030        27
37.040        20
37.050         7
37.060        20
37.070        20
37.080        13
37.090        13
37.100        47
37.110        33
37.120        13
37.130        20
37.140        27
37.150        20
37.160        13
37.170        13
37.180        20
37.190        40
37.200        27
37.210        33
37.220        27
37.230        20
37.240         7
37.250        33
37.260         7
37.270        20
37.280        27
37.290        27
37.300        27
37.310        67
37.320        33
37.330        20
37.340         7
37.350         0
37.360        20
37.370        20
37.380        20
37.390        40
37.400        33
37.410        33
37.420        20
37.430        73
37.440        27
37.450        27
37.460        20
37.470        53
37.480        20
37.490        33
37.500        13
37.510        27
37.520        20
37.530        20
37.540        20
37.550         0
37.560        13
37.570        33
37.580        27
37.590         7
37.600        27
37.610        67
37.620        13
37.630        40
37.640        27
37.650        13
37.660        33
37.670        27
37.680        53
37.690        20
37.700         7
37.710        27
37.720        33
37.730        27
37.740        20
37.750        13
37.760        20
37.770        20
37.780        13
37.790        13
37.800        13
37.810        27
37.820         7
37.830         7
37.840        33
37.850        13
37.860        33
37.870         0
37.880         7
37.890        13
37.900        20
37.910        20
37.920        20
37.930        53
37.940        13
37.950        40
37.960         7
37.970        27
37.980        47
37.990        27
38.000        27
38.010        53
38.020        27
38.030        20
38.040        40
38.050         7
38.060        20
38.070        13
38.080        13
38.090        40
38.100         0
38.110        40
38.120        40
38.130        20
38.140         7
38.150        20
38.160        40
38.170        27
38.180        33
38.190        33
38.200        47
38.210        93
38.220        27
38.230        33
38.240        27
38.250        20
38.260        20
38.270        40
38.280        60
38.290        60
38.300        60
38.310        53
38.320        87
38.330        73
38.340        87
38.350        73
38.360       107
38.370        87
38.380       127
38.390       153
38.400       113
38.410       180
38.420       220
38.430       167
38.440       140
38.450       207
38.460       233
38.470       287
38.480       173
38.490       240
38.500       220
38.510       240
38.520       260
38.530       227
38.540       240
38.550       187
38.560       180
38.570       147
38.580       127
38.590       120
38.600       147
38.610       127
38.620        87
38.630       120
38.640        73
38.650        53
38.660        80
38.670        33
38.680        27
38.690        80
38.700        40
38.710        40
38.720        33
38.730        40
38.740        60
38.750        20
38.760        33
38.770        40
38.780        33
38.790        33
38.800        27
38.810        13
38.820        27
38.830        33
38.840        20
38.850        20
38.860         7
38.870        33
38.880         7
38.890        47
38.900        20
38.910        33
38.920        27
38.930        20
38.940        13
38.950         7
38.960        20
38.970        13
38.980        20
38.990        40
39.000         7
39.010        27
39.020        20
39.030        20
39.040        47
39.050        20
39.060         0
39.070        33
39.080        13
39.090         7
39.100        27
39.110         0
39.120         0
39.130        20
39.140        20
39.150        33
39.160        13
39.170        13
39.180        13
39.190        33
39.200        33
39.210        33
39.220        33
39.230        40
39.240        27
39.250        40
39.260        27
39.270        27
39.280        33
39.290        20
39.300        13
39.310        40
39.320        13
39.330        40
39.340        13
39.350        47
39.360        27
39.370        33
39.380        40
39.390        13
39.400         0
39.410        33
39.420        33
39.430        13
39.440        20
39.450        27
39.460        33
39.470         7
39.480        33
39.490        33
39.500        27
39.510         7
39.520        27
39.530         7
39.540        20
39.550        13
39.560        20
39.570        13
39.580         7
39.590        20
39.600        13
39.610         7
39.620        20
39.630        47
39.640        27
39.650        27
39.660         7
39.670        20
39.680        13
39.690        27
39.700        13
39.710        20
39.720        13
39.730        20
39.740        20
39.750        20
39.760        27
39.770         7
39.780        53
39.790        13
39.800        27
39.810        13
39.820        27
39.830         7
39.840        27
39.850        20
39.860        27
39.870        40
39.880        40
39.890        20
39.900        20
39.910        13
39.920        20
39.930        27
39.940        20
39.950        20
39.960         7
39.970        27
39.980         7
39.990        13
40.000        13
40.010        20
40.020        27
40.030         0
40.040        20
40.050        33
40.060         0
40.070        20
40.080        20
40.090        27
40.100        27
40.110        33
40.120         7
40.130        27
40.140        20
40.150        20
40.160        20
40.170        13
40.180        40
40.190        47
40.200         0
40.210        27
40.220        20
40.230        20
40.240        33
40.250        27
40.260        13
40.270        20
40.280        13
40.290        20
40.300        27
40.310         7
40.320        13
40.330        13
40.340        27
40.350        27
40.360        20
40.370        27
40.380        27
40.390        13
40.400        20
40.410        13
40.420         7
40.430        40
40.440        27
40.450        27
40.460         7
40.470         7
40.480        20
40.490        20
40.500        27
40.510        27
40.520        13
40.530        33
40.540        20
40.550        27
40.560         7
40.570        13
40.580        40
40.590         7
40.600        27
40.610        13
40.620        13
40.630        13
40.640         7
40.650        13
40.660         7
40.670        53
40.680        40
40.690        27
40.700         7
40.710        27
40.720        33
40.730         7
40.740         7
40.750        20
40.760        33
40.770        27
40.780        20
40.790        20
40.800        47
40.810        27
40.820        13
40.830        40
40.840        13
40.850        40
40.860         0
40.870        20
40.880        33
40.890        20
40.900        27
40.910        40
40.920         7
40.930        20
40.940        13
40.950        33
40.960        20
40.970        20
40.980        13
40.990        40
41.000         0
41.010         7
41.020        13
41.030        13
41.040        27
41.050         7
41.060        20
41.070        13
41.080         0
41.090        20
41.100         7
41.110        40
41.120        33
41.130        33
41.140        13
41.150        33
41.160        27
41.170        20
41.180        13
41.190        27
41.200        27
41.210        27
41.220         7
41.230        13
41.240        27
41.250        20
41.260        13
41.270        33
41.280        20
41.290        20
41.300        20
41.310        20
41.320        33
41.330         7
41.340         7
41.350        20
41.360        20
41.370        13
41.380         0
41.390        27
41.400        33
41.410        20
41.420         0
41.430        13
41.440         7
41.450         7
41.460        20
41.470        33
41.480        20
41.490        33
41.500        53
41.510        13
41.520        27
41.530        20
41.540        27
41.550        13
41.560        20
41.570        40
41.580        27
41.590        33
41.600        47
41.610        33
41.620        13
41.630        33
41.640        53
41.650        33
41.660        27
41.670        47
41.680        20
41.690        33
41.700        40
41.710        27
41.720        40
41.730        40
41.740        13
41.750        27
41.760        33
41.770        40
41.780        67
41.790        60
41.800        13
41.810        27
41.820        13
41.830        13
41.840        33
41.850        33
41.860        13
41.870        27
41.880        47
41.890         7
41.900        20
41.910        20
41.920        13
41.930        20
41.940        20
41.950        33
41.960        27
41.970        27
41.980        13
41.990        33
42.000        33
42.010         0
42.020        13
42.030         7
42.040        13
42.050        13
42.060        13
42.070        33
42.080         7
42.090        27
42.100        20
42.110        20
42.120        20
42.130        13
42.140         7
42.150         0
42.160         7
42.170        33
42.180        13
42.190        33
42.200        33
42.210        27
42.220        27
42.230        20
42.240        13
42.250        13
42.260        33
42.270        13
42.280        13
42.290        13
42.300        20
42.310        33
42.320         7
42.330        13
42.340        20
42.350        13
42.360        33
42.370         0
42.380        20
42.390        13
42.400        13
42.410        27
42.420         7
42.430        27
42.440        13
42.450        27
42.460        47
42.470        13
42.480        20
42.490        33
42.500        13
42.510        20
42.520        27
42.530        40
42.540        33
42.550         0
42.560        20
42.570        13
42.580        13
42.590        13
42.600        20
42.610         7
42.620        13
42.630         7
42.640        20
42.650        33
42.660        20
42.670        13
42.680        40
42.690        13
42.700        13
42.710         7
42.720         0
42.730        13
42.740        13
42.750        53
42.760        33
42.770        13
42.780        13
42.790        20
42.800        13
42.810        27
42.820        47
42.830        13
42.840        13
42.850        20
42.860        20
42.870         7
42.880        60
42.890        20
42.900         7
42.910        20
42.920        13
42.930         7
42.940        47
42.950        33
42.960        40
42.970        47
42.980        27
42.990        40
43.000        13
43.010        20
43.020        13
43.030        20
43.040        13
43.050         7
43.060        13
43.070        20
43.080        33
43.090        20
43.100         0
43.110        27
43.120         0
43.130        20
43.140        13
43.150        13
43.160        13
43.170         7
43.180        33
43.190        40
43.200         0
43.210        13
43.220        20
43.230        20
43.240        53
43.250        13
43.260        13
43.270        27
43.280        27
43.290        20
43.300        33
43.310        67
43.320        73
43.330        53
43.340        80
43.350       147
43.360       100
43.370       120
43.380       153
43.390       107
43.400        60
43.410        60
43.420        40
43.430        60
43.440        20
43.450        93
43.460        40
43.470        53
43.480        93
43.490        80
43.500        67
43.510        60
43.520        47
43.530        53
43.540        27
43.550        13
43.560        20
43.570        20
43.580        13
43.590        27
43.600        27
43.610        20
43.620        33
43.630        13
43.640        40
43.650        13
43.660         7
43.670        13
43.680         7
43.690        20
43.700         0
43.710        13
43.720        27
43.730        27
43.740        20
43.750         7
43.760        20
43.770         7
43.780        47
43.790        27
43.800         7
43.810        13
43.820        27
43.830        13
43.840        40
43.850        27
43.860         7
43.870        13
43.880        13
43.890        27
43.900        13
43.910        27
43.920        13
43.930        27
43.940        13
43.950         7
43.960        40
43.970         0
43.980         0
43.990        20
44.000        13
44.010        13
44.020        27
44.030        20
44.040         0
44.050        13
44.060        13
44.070         7
44.080        40
44.090         0
44.100        33
44.110         7
44.120        20
44.130        27
44.140        20
44.150        27
44.160        33
44.170        20
44.180        13
44.190        20
44.200        13
44.210        33
44.220        20
44.230        13
44.240        13
44.250        27
44.260        47
44.270        20
44.280        33
44.290        20
44.300        40
44.310        40
44.320        60
44.330        40
44.340        20
44.350        13
44.360        20
44.370        40
44.380        47
44.390        47
44.400        20
44.410        27
44.420        20
44.430        40
44.440        53
44.450        33
44.460        20
44.470        53
44.480        47
44.490        20
44.500        60
44.510        33
44.520        13
44.530        13
44.540        67
44.550        20
44.560        27
44.570        73
44.580        40
44.590       100
44.600        53
44.610        87
44.620        80
44.630        87
44.640       100
44.650        87
44.660       100
44.670        73
44.680        53
44.690        93
44.700        87
44.710        67
44.720        67
44.730        93
44.740        80
44.750        53
44.760       100
44.770        53
44.780        93
44.790        33
44.800        60
44.810        67
44.820        53
44.830        60
44.840        20
44.850        73
44.860        47
44.870        60
44.880        47
44.890        47
44.900        47
44.910        40
44.920        27
44.930        20
44.940        53
44.950        40
44.960        67
44.970        20
44.980        20
44.990        40
45.000        53
45.010        33
45.020        13
45.030        13
45.040        20
45.050        20
45.060         7
45.070        33
45.080        20
45.090         7
45.100        27
45.110        20
45.120        13
45.130         7
45.140        13
45.150        20
45.160        20
45.170        27
45.180        20
45.190         7
45.200        13
45.210        20
45.220        27
45.230        40
45.240        13
45.250        47
45.260        13
45.270        20
45.280        53
45.290         7
45.300        20
45.310        13
45.320        40
45.330        20
45.340         0
45.350         7
45.360         7
45.370         7
45.380        20
45.390         7
45.400        20
45.410         7
45.420        20
45.430         7
45.440        40
45.450        20
45.460        27
45.470        13
45.480        20
45.490        13
45.500        13
45.510        27
45.520        27
45.530        13
45.540        27
45.550        20
45.560        13
45.570         0
45.580        40
45.590         7
45.600         7
45.610         0
45.620        20
45.630        20
45.640        20
45.650        20
45.660         0
45.670        27
45.680        53
45.690        13
45.700         7
45.710        20
45.720         0
45.730         7
45.740        40
45.750         7
45.760        33
45.770        13
45.780         7
45.790         7
45.800        13
45.810        20
45.820        33
45.830         7
45.840        20
45.850        27
45.860         7
45.870        20
45.880        13
45.890        13
45.900        20
45.910        13
45.920         7
45.930        33
45.940        20
45.950        20
45.960         0
45.970         7
45.980        13
45.990        20
46.000        13
46.010        20
46.020        47
46.030         7
46.040        20
46.050         7
46.060        20
46.070        33
46.080         7
46.090        40
46.100        20
46.110        13
46.120        20
46.130        33
46.140         7
46.150        13
46.160        27
46.170         7
46.180        27
46.190         0
46.200        13
46.210        13
46.220        13
46.230        13
46.240        20
46.250        27
46.260        13
46.270        13
46.280        27
46.290        27
46.300        20
46.310        13
46.320        20
46.330        40
46.340         7
46.350        27
46.360        20
46.370        27
46.380        33
46.390        27
46.400        13
46.410        20
46.420        20
46.430        13
46.440        13
46.450        20
46.460        13
46.470        47
46.480         0
46.490        27
46.500        33
46.510         7
46.520        20
46.530         7
46.540        13
46.550        27
46.560        27
46.570         7
46.580        20
46.590        20
46.600        27
46.610        13
46.620        20
46.630        20
46.640         0
46.650         7
46.660        20
46.670        13
46.680         7
46.690        20
46.700        27
46.710         7
46.720        13
46.730        13
46.740        20
46.750        13
46.760        20
46.770        20
46.780        27
46.790         0
46.800         0
46.810         0
46.820         7
46.830        13
46.840        13
46.850        20
46.860        13
46.870        13
46.880        47
46.890        27
46.900        20
46.910        13
46.920         7
46.930        27
46.940         0
46.950        13
46.960         7
46.970        20
46.980        13
46.990         0
47.000        13
47.010        27
47.020         7
47.030        13
47.040        13
47.050         7
47.060         7
47.070        20
47.080        20
47.090        13
47.100        20
47.110        13
47.120        20
47.130        27
47.140        33
47.150        13
47.160        20
47.170         0
47.180        27
47.190        20
47.200         7
47.210        13
47.220        40
47.230        20
47.240        13
47.250        20
47.260        40
47.270        27
47.280        13
47.290         7
47.300        13
47.310        20
47.320        13
47.330        27
47.340        27
47.350        33
47.360         7
47.370        20
47.380        13
47.390        27
47.400        20
47.410        13
47.420        13
47.430        20
47.440        40
47.450         7
47.460        27
47.470        47
47.480        20
47.490         7
47.500        27
47.510        13
47.520        27
47.530         0
47.540        13
47.550        20
47.560         7
47.570        13
47.580         7
47.590        33
47.600        13
47.610        13
47.620        13
47.630        33
47.640        13
47.650        33
47.660        13
47.670        20
47.680         7
47.690         7
47.700        13
47.710        13
47.720         7
47.730        20
47.740         7
47.750         7
47.760        20
47.770        27
47.780         7
47.790        13
47.800        33
47.810        20
47.820        47
47.830         7
47.840        20
47.850        13
47.860        27
47.870        13
47.880         0
47.890        20
47.900        27
47.910        13
47.920        20
47.930        27
47.940        13
47.950         7
47.960         7
47.970        13
47.980        27
47.990        27
48.000         7
48.010        13
48.020        13
48.030         7
48.040        13
48.050        20
48.060         7
48.070         7
48.080        13
48.090        20
48.100         7
48.110        27
48.120        40
48.130        13
48.140        27
48.150        13
48.160         0
48.170        27
48.180        13
48.190        20
48.200        13
48.210         0
48.220        27
48.230        27
48.240        13
48.250         7
48.260         0
48.270        20
48.280        47
48.290        13
48.300         0
48.310         7
48.320        13
48.330        20
48.340        27
48.350         0
48.360        13
48.370         7
48.380        27
48.390        13
48.400        20
48.410        27
48.420         0
48.430        20
48.440         7
48.450        20
48.460        13
48.470         7
48.480        27
48.490        33
48.500        27
48.510        20
48.520        27
48.530         7
48.540        20
48.550         7
48.560        20
48.570         7
48.580        13
48.590        13
48.600        33
48.610        13
48.620        27
48.630        20
48.640         7
48.650        27
48.660         7
48.670        13
48.680         0
48.690        13
48.700         0
48.710        13
48.720         7
48.730        20
48.740         7
48.750         7
48.760         7
48.770        20
48.780         0
48.790        20
48.800         7
48.810        20
48.820        13
48.830        13
48.840        13
48.850        20
48.860         7
48.870         7
48.880         7
48.890        13
48.900        33
48.910        20
48.920        13
48.930        20
48.940        20
48.950         7
48.960        13
48.970        20
48.980        27
48.990        13
49.000         0
49.010        13
49.020        27
49.030         0
49.040        13
49.050         7
49.060        27
49.070         7
49.080        20
49.090        20
49.100         0
49.110         7
49.120        20
49.130        20
49.140        13
49.150        40
49.160        13
49.170        33
49.180        33
49.190        13
49.200        13
49.210        13
49.220         7
49.230         0
49.240         7
49.250         7
49.260        13
49.270        13
49.280        20
49.290        33
49.300        20
49.310        33
49.320         7
49.330         7
49.340        27
49.350        13
49.360        20
49.370         7
49.380        13
49.390         7
49.400        40
49.410        13
49.420        13
49.430        20
49.440        20
49.450        40
49.460        20
49.470        27
49.480         7
49.490         7
49.500         7
49.510         7
49.520         7
49.530        13
49.540        27
49.550         7
49.560         0
49.570         7
49.580        13
49.590        13
49.600         7
49.610        13
49.620         7
49.630        20
49.640        13
49.650        20
49.660        13
49.670         0
49.680        13
49.690        27
49.700        20
49.710         7
49.720        27
49.730        33
49.740        13
49.750        33
49.760        13
49.770        13
49.780        13
49.790        33
49.800        13
49.810        13
49.820         7
49.830        40
49.840        40
49.850        20
49.860        20
49.870        20
49.880        20
49.890         7
49.900         7
49.910        13
49.920        33
49.930         0
49.940        13
49.950        47
49.960        33
49.970        27
49.980         7
49.990         0
50.000        13
50.010        13
50.020        27
50.030         7
50.040        20
50.050        27
50.060        13
50.070        27
50.080        20
50.090        20
50.100        20
50.110        27
50.120        13
50.130        20
50.140        40
50.150        33
50.160        27
50.170        13
50.180        33
50.190        27
50.200        27
50.210        33
50.220        27
50.230        33
50.240         7
50.250        33
50.260        20
50.270        13
50.280        13
50.290        20
50.300        33
50.310        33
50.320        20
50.330        40
50.340        13
50.350         7
50.360        33
50.370        27
50.380        27
50.390        20
50.400        27
50.410        13
50.420        27
50.430         7
50.440        13
50.450        47
50.460         7
50.470         7
50.480        20
50.490        20
50.500        27
50.510        40
50.520         7
50.530        20
50.540        33
50.550        47
50.560        13
50.570        13
50.580         0
50.590        13
50.600        20
50.610        13
50.620        13
50.630        13
50.640        27
50.650         7
50.660         7
50.670        33
50.680        13
50.690         7
50.700         0
50.710        33
50.720        13
50.730        20
50.740         7
50.750         7
50.760         7
50.770         7
50.780         7
50.790        20
50.800        27
50.810        13
50.820        20
50.830        33
50.840        20
50.850        13
50.860        13
50.870        27
50.880        20
50.890        20
50.900         7
50.910         7
50.920        13
50.930        33
50.940        13
50.950        13
50.960        20
50.970        20
50.980        13
50.990         7
51.000        27
51.010         7
51.020        13
51.030         0
51.040         7
51.050        20
51.060         7
51.070         7
51.080        47
51.090        20
51.100         7
51.110        13
51.120        13
51.130         7
51.140         7
51.150         7
51.160        13
51.170         7
51.180        13
51.190        13
51.200        13
51.210         7
51.220        20
51.230        27
51.240        33
51.250        47
51.260        13
51.270        13
51.280         7
51.290        20
51.300        20
51.310        13
51.320         7
51.330         7
51.340        13
51.350         7
51.360        20
51.370        13
51.380        20
51.390        13
51.400        20
51.410         7
51.420        27
51.430        27
51.440         7
51.450        47
51.460        40
51.470         0
51.480        33
51.490        33
51.500        20
51.510        27
51.520        20
51.530         7
51.540        27
51.550        27
51.560        13
51.570        20
51.580         7
51.590        27
51.600        20
51.610        33
51.620        27
51.630        13
51.640        13
51.650         7
51.660         7
51.670         7
51.680        13
51.690        20
51.700        20
51.710        13
51.720        13
51.730         0
51.740        20
51.750        13
51.760         7
51.770        20
51.780        20
51.790         0
51.800         7
51.810        20
51.820        20
51.830        27
51.840         7
51.850        20
51.860         7
51.870         7
51.880         7
51.890         7
51.900        13
51.910         0
51.920         0
51.930        13
51.940        33
51.950         0
51.960        20
51.970        20
51.980        13
51.990        20
52.000        27
52.010         0
52.020        20
52.030         7
52.040         0
52.050        20
52.060        13
52.070         7
52.080        20
52.090        27
52.100        20
52.110         0
52.120         7
52.130        20
52.140        13
52.150         7
52.160        27
52.170        40
52.180        27
52.190        33
52.200        47
52.210        13
52.220        13
52.230        20
52.240        13
52.250        27
52.260        20
52.270         0
52.280        20
52.290        20
52.300         7
52.310        20
52.320        33
52.330        13
52.340        53
52.350        13
52.360        13
52.370        13
52.380        33
52.390        27
52.400        33
52.410        13
52.420         0
52.430         0
52.440        20
52.450         0
52.460        13
52.470        27
52.480        33
52.490        47
52.500        20
52.510        33
52.520        20
52.530        20
52.540        33
52.550        33
52.560        33
52.570         7
52.580        13
52.590        13
52.600        13
52.610        13
52.620        27
52.630        27
52.640        27
52.650         7
52.660        13
52.670         7
52.680        33
52.690         7
52.700         7
52.710         0
52.720        13
52.730        27
52.740        20
52.750        20
52.760        13
52.770        13
52.780        27
52.790        13
52.800        13
52.810        20
52.820        20
52.830        13
52.840         7
52.850        13
52.860        27
52.870        13
52.880        20
52.890        20
52.900         7
52.910         7
52.920        40
52.930        20
52.940        33
52.950        27
52.960        27
52.970        13
52.980        20
52.990         7
53.000        27
53.010        20
53.020        20
53.030        27
53.040        27
53.050        13
53.060         7
53.070         0
53.080        13
53.090        13
53.100         0
53.110        13
53.120        27
53.130        27
53.140        13
53.150         0
53.160        13
53.170        40
53.180        13
53.190         7
53.200        20
53.210        13
53.220        33
53.230         7
53.240        13
53.250         7
53.260         7
53.270         7
53.280        13
53.290        20
53.300        33
53.310        13
53.320        27
53.330         7
53.340        27
53.350         7
53.360         7
53.370         0
53.380         7
53.390        20
53.400        20
53.410         7
53.420         7
53.430        13
53.440        27
53.450        33
53.460         7
53.470        13
53.480         7
53.490        13
53.500         0
53.510         0
53.520        20
53.530        20
53.540        13
53.550         7
53.560        20
53.570        13
53.580        13
53.590        20
53.600        27
53.610        20
53.620         0
53.630        20
53.640        27
53.650        27
53.660         0
53.670         7
53.680        33
53.690         0
53.700        33
53.710        27
53.720         7
53.730        13
53.740         7
53.750         0
53.760        20
53.770        13
53.780         7
53.790        20
53.800        13
53.810        13
53.820         7
53.830        20
53.840        20
53.850        13
53.860        27
53.870         7
53.880        33
53.890        20
53.900        20
53.910        27
53.920        33
53.930         7
53.940         0
53.950        13
53.960        47
53.970         0
53.980         0
53.990         0
54.000        20
54.010        20
54.020        20
54.030        13
54.040        27
54.050        33
54.060         7
54.070         0
54.080         0
54.090        40
54.100        27
54.110         7
54.120        20
54.130        33
54.140        13
54.150         0
54.160        13
54.170        20
54.180         7
54.190         7
54.200        27
54.210        20
54.220        20
54.230        33
54.240        13
54.250        20
54.260         7
54.270        13
54.280        20
54.290        13
54.300        53
54.310        20
54.320        27
54.330        13
54.340        13
54.350        33
54.360        27
54.370        20
54.380        13
54.390         7
54.400        20
54.410        13
54.420        13
54.430        40
54.440        33
54.450         7
54.460         7
54.470        40
54.480         7
54.490        27
54.500        13
54.510         0
54.520        33
54.530         7
54.540        20
54.550        27
54.560        33
54.570         0
54.580        27
54.590         0
54.600        33
54.610        27
54.620        13
54.630         0
54.640        27
54.650        13
54.660         7
54.670        20
54.680        33
54.690        47
54.700        13
54.710        13
54.720        27
54.730        33
54.740        47
54.750        20
54.760        13
54.770        53
54.780         7
54.790        13
54.800        27
54.810         0
54.820         7
54.830        47
54.840        47
54.850        27
54.860        40
54.870        13
54.880        20
54.890        20
54.900        13
54.910        20
54.920        47
54.930        27
54.940        13
54.950        20
54.960         7
54.970        13
54.980        20
54.990        27
55.000        13
55.010        53
55.020        27
55.030         0
55.040        33
55.050        13
55.060        47
55.070        40
55.080        47
55.090        13
55.100        40
55.110        20
55.120        20
55.130        33
55.140        27
55.150        13
55.160        47
55.170        33
55.180        20
55.190        27
55.200        33
55.210        47
55.220        60
55.230        80
55.240        67
55.250        67
55.260        47
55.270        60
55.280        60
55.290        73
55.300       100
55.310        80
55.320        87
55.330       100
55.340       107
55.350       107
55.360       173
55.370       240
55.380       207
55.390       193
55.400       240
55.410       280
55.420       253
55.430       260
55.440       320
55.450       353
55.460       426
55.470       420
55.480       460
55.490       573
55.500       347
55.510       553
55.520       566
55.530       553
55.540       606
55.550       526
55.560       553
55.570       500
55.580       440
55.590       513
55.600       713
55.610       506
55.620       646
55.630       640
55.640       593
55.650       460
55.660       493
55.670       393
55.680       513
55.690       493
55.700       426
55.710       340
55.720       426
55.730       407
55.740       353
55.750       280
55.760       333
55.770       253
55.780       253
55.790       220
55.800       133
55.810       220
55.820       173
55.830       187
55.840       167
55.850       160
55.860        73
55.870       107
55.880        73
55.890        53
55.900        93
55.910        60
55.920        47
55.930        27
55.940        87
55.950        33
55.960        47
55.970        60
55.980        20
55.990        40
56.000        20
56.010        53
56.020        27
56.030        27
56.040        13
56.050        40
56.060        40
56.070        13
56.080        33
56.090        33
56.100        20
56.110         0
56.120        13
56.130        20
56.140        20
56.150        20
56.160        33
56.170        33
56.180         7
56.190        33
56.200        13
56.210        40
56.220        40
56.230        20
56.240        47
56.250        33
56.260        20
56.270         0
56.280        13
56.290        87
56.300        13
56.310         7
56.320        20
56.330        20
56.340        33
56.350        27
56.360        20
56.370        33
56.380        33
56.390        33
56.400        33
56.410        27
56.420        33
56.430        20
56.440        27
56.450        20
56.460        60
56.470        13
56.480        13
56.490        53
56.500         0
56.510         7
56.520         7
56.530        33
56.540         7
56.550        40
56.560        20
56.570        20
56.580        13
56.590         7
56.600        40
56.610        13
56.620        13
56.630        20
56.640         7
56.650         7
56.660        13
56.670        20
56.680        27
56.690        20
56.700         7
56.710        20
56.720        13
56.730        13
56.740        40
56.750        13
56.760        33
56.770        33
56.780         7
56.790        13
56.800         0
56.810        27
56.820        33
56.830        13
56.840        47
56.850         7
56.860        13
56.870        20
56.880         0
56.890         7
56.900         7
56.910        20
56.920        13
56.930        40
56.940        33
56.950         7
56.960        20
56.970        27
56.980        13
56.990         7
57.000         0
57.010        20
57.020        20
57.030         0
57.040         0
57.050        33
57.060        13
57.070         7
57.080        33
57.090        13
57.100        20
57.110        13
57.120        27
57.130        20
57.140        20
57.150        13
57.160        33
57.170        13
57.180        27
57.190        13
57.200         7
57.210        13
57.220        33
57.230        13
57.240        20
57.250         7
57.260        20
57.270        27
57.280        27
57.290         7
57.300        13
57.310        13
57.320        27
57.330        33
57.340        13
57.350        20
57.360        33
57.370        33
57.380        27
57.390         7
57.400        27
57.410        47
57.420        40
57.430        13
57.440        20
57.450        27
57.460        53
57.470        60
57.480        20
57.490        60
57.500        87
57.510       133
57.520        73
57.530        60
57.540        60
57.550        47
57.560        53
57.570        40
57.580        27
57.590        33
57.600        33
57.610        13
57.620        27
57.630        33
57.640        47
57.650        60
57.660        80
57.670        53
57.680        33
57.690        40
57.700        33
57.710        47
57.720        40
57.730        20
57.740        27
57.750         7
57.760        27
57.770        27
57.780        13
57.790        33
57.800        13
57.810        20
57.820        27
57.830        33
57.840        13
57.850        20
57.860         0
57.870         7
57.880         7
57.890        13
57.900         0
57.910        13
57.920        13
57.930         7
57.940        20
57.950        33
57.960         7
57.970        33
57.980        27
57.990         7
58.000        13
58.010        13
58.020         7
58.030        20
58.040        13
58.050        13
58.060         7
58.070        20
58.080        20
58.090        13
58.100        20
58.110        27
58.120        20
58.130        20
58.140         7
58.150        13
58.160        13
58.170        13
58.180        20
58.190        13
58.200        20
58.210        27
58.220         0
58.230        33
58.240        13
58.250         7
58.260        20
58.270         7
58.280        27
58.290        13
58.300         0
58.310        33
58.320        13
58.330         7
58.340        20
58.350        27
58.360        27
58.370         0
58.380         7
58.390        20
58.400         7
58.410        20
58.420        27
58.430        13
58.440        27
58.450        13
58.460        13
58.470        20
58.480        27
58.490        20
58.500        13
58.510        33
58.520         0
58.530        27
58.540        20
58.550        13
58.560         7
58.570         7
58.580        27
58.590         7
58.600         0
58.610        20
58.620        27
58.630        33
58.640        27
58.650        33
58.660         7
58.670        20
58.680        40
58.690         7
58.700        33
58.710        20
58.720         7
58.730        13
58.740        33
58.750        27
58.760        33
58.770        20
58.780        13
58.790        40
58.800        13
58.810        27
58.820         7
58.830        33
58.840        27
58.850        27
58.860        13
58.870         7
58.880         0
58.890        20
58.900        13
58.910        20
58.920        33
58.930         7
58.940        13
58.950        13
58.960        13
58.970         0
58.980        27
58.990         0
59.000        13
59.010         0
59.020        27
59.030        27
59.040        20
59.050        13
59.060        20
59.070        33
59.080        20
59.090         7
59.100         7
59.110        20
59.120        27
59.130        13
59.140        13
59.150        13
59.160         0
59.170         7
59.180        20
59.190         0
59.200        13
59.210        13
59.220        13
59.230         7
59.240         7
59.250         7
59.260         7
59.270         7
59.280        13
59.290         7
59.300        13
59.310         7
59.320        13
59.330        20
59.340        20
59.350        13
59.360        13
59.370         7
59.380        27
59.390         0
59.400        20
59.410        13
59.420        13
59.430        27
59.440        27
59.450         7
59.460         0
59.470        13
59.480        40
59.490        20
59.500        27
59.510         7
59.520        13
59.530        13
59.540        27
59.550        20
59.560        13
59.570        13
59.580         0
59.590         7
59.600         7
59.610        13
59.620        40
59.630         7
59.640        20
59.650         0
59.660        20
59.670         0
59.680        13
59.690        40
59.700        13
59.710        13
59.720        33
59.730        33
59.740        27
59.750         7
59.760        20
59.770        27
59.780        20
59.790        13
59.800        13
59.810        20
59.820         0
59.830        20
59.840        13
59.850        13
59.860        13
59.870        20
59.880         7
59.890        20
59.900         7
59.910        13
59.920        33
59.930        20
59.940        20
59.950        33
59.960         7
59.970        20
59.980         0
59.990         7
60.000         7
