20.000        60
20.010        40
20.020        33
20.030        53
20.040        80
20.050        60
20.060        67
20.070        40
20.080        40
20.090        40
20.100        47
20.110        33
20.120        40
20.130        60
20.140        73
20.150        53
20.160        60
20.170        73
20.180        73
20.190        20
20.200        40
20.210        40
20.220        20
20.230        20
20.240        67
20.250        33
20.260        47
20.270       107
20.280        73
20.290        60
20.300        33
20.310        73
20.320        47
20.330        53
20.340        67
20.350        47
20.360        60
20.370        73
20.380        40
20.390        67
20.400        53
20.410        47
20.420        40
20.430        60
20.440        40
20.450        60
20.460        40
20.470        67
20.480        73
20.490        33
20.500        80
20.510        47
20.520        40
20.530        33
20.540        67
20.550        53
20.560        87
20.570        27
20.580        60
20.590        67
20.600        27
20.610        60
20.620        20
20.630        67
20.640        47
20.650        73
20.660        53
20.670        27
20.680        47
20.690        53
20.700        47
20.710        80
20.720        40
20.730        60
20.740        33
20.750        33
20.760        33
20.770        67
20.780        20
20.790        60
20.800        73
20.810        60
20.820        47
20.830        60
20.840        47
20.850        33
20.860        47
20.870        60
20.880        53
20.890        73
20.900        60
20.910        73
20.920        33
20.930        33
20.940        33
20.950        27
20.960        60
20.970        53
20.980        47
20.990        53
21.000        33
21.010        73
21.020        53
21.030        33
21.040        93
21.050        53
21.060        27
21.070        53
21.080        87
21.090        53
21.100        33
21.110       100
21.120        53
21.130        33
21.140        67
21.150        80
21.160        33
21.170        67
21.180        80
21.190        53
21.200        53
21.210        33
21.220        60
21.230        53
21.240        40
21.250        87
21.260        47
21.270        27
21.280        20
21.290        67
21.300        33
21.310        33
21.320       100
21.330        53
21.340        53
21.350        53
21.360        80
21.370       120
21.380        27
21.390        87
21.400        60
21.410        87
21.420        60
21.430        73
21.440        47
21.450        73
21.460        33
21.470        53
21.480        80
21.490        47
21.500        60
21.510        80
21.520        80
21.530        53
21.540        40
21.550        47
21.560        47
21.570        80
21.580        27
21.590        53
21.600        40
21.610        27
21.620        40
21.630        60
21.640        53
21.650        53
21.660        40
21.670        20
21.680        33
21.690        53
21.700        40
21.710        47
21.720        67
21.730        53
21.740        67
21.750        47
21.760        27
21.770        47
21.780        67
21.790        40
21.800        33
21.810        40
21.820        67
21.830        47
21.840        40
21.850        60
21.860        47
21.870        47
21.880        53
21.890        33
21.900        67
21.910        53
21.920        87
21.930        53
21.940        53
21.950        80
21.960        73
21.970        53
21.980        33
21.990        60
22.000        47
22.010        60
22.020        33
22.030        60
22.040        73
22.050        40
22.060        87
22.070        33
22.080        47
22.090         7
22.100        20
22.110        27
22.120        33
22.130        73
22.140        33
22.150        60
22.160        27
22.170        80
22.180        20
22.190        33
22.200        27
22.210        60
22.220        87
22.230        20
22.240        80
22.250        80
22.260        47
22.270        27
22.280        47
22.290        20
22.300        60
22.310        40
22.320        47
22.330        27
22.340        47
22.350        53
22.360        27
22.370        73
22.380        53
22.390        33
22.400        40
22.410        47
22.420        53
22.430        53
22.440       120
22.450        27
22.460        47
22.470        73
22.480        53
22.490        20
22.500        27
22.510        27
22.520        33
22.530        40
22.540        53
22.550        40
22.560        53
22.570        33
22.580        33
22.590        27
22.600        27
22.610        53
22.620        47
22.630        53
22.640        47
22.650        53
22.660        47
22.670        53
22.680        27
22.690        33
22.700        40
22.710        47
22.720        33
22.730        53
22.740        40
22.750        33
22.760        47
22.770        47
22.780        20
22.790        53
22.800        60
22.810        53
22.820       100
22.830        53
22.840        47
22.850        33
22.860        67
22.870        20
22.880        40
22.890        53
22.900        53
22.910        47
22.920        40
22.930        47
22.940        40
22.950        33
22.960        60
22.970        93
22.980        27
22.990        20
23.000        40
23.010        40
23.020        53
23.030        67
23.040        53
23.050        47
23.060        40
23.070        53
23.080        53
23.090        47
23.100         7
23.110        40
23.120        20
23.130        60
23.140        40
23.150        40
23.160        33
23.170        47
23.180        20
23.190        60
23.200        53
23.210        27
23.220        40
23.230        27
23.240        53
23.250        53
23.260        40
23.270        27
23.280        33
23.290        47
23.300        40
23.310        53
23.320        40
23.330        13
23.340        53
23.350        73
23.360        20
23.370        20
23.380        27
23.390        40
23.400        27
23.410        47
23.420        40
23.430        87
23.440        47
23.450        67
23.460        53
23.470        60
23.480        33
23.490        47
23.500        20
23.510        53
23.520        60
23.530        53
23.540        67
23.550        47
23.560        27
23.570        27
23.580        47
23.590        20
23.600        47
23.610        60
23.620        60
23.630        53
23.640        47
23.650        33
23.660        53
23.670        40
23.680        47
23.690        33
23.700        27
23.710        53
23.720        40
23.730        53
23.740        33
23.750        60
23.760        47
23.770        53
23.780        80
23.790        60
23.800        40
23.810        47
23.820        47
23.830        47
23.840        33
23.850        53
23.860        40
23.870        53
23.880        67
23.890        27
23.900        13
23.910        73
23.920        27
23.930        20
23.940        40
23.950        67
23.960        47
23.970        47
23.980        33
23.990        33
24.000        27
24.010        33
24.020        27
24.030         7
24.040        67
24.050        40
24.060        80
24.070        27
24.080        27
24.090        27
24.100        40
24.110        27
24.120        60
24.130        27
24.140        53
24.150        33
24.160        47
24.170        33
24.180        27
24.190        40
24.200        40
24.210        33
24.220        53
24.230        13
24.240        40
24.250        20
24.260        33
24.270        73
24.280        27
24.290        13
24.300        33
24.310        40
24.320        40
24.330        40
24.340        53
24.350        60
24.360        47
24.370        13
24.380        13
24.390        47
24.400        20
24.410        53
24.420        40
24.430        33
24.440        13
24.450        73
24.460        40
24.470        27
24.480        60
24.490        47
24.500        13
24.510        40
24.520        47
24.530        87
24.540        93
24.550        33
24.560        47
24.570        40
24.580        47
24.590        13
24.600        40
24.610        47
24.620        93
24.630        93
24.640        73
24.650        33
24.660        27
24.670        53
24.680        60
24.690        73
24.700        33
24.710        80
24.720        47
24.730        73
24.740        53
24.750        87
24.760        53
24.770        67
24.780        80
24.790        67
24.800        87
24.810        73
24.820        60
24.830        80
24.840       113
24.850       173
24.860        93
24.870       147
24.880        60
24.890       140
24.900       107
24.910       100
24.920        73
24.930        80
24.940        93
24.950        60
24.960        80
24.970        93
24.980        80
24.990        53
25.000        80
25.010        53
25.020        60
25.030        33
25.040        20
25.050        47
25.060        27
25.070        80
25.080        67
25.090        47
25.100        27
25.110        60
25.120        33
25.130        40
25.140        20
25.150        13
25.160        53
25.170        27
25.180        53
25.190        20
25.200        40
25.210        53
25.220        87
25.230        40
25.240        73
25.250        33
25.260        20
25.270        20
25.280        40
25.290        47
25.300        47
25.310        27
25.320        33
25.330        27
25.340        13
25.350        40
25.360        53
25.370        40
25.380        20
25.390        40
25.400        47
25.410        33
25.420        13
25.430        40
25.440        53
25.450        53
25.460        53
25.470        53
25.480         7
25.490        40
25.500        13
25.510        20
25.520        27
25.530        53
25.540        20
25.550        33
25.560        20
25.570        40
25.580        47
25.590        13
25.600        40
25.610        47
25.620        33
25.630        40
25.640        27
25.650        40
25.660        27
25.670        33
25.680        33
25.690        33
25.700        33
25.710        33
25.720        20
25.730        47
25.740         7
25.750        33
25.760        27
25.770        20
25.780        13
25.790        60
25.800        27
25.810        40
25.820        47
25.830        27
25.840        60
25.850        47
25.860        53
25.870        33
25.880        40
25.890        20
25.900        27
25.910        20
25.920        40
25.930        27
25.940        47
25.950        20
25.960         7
25.970        33
25.980        13
25.990        20
26.000        40
26.010        20
26.020        40
26.030        13
26.040        20
26.050        53
26.060        27
26.070        47
26.080        20
26.090        27
26.100        40
26.110        73
26.120         7
26.130        40
26.140        20
26.150        27
26.160        27
26.170        20
26.180        33
26.190        27
26.200        47
26.210        40
26.220        13
26.230        40
26.240        40
26.250        47
26.260        47
26.270        40
26.280        33
26.290        13
26.300        27
26.310        27
26.320        27
26.330        33
26.340        40
26.350        20
26.360        47
26.370        20
26.380        60
26.390        33
26.400        33
26.410        27
26.420        40
26.430        27
26.440        20
26.450        27
26.460        33
26.470        60
26.480        53
26.490        40
26.500        27
26.510        60
26.520        47
26.530        20
26.540        13
26.550        33
26.560        93
26.570        13
26.580        40
26.590        33
26.600         7
26.610        27
26.620        40
26.630        53
26.640        33
26.650        27
26.660        73
26.670        53
26.680        40
26.690        60
26.700        53
26.710        13
26.720        33
26.730        53
26.740        40
26.750        27
26.760        27
26.770        27
26.780        33
26.790        33
26.800        27
26.810        40
26.820        40
26.830        13
26.840        20
26.850        33
26.860        53
26.870        33
26.880        20
26.890        40
26.900        27
26.910        33
26.920         7
26.930        33
26.940        33
26.950        20
26.960        20
26.970        13
26.980        60
26.990         7
27.000        40
27.010        20
27.020        20
27.030        13
27.040        40
27.050        13
27.060        40
27.070        60
27.080        20
27.090        33
27.100        53
27.110        27
27.120        27
27.130        40
27.140        27
27.150        53
27.160        33
27.170         7
27.180        40
27.190        60
27.200        40
27.210        20
27.220        33
27.230        40
27.240        27
27.250         0
27.260        27
27.270        67
27.280        67
27.290        40
27.300        27
27.310        33
27.320        27
27.330        20
27.340        33
27.350        33
27.360        40
27.370        13
27.380        20
27.390        13
27.400        47
27.410        60
27.420        13
27.430        13
27.440        13
27.450        20
27.460        13
27.470        20
27.480        40
27.490        20
27.500         7
27.510        13
27.520        40
27.530        47
27.540        40
27.550        40
27.560        13
27.570        27
27.580        40
27.590        33
27.600        40
27.610        13
27.620        20
27.630        20
27.640        27
27.650        53
27.660        33
27.670         7
27.680        27
27.690        33
27.700        33
27.710        20
27.720        20
27.730        40
27.740        20
27.750        27
27.760        40
27.770        27
27.780        40
27.790        33
27.800        33
27.810        13
27.820        47
27.830        27
27.840        27
27.850        47
27.860        33
27.870        20
27.880        40
27.890        33
27.900        27
27.910        20
27.920        40
27.930        33
27.940        40
27.950        27
27.960        27
27.970        27
27.980        13
27.990        27
28.000        33
28.010        27
28.020        33
28.030        33
28.040        27
28.050        27
28.060        33
28.070        13
28.080        27
28.090        20
28.100        33
28.110        47
28.120        13
28.130        20
28.140        53
28.150        47
28.160        60
28.170        33
28.180        40
28.190        33
28.200        33
28.210        33
28.220        40
28.230        33
28.240        40
28.250        40
28.260        47
28.270        20
28.280        13
28.290        40
28.300        27
28.310         7
28.320        13
28.330        20
28.340        20
28.350        33
28.360        20
28.370        13
28.380        20
28.390        33
28.400        40
28.410        27
28.420        27
28.430        20
28.440        47
28.450        53
28.460        13
28.470        40
28.480        40
28.490        93
28.500        47
28.510         7
28.520        33
28.530        33
28.540        27
28.550        27
28.560        20
28.570        67
28.580        13
28.590        20
28.600        40
28.610        53
28.620        47
28.630        27
28.640        40
28.650        20
28.660        27
28.670        40
28.680        33
28.690        27
28.700        40
28.710        13
28.720        40
28.730        27
28.740        47
28.750        20
28.760        20
28.770        27
28.780        20
28.790        20
28.800        13
28.810        47
28.820        33
28.830        27
28.840        60
28.850        20
28.860        47
28.870        53
28.880        33
28.890        33
28.900        20
28.910        13
28.920        33
28.930         7
28.940        47
28.950         7
28.960        20
28.970        60
28.980        47
28.990        33
29.000        40
29.010        20
29.020         7
29.030        67
29.040        27
29.050         7
29.060        33
29.070        40
29.080        27
29.090        33
29.100        27
29.110        33
29.120        27
29.130        73
29.140        47
29.150        40
29.160        40
29.170        20
29.180        33
29.190        47
29.200        80
29.210        67
29.220        73
29.230        47
29.240        60
29.250        60
29.260        87
29.270       100
29.280        73
29.290       100
29.300       133
29.310        60
29.320       120
29.330        53
29.340       167
29.350       167
29.360       113
29.370       167
29.380       180
29.390       240
29.400       260
29.410       213
29.420       180
29.430       233
29.440       167
29.450       167
29.460       153
29.470       147
29.480       113
29.490       187
29.500       127
29.510        73
29.520       153
29.530        73
29.540        80
29.550        60
29.560        53
29.570        47
29.580        33
29.590        67
29.600        27
29.610        67
29.620        40
29.630        13
29.640        27
29.650        40
29.660        20
29.670        33
29.680        33
29.690        47
29.700        20
29.710        20
29.720        20
29.730        47
29.740        20
29.750        73
29.760        27
29.770        13
29.780        33
29.790        40
29.800        20
29.810        47
29.820        40
29.830        53
29.840        20
29.850        53
29.860        33
29.870        47
29.880        40
29.890        13
29.900        27
29.910         7
29.920        13
29.930        20
29.940        20
29.950        33
29.960        27
29.970        33
29.980        33
29.990        33
30.000        27
30.010        47
30.020        27
30.030        27
30.040        13
30.050        33
30.060        40
30.070        33
30.080        27
30.090        20
30.100        20
30.110        20
30.120        20
30.130        33
30.140        27
30.150         7
30.160        27
30.170        47
30.180        60
30.190        20
30.200        40
30.210        13
30.220        27
30.230        27
30.240        33
30.250        13
30.260        60
30.270        20
30.280        27
30.290        27
30.300        20
30.310        13
30.320        40
30.330        13
30.340         7
30.350        13
30.360        13
30.370        67
30.380        20
30.390        20
30.400        20
30.410        27
30.420        33
30.430        40
30.440        47
30.450        20
30.460        33
30.470        40
30.480         7
30.490        40
30.500        27
30.510        20
30.520        33
30.530        13
30.540        67
30.550        27
30.560        20
30.570        53
30.580        47
30.590        33
30.600        27
30.610        20
30.620        53
30.630        40
30.640        40
30.650        40
30.660        27
30.670        27
30.680        27
30.690        87
30.700        13
30.710        13
30.720        60
30.730        53
30.740        67
30.750        20
30.760        27
30.770        47
30.780        53
30.790        27
30.800        47
30.810        40
30.820         7
30.830        27
30.840         7
30.850        73
30.860        53
30.870        40
30.880        27
30.890         7
30.900        33
30.910        33
30.920        27
30.930         7
30.940        20
30.950        27
30.960        27
30.970        67
30.980        60
30.990        20
31.000        40
31.010        33
31.020        53
31.030        47
31.040        33
31.050        47
31.060        20
31.070        67
31.080        40
31.090        67
31.100        80
31.110        40
31.120        87
31.130       100
31.140       133
31.150       127
31.160       207
31.170       193
31.180       233
31.190       253
31.200       213
31.210       267
31.220       273
31.230       300
31.240       333
31.250       420
31.260       506
31.270       367
31.280       493
31.290       446
31.300       466
31.310       360
31.320       393
31.330       353
31.340       187
31.350       247
31.360       247
31.370       193
31.380       173
31.390       193
31.400       153
31.410       140
31.420       100
31.430        93
31.440        87
31.450        80
31.460        60
31.470        73
31.480        73
31.490        87
31.500        80
31.510        67
31.520        47
31.530        60
31.540        40
31.550        53
31.560        67
31.570        27
31.580        80
31.590        53
31.600        73
31.610        60
31.620        60
31.630        53
31.640        60
31.650        53
31.660        67
31.670        87
31.680        53
31.690        33
31.700        60
31.710        80
31.720        60
31.730        67
31.740        13
31.750        33
31.760        40
31.770        40
31.780        27
31.790        40
31.800        47
31.810        33
31.820        47
31.830        40
31.840        80
31.850        40
31.860        67
31.870        67
31.880        53
31.890        53
31.900        53
31.910        93
31.920        67
31.930        53
31.940        60
31.950        60
31.960        67
31.970        93
31.980        93
31.990        47
32.000       100
32.010       100
32.020        67
32.030        47
32.040        73
32.050        73
32.060       107
32.070        87
32.080       147
32.090       120
32.100       193
32.110       220
32.120       247
32.130       320
32.140       380
32.150       400
32.160       333
32.170       233
32.180       187
32.190       113
32.200       153
32.210        53
32.220        93
32.230        20
32.240       100
32.250        80
32.260        80
32.270        47
32.280        80
32.290       100
32.300        60
32.310        60
32.320        60
32.330        67
32.340        80
32.350        60
32.360        80
32.370        60
32.380       107
32.390        33
32.400        73
32.410        53
32.420        67
32.430        53
32.440        13
32.450        27
32.460        87
32.470        67
32.480        60
32.490        67
32.500        47
32.510        40
32.520        60
32.530        60
32.540        73
32.550        53
32.560        40
32.570        33
32.580        67
32.590        53
32.600        87
32.610        67
32.620        47
32.630        20
32.640        67
32.650        53
32.660        40
32.670        73
32.680        73
32.690        53
32.700        73
32.710        33
32.720        93
32.730        47
32.740        40
32.750        27
32.760       100
32.770        60
32.780        27
32.790        47
32.800        80
32.810        67
32.820        87
32.830        67
32.840        60
32.850        27
32.860        60
32.870        67
32.880        73
32.890        60
32.900        27
32.910        60
32.920        53
32.930        47
32.940        27
32.950        73
32.960        73
32.970        80
32.980        47
32.990        53
33.000        67
33.010        60
33.020        73
33.030        40
33.040        60
33.050        60
33.060        67
33.070        80
33.080        40
33.090        53
33.100        27
33.110        67
33.120        53
33.130        93
33.140        60
33.150        80
33.160        87
33.170        40
33.180        73
33.190        80
33.200        73
33.210        87
33.220        67
33.230        47
33.240        73
33.250        47
33.260        33
33.270        60
33.280        93
33.290        67
33.300        73
33.310        67
33.320        40
33.330        93
33.340        60
33.350        60
33.360        53
33.370        87
33.380        93
33.390        27
33.400        67
33.410        53
33.420        27
33.430        73
33.440        40
33.450        80
33.460        53
33.470        60
33.480        73
33.490        60
33.500        67
33.510        60
33.520        33
33.530        27
33.540        60
33.550        80
33.560        60
33.570        80
33.580        47
33.590        67
33.600        80
33.610        67
33.620        93
33.630        33
33.640        80
33.650        73
33.660        60
33.670        60
33.680        40
33.690        60
33.700        67
33.710        27
33.720        87
33.730        33
33.740        53
33.750        67
33.760        27
33.770        73
33.780        47
33.790        33
33.800        60
33.810        60
33.820        60
33.830        80
33.840        60
33.850        40
33.860        47
33.870        73
33.880        73
33.890        93
33.900        80
33.910        47
33.920        33
33.930        33
33.940        40
33.950        67
33.960        27
33.970        40
33.980        60
33.990        27
34.000        67
34.010        53
34.020        33
34.030        47
34.040        47
34.050        80
34.060        53
34.070        47
34.080        80
34.090        47
34.100       107
34.110        67
34.120        73
34.130        73
34.140        47
34.150        60
34.160        80
34.170       100
34.180       100
34.190        40
34.200        73
34.210        53
34.220        53
34.230       107
34.240        53
34.250        53
34.260        80
34.270       100
34.280       100
34.290        80
34.300       120
34.310        53
34.320        60
34.330       107
34.340       120
34.350        47
34.360        80
34.370        73
34.380        80
34.390       167
34.400       153
34.410       187
34.420       167
34.430       213
34.440       160
34.450       200
34.460       240
34.470       133
34.480       227
34.490       193
34.500       180
34.510       253
34.520       173
34.530       173
34.540       220
34.550       220
34.560       167
34.570       140
34.580       167
34.590       200
34.600       167
34.610       133
34.620       200
34.630       207
34.640       207
34.650       207
34.660       147
34.670       127
34.680       193
34.690       213
34.700       207
34.710       187
34.720       233
34.730       127
34.740       227
34.750       240
34.760       147
34.770       213
34.780       133
34.790       187
34.800       120
34.810       207
34.820       147
34.830       167
34.840       233
34.850       233
34.860       180
34.870       207
34.880       207
34.890       213
34.900       180
34.910       140
34.920       200
34.930       173
34.940       213
34.950       180
34.960       193
34.970       213
34.980       173
34.990       180
35.000       280
35.010       187
35.020       320
35.030       253
35.040       187
35.050       167
35.060       187
35.070       213
35.080       260
35.090       180
35.100       233
35.110       200
35.120       227
35.130       167
35.140       233
35.150       267
35.160       167
35.170       207
35.180       260
35.190       267
35.200       253
35.210       167
35.220       267
35.230       220
35.240       240
35.250       320
35.260       233
35.270       333
35.280       267
35.290       267
35.300       313
35.310       280
35.320       347
35.330       500
35.340       500
35.350       573
35.360       706
35.370       673
35.380       760
35.390       926
35.400      1180
35.410      1393
35.420      1366
35.430      1719
35.440      2166
35.450      2506
35.460      2792
35.470      2779
35.480      3172
35.490      3185
35.500      3405
35.510      3652
35.520      4138
35.530      4085
35.540      4105
35.550      4591
35.560      4625
35.570      5045
35.580      6064
35.590      8503
35.600     13295
35.610     20452
35.620     30974
35.630     41423
35.640     49800
35.650     57697
35.660     61156
35.670     57457
35.680     49527
35.690     39597
35.700     30255
35.710     24603
35.720     25770
35.730     28589
35.740     30035
35.750     31174
35.760     31481
35.770     26123
35.780     19266
35.790     12748
35.800      7430
35.810      3945
35.820      2759
35.830      1719
35.840      1599
35.850      1166
35.860      1006
35.870       926
35.880       826
35.890       793
35.900       666
35.910       720
35.920       513
35.930       586
35.940       473
35.950       533
35.960       433
35.970       540
35.980       466
35.990       473
36.000       440
36.010       413
36.020       373
36.030       353
36.040       300
36.050       320
36.060       407
36.070       373
36.080       313
36.090       347
36.100       280
36.110       267
36.120       280
36.130       273
36.140       307
36.150       253
36.160       327
36.170       293
36.180       213
36.190       267
36.200       227
36.210       313
36.220       227
36.230       280
36.240       300
36.250       213
36.260       253
36.270       267
36.280       280
36.290       200
36.300       140
36.310       193
36.320       200
36.330       173
36.340       220
36.350       280
36.360       160
36.370       233
36.380       160
36.390       193
36.400       220
36.410       253
36.420       193
36.430       227
36.440       280
36.450       213
36.460       220
36.470       140
36.480       200
36.490       187
36.500       213
36.510       213
36.520       140
36.530       187
36.540       180
36.550       213
36.560       220
36.570       187
36.580       167
36.590       247
36.600       180
36.610       173
36.620       207
36.630       207
36.640       160
36.650       180
36.660       207
36.670       133
36.680       127
36.690       167
36.700       173
36.710       187
36.720       107
36.730       153
36.740       127
36.750       167
36.760       207
36.770       167
36.780       107
36.790       220
36.800       140
36.810       213
36.820       193
36.830        87
36.840       173
36.850       120
36.860       180
36.870       113
36.880       100
36.890       180
36.900       187
36.910       140
36.920       167
36.930       160
36.940       147
36.950       167
36.960       127
36.970       127
36.980       127
36.990       160
37.000       153
37.010       120
37.020       187
37.030       140
37.040       260
37.050       153
37.060       173
37.070       120
37.080       147
37.090        93
37.100       167
37.110       153
37.120       167
37.130       173
37.140       147
37.150       193
37.160       160
37.170       173
37.180       133
37.190       207
37.200       133
37.210       147
37.220       160
37.230       113
37.240       147
37.250       127
37.260       113
37.270       153
37.280       173
37.290       113
37.300       127
37.310       153
37.320       127
37.330       100
37.340       160
37.350       113
37.360       120
37.370       160
37.380       153
37.390       147
37.400        93
37.410       160
37.420       160
37.430       187
37.440       193
37.450       127
37.460       107
37.470       173
37.480       113
37.490       160
37.500       120
37.510       113
37.520       193
37.530       100
37.540       167
37.550        80
37.560       193
37.570       113
37.580       160
37.590       167
37.600       147
37.610       133
37.620       167
37.630       140
37.640       120
37.650       187
37.660       180
37.670       147
37.680       167
37.690        80
37.700       147
37.710       113
37.720       193
37.730       120
37.740       207
37.750       180
37.760       127
37.770       153
37.780       120
37.790       160
37.800        93
37.810       127
37.820        93
37.830       107
37.840       120
37.850       173
37.860       100
37.870       120
37.880       120
37.890       140
37.900       127
37.910       140
37.920        80
37.930       153
37.940       113
37.950       107
37.960        80
37.970       107
37.980       127
37.990       127
38.000       133
38.010       120
38.020       140
38.030       167
38.040       140
38.050        87
38.060       147
38.070        80
38.080       147
38.090       100
38.100       180
38.110       140
38.120       107
38.130       213
38.140        87
38.150       160
38.160       100
38.170       113
38.180       133
38.190       140
38.200       127
38.210       120
38.220       107
38.230       100
38.240       147
38.250       127
38.260       120
38.270       100
38.280       173
38.290       113
38.300       153
38.310        93
38.320       113
38.330       120
38.340       120
38.350       160
38.360       147
38.370       147
38.380       167
38.390       127
38.400       133
38.410       160
38.420       160
38.430       147
38.440       140
38.450       193
38.460       180
38.470       187
38.480       180
38.490       193
38.500       227
38.510       233
38.520       287
38.530       247
38.540       267
38.550       287
38.560       180
38.570       167
38.580       267
38.590       213
38.600       207
38.610       287
38.620       280
38.630       173
38.640       187
38.650       160
38.660       193
38.670       193
38.680       213
38.690       160
38.700       167
38.710       253
38.720       147
38.730       180
38.740       227
38.750       193
38.760       147
38.770       127
38.780       160
38.790       153
38.800       133
38.810       120
38.820       147
38.830       107
38.840       107
38.850       167
38.860       140
38.870       167
38.880       140
38.890       107
38.900        53
38.910       100
38.920       120
38.930       100
38.940       133
38.950       113
38.960       113
38.970       113
38.980       140
38.990       127
39.000       120
39.010       113
39.020       120
39.030       153
39.040       167
39.050        87
39.060       140
39.070       153
39.080        93
39.090       120
39.100       167
39.110       187
39.120       153
39.130       127
39.140       100
39.150       100
39.160       100
39.170       100
39.180        87
39.190       120
39.200        80
39.210       153
39.220       160
39.230       187
39.240       147
39.250       120
39.260       133
39.270       113
39.280       140
39.290       107
39.300       113
39.310       140
39.320       133
39.330       160
39.340       127
39.350       100
39.360       140
39.370       207
39.380       100
39.390       127
39.400       147
39.410       147
39.420       180
39.430       187
39.440       120
39.450       200
39.460       187
39.470       147
39.480       147
39.490       167
39.500       147
39.510       140
39.520        93
39.530       160
39.540       147
39.550        80
39.560        73
39.570       160
39.580        80
39.590        80
39.600       127
39.610       147
39.620       107
39.630       127
39.640       113
39.650        87
39.660       120
39.670       147
39.680       153
39.690       113
39.700       107
39.710        87
39.720       113
39.730       107
39.740       100
39.750       100
39.760       100
39.770        67
39.780       120
39.790       113
39.800        73
39.810       127
39.820       120
39.830        80
39.840        73
39.850       107
39.860       133
39.870       147
39.880        73
39.890       127
39.900        73
39.910       100
39.920       100
39.930       107
39.940        93
39.950        80
39.960       107
39.970        73
39.980       140
39.990        80
40.000        87
40.010       153
40.020       127
40.030       120
40.040       133
40.050        67
40.060       107
40.070        73
40.080        67
40.090       140
40.100        93
40.110       100
40.120       147
40.130        60
40.140        80
40.150       133
40.160        80
40.170       140
40.180        93
40.190        80
40.200       107
40.210        67
40.220        87
40.230       120
40.240        67
40.250       107
40.260       133
40.270       127
40.280       107
40.290       113
40.300       127
40.310        73
40.320        80
40.330        93
40.340       120
40.350       127
40.360        73
40.370       100
40.380       113
40.390       100
40.400       100
40.410        67
40.420        80
40.430        60
40.440        93
40.450       100
40.460       120
40.470       107
40.480        67
40.490       113
40.500        93
40.510        73
40.520       107
40.530        87
40.540       120
40.550       120
40.560       100
40.570       120
40.580       100
40.590       113
40.600        80
40.610       127
40.620       113
40.630       140
40.640       127
40.650        93
40.660       100
40.670       113
40.680        93
40.690       127
40.700       133
40.710        80
40.720        87
40.730        87
40.740       120
40.750        87
40.760        93
40.770       147
40.780        93
40.790        80
40.800       113
40.810        73
40.820        47
40.830       120
40.840       127
40.850        87
40.860        93
40.870       140
40.880        93
40.890        87
40.900       153
40.910       100
40.920        93
40.930        80
40.940        73
40.950       113
40.960       100
40.970        80
40.980       113
40.990        87
41.000        60
41.010        53
41.020        87
41.030        73
41.040        93
41.050       107
41.060        93
41.070        67
41.080        40
41.090       140
41.100        87
41.110        73
41.120        47
41.130       100
41.140       113
41.150       107
41.160        80
41.170        67
41.180        80
41.190       113
41.200        93
41.210       100
41.220       127
41.230       127
41.240        87
41.250        80
41.260       140
41.270       100
41.280        93
41.290        93
41.300        87
41.310        67
41.320        87
41.330        87
41.340       107
41.350        60
41.360       100
41.370       113
41.380        80
41.390       120
41.400        73
41.410       100
41.420       113
41.430       113
41.440        67
41.450        87
41.460       100
41.470       100
41.480        80
41.490        80
41.500        73
41.510        67
41.520        60
41.530        73
41.540       147
41.550       107
41.560        60
41.570       107
41.580       120
41.590       113
41.600        73
41.610        80
41.620        80
41.630       113
41.640        73
41.650        40
41.660        87
41.670       133
41.680        67
41.690       127
41.700       100
41.710       127
41.720        67
41.730        73
41.740        73
41.750        93
41.760       113
41.770       133
41.780        80
41.790       107
41.800       100
41.810        80
41.820        80
41.830       120
41.840       147
41.850       147
41.860       147
41.870       147
41.880       153
41.890       107
41.900        87
41.910        87
41.920       107
41.930        80
41.940       107
41.950        80
41.960        67
41.970       107
41.980       100
41.990       107
42.000        53
42.010        80
42.020       107
42.030        67
42.040        93
42.050       107
42.060        73
42.070        33
42.080        73
42.090       107
42.100       100
42.110       113
42.120        93
42.130        87
42.140        80
42.150        73
42.160       100
42.170        73
42.180       107
42.190        60
42.200        87
42.210        93
42.220        67
42.230        60
42.240         7
42.250        80
42.260        60
42.270       107
42.280        87
42.290       100
42.300        73
42.310        87
42.320        67
42.330        80
42.340        87
42.350        67
42.360       100
42.370       113
42.380       113
42.390        87
42.400        60
42.410        93
42.420        33
42.430        33
42.440       133
42.450       107
42.460        67
42.470        80
42.480       100
42.490        53
42.500        60
42.510        60
42.520        67
42.530        80
42.540        40
42.550        80
42.560        40
42.570       113
42.580        47
42.590       113
42.600       133
42.610        87
42.620       100
42.630        67
42.640        87
42.650        73
42.660        80
42.670        87
42.680        73
42.690        67
42.700        53
42.710        60
42.720       127
42.730        53
42.740        80
42.750        53
42.760        40
42.770        40
42.780       113
42.790        80
42.800       107
42.810        80
42.820       107
42.830        53
42.840       107
42.850        87
42.860        87
42.870       127
42.880        67
42.890        53
42.900        67
42.910        40
42.920        53
42.930       100
42.940        67
42.950        40
42.960        60
42.970        87
42.980       120
42.990        93
43.000        67
43.010        93
43.020       113
43.030       100
43.040       120
43.050       127
43.060       100
43.070       140
43.080        87
43.090        60
43.100        73
43.110        73
43.120        87
43.130       113
43.140       107
43.150        67
43.160        60
43.170       127
43.180        47
43.190       133
43.200       120
43.210        93
43.220        73
43.230        67
43.240        73
43.250       113
43.260        87
43.270       147
43.280        53
43.290        80
43.300        67
43.310        93
43.320       120
43.330        40
43.340        87
43.350       113
43.360        47
43.370        67
43.380        87
43.390        40
43.400        93
43.410       100
43.420        87
43.430        93
43.440        73
43.450        73
43.460        87
43.470        93
43.480        67
43.490        67
43.500        53
43.510        53
43.520        80
43.530        87
43.540        40
43.550        93
43.560        60
43.570        93
43.580        53
43.590        67
43.600        60
43.610        87
43.620        53
43.630        60
43.640        67
43.650        60
43.660        73
43.670        67
43.680        60
43.690        87
43.700        93
43.710        53
43.720        47
43.730        67
43.740        73
43.750        67
43.760        73
43.770       100
43.780        80
43.790        73
43.800        60
43.810       100
43.820        87
43.830        87
43.840        53
43.850        33
43.860        53
43.870        93
43.880        33
43.890        53
43.900        40
43.910        67
43.920        87
43.930        47
43.940        67
43.950        67
43.960        67
43.970        93
43.980        60
43.990       100
44.000        40
44.010        73
44.020        53
44.030        60
44.040        60
44.050        60
44.060        40
44.070        53
44.080        47
44.090        60
44.100        93
44.110        53
44.120        40
44.130       100
44.140        93
44.150        40
44.160        60
44.170        67
44.180        67
44.190        67
44.200        80
44.210        60
44.220        33
44.230        73
44.240        93
44.250        47
44.260        60
44.270        67
44.280        53
44.290       100
44.300        53
44.310        47
44.320        67
44.330        53
44.340       100
44.350        73
44.360        80
44.370        40
44.380       100
44.390        67
44.400        60
44.410        60
44.420        93
44.430       100
44.440        87
44.450        60
44.460        87
44.470       100
44.480        60
44.490       100
44.500        47
44.510        53
44.520        80
44.530        73
44.540        87
44.550        67
44.560        53
44.570        60
44.580        87
44.590        80
44.600        93
44.610        33
44.620        67
44.630        33
44.640       107
44.650        20
44.660        73
44.670        60
44.680        87
44.690        80
44.700       107
44.710       113
44.720        80
44.730        40
44.740        53
44.750        73
44.760       100
44.770        27
44.780        80
44.790        53
44.800        67
44.810        67
44.820        73
44.830        73
44.840        73
44.850        73
44.860        60
44.870        73
44.880        80
44.890        93
44.900        80
44.910        47
44.920        47
44.930        93
44.940        87
44.950        47
44.960       100
44.970        73
44.980        67
44.990        60
45.000        47
45.010        80
45.020        87
45.030        60
45.040        87
45.050        67
45.060        60
45.070       100
45.080        47
45.090        47
45.100        20
45.110        67
45.120       113
45.130        40
45.140        67
45.150        20
45.160        87
45.170        73
45.180        60
45.190        47
45.200        60
45.210        40
45.220        80
45.230        27
45.240        73
45.250        53
45.260        53
45.270        33
45.280        60
45.290        73
45.300        80
45.310        73
45.320        53
45.330        73
45.340        47
45.350        73
45.360        73
45.370        40
45.380        20
45.390        73
45.400        67
45.410        73
45.420        40
45.430        67
45.440        33
45.450        53
45.460        87
45.470        60
45.480        53
45.490        40
45.500        53
45.510        53
45.520        87
45.530        60
45.540        93
45.550        40
45.560        67
45.570        67
45.580        40
45.590        40
45.600        67
45.610        73
45.620        47
45.630        40
45.640        60
45.650        47
45.660        40
45.670        40
45.680        33
45.690        40
45.700        60
45.710        60
45.720        40
45.730        47
45.740        67
45.750        40
45.760        53
45.770        60
45.780        33
45.790        53
45.800        40
45.810        33
45.820        53
45.830        20
45.840        33
45.850        87
45.860        80
45.870        40
45.880        87
45.890        67
45.900        47
45.910        60
45.920        53
45.930        93
45.940        33
45.950        73
45.960        80
45.970        53
45.980        47
45.990        80
46.000       120
46.010        53
46.020        33
46.030        73
46.040        67
46.050        60
46.060        40
46.070        60
46.080        87
46.090        93
46.100        47
46.110        87
46.120        40
46.130        40
46.140        47
46.150        53
46.160        33
46.170        60
46.180        33
46.190        27
46.200        67
46.210        47
46.220        53
46.230         7
46.240        67
46.250        33
46.260        33
46.270        73
46.280        47
46.290        47
46.300        40
46.310       113
46.320        53
46.330        67
46.340        53
46.350        67
46.360        40
46.370        67
46.380        47
46.390        47
46.400        47
46.410        60
46.420        93
46.430        33
46.440        60
46.450        73
46.460        33
46.470        67
46.480        67
46.490        67
46.500        40
46.510        13
46.520        33
46.530        40
46.540        67
46.550        40
46.560        40
46.570        93
46.580        47
46.590        67
46.600        73
46.610        33
46.620        47
46.630        20
46.640        73
46.650        27
46.660        67
46.670        47
46.680        60
46.690        47
46.700        87
46.710        47
46.720        80
46.730        80
46.740        40
46.750        60
46.760        80
46.770        53
46.780        53
46.790        67
46.800        67
46.810        67
46.820        40
46.830        60
46.840        40
46.850        53
46.860        40
46.870        47
46.880        47
46.890        87
46.900        13
46.910        67
46.920        53
46.930        80
46.940        60
46.950        40
46.960        33
46.970         7
46.980        40
46.990        40
47.000       107
47.010        40
47.020        73
47.030        60
47.040        73
47.050        47
47.060        47
47.070        47
47.080        53
47.090        60
47.100       107
47.110        47
47.120        67
47.130        93
47.140        27
47.150        73
47.160        87
47.170        80
47.180        47
47.190        33
47.200        53
47.210        60
47.220       100
47.230        67
47.240        73
47.250        40
47.260        47
47.270        47
47.280        73
47.290        47
47.300        80
47.310        73
47.320        60
47.330        60
47.340        67
47.350        67
47.360        40
47.370        73
47.380       100
47.390        47
47.400        80
47.410        73
47.420       113
47.430        93
47.440        53
47.450        87
47.460        80
47.470       107
47.480        60
47.490        67
47.500        80
47.510       113
47.520       100
47.530        60
47.540        80
47.550       107
47.560       133
47.570        80
47.580        80
47.590        87
47.600        67
47.610       100
47.620        67
47.630       107
47.640        47
47.650        80
47.660        53
47.670        73
47.680        93
47.690        67
47.700        80
47.710        60
47.720        20
47.730        40
47.740        67
47.750        40
47.760        53
47.770        33
47.780        80
47.790        67
47.800        27
47.810        33
47.820        67
47.830        40
47.840        33
47.850        73
47.860        73
47.870        73
47.880        13
47.890        47
47.900        60
47.910        60
47.920        47
47.930        13
47.940        60
47.950        40
47.960        53
47.970        67
47.980        67
47.990        87
48.000        47
48.010        40
48.020        67
48.030        67
48.040        47
48.050        33
48.060        33
48.070        73
48.080        73
48.090        53
48.100        47
48.110        80
48.120        67
48.130        67
48.140       100
48.150        87
48.160        53
48.170       107
48.180        53
48.190       133
48.200        80
48.210        60
48.220        40
48.230        80
48.240        67
48.250        27
48.260        60
48.270        40
48.280        67
48.290        47
48.300        67
48.310        67
48.320        87
48.330        67
48.340       133
48.350        60
48.360        67
48.370       100
48.380        73
48.390        80
48.400        80
48.410        73
48.420        80
48.430       113
48.440        93
48.450        87
48.460       107
48.470       100
48.480        73
48.490       100
48.500        67
48.510        73
48.520        47
48.530        93
48.540        93
48.550       127
48.560       100
48.570        67
48.580       107
48.590       133
48.600        67
48.610        87
48.620        53
48.630        60
48.640       120
48.650        87
48.660        40
48.670        80
48.680        80
48.690        53
48.700        47
48.710        67
48.720        60
48.730        47
48.740        53
48.750        33
48.760        73
48.770        27
48.780        60
48.790        27
48.800        80
48.810        53
48.820        87
48.830        27
48.840        60
48.850        40
48.860        40
48.870        33
48.880        33
48.890        80
48.900        73
48.910        87
48.920        20
48.930        47
48.940        47
48.950        27
48.960        67
48.970        27
48.980        60
48.990        47
49.000        60
49.010        33
49.020        40
49.030        40
49.040        53
49.050        47
49.060        40
49.070        33
49.080        33
49.090        47
49.100        20
49.110         7
49.120        27
49.130        33
49.140        67
49.150        53
49.160        53
49.170        60
49.180        27
49.190        47
49.200        67
49.210        87
49.220        40
49.230        60
49.240        67
49.250        53
49.260        47
49.270        60
49.280        20
49.290        33
49.300        33
49.310        13
49.320        40
49.330        40
49.340        73
49.350        27
49.360        13
49.370        33
49.380        47
49.390        60
49.400       100
49.410        40
49.420        40
49.430        73
49.440        60
49.450        20
49.460        33
49.470        33
49.480        73
49.490        47
49.500        67
49.510        27
49.520        47
49.530        60
49.540        47
49.550        80
49.560        53
49.570        40
49.580        33
49.590        47
49.600        33
49.610        60
49.620        40
49.630        27
49.640        33
49.650        47
49.660        33
49.670        40
49.680        13
49.690        47
49.700        53
49.710        53
49.720        27
49.730        33
49.740        20
49.750        40
49.760        80
49.770        47
49.780        47
49.790        73
49.800        40
49.810        60
49.820        87
49.830        40
49.840        53
49.850        73
49.860        33
49.870        73
49.880        53
49.890        40
49.900        40
49.910        60
49.920        33
49.930        27
49.940        73
49.950        40
49.960        47
49.970        53
49.980        53
49.990        53
50.000        40
50.010        27
50.020        60
50.030        33
50.040        27
50.050        60
50.060        20
50.070        27
50.080        73
50.090        60
50.100        47
50.110        73
50.120        73
50.130        53
50.140        33
50.150        33
50.160        47
50.170        47
50.180        33
50.190        53
50.200        47
50.210        33
50.220        60
50.230        27
50.240        67
50.250        27
50.260        60
50.270        60
50.280        47
50.290        53
50.300        13
50.310        33
50.320        73
50.330        53
50.340        53
50.350        47
50.360        40
50.370        40
50.380        33
50.390        47
50.400        27
50.410        33
50.420        53
50.430        60
50.440         7
50.450        47
50.460        53
50.470        60
50.480        33
50.490        60
50.500        27
50.510        40
50.520        27
50.530        60
50.540        27
50.550        40
50.560        40
50.570        40
50.580        40
50.590        40
50.600        20
50.610        27
50.620        53
50.630        60
50.640        40
50.650        73
50.660        47
50.670        33
50.680        60
50.690        47
50.700        47
50.710        60
50.720        67
50.730        73
50.740        73
50.750        40
50.760        67
50.770        53
50.780        60
50.790        73
50.800        33
50.810        47
50.820        47
50.830        47
50.840        20
50.850        53
50.860        60
50.870        40
50.880        33
50.890        27
50.900        47
50.910        27
50.920        27
50.930        73
50.940        80
50.950        20
50.960        53
50.970        20
50.980        40
50.990        40
51.000        33
51.010        60
51.020        27
51.030        67
51.040        60
51.050        40
51.060        40
51.070        27
51.080        27
51.090        53
51.100        40
51.110        53
51.120        27
51.130        33
51.140        67
51.150        53
51.160        27
51.170        33
51.180        53
51.190        40
51.200        73
51.210        33
51.220        67
51.230        40
51.240        67
51.250        27
51.260        67
51.270        47
51.280        40
51.290        33
51.300        33
51.310        53
51.320        53
51.330        60
51.340        87
51.350        33
51.360        27
51.370        27
51.380        47
51.390        33
51.400        20
51.410        20
51.420        53
51.430        67
51.440        20
51.450        27
51.460        73
51.470        33
51.480        33
51.490        47
51.500        20
51.510        40
51.520        33
51.530        47
51.540        60
51.550        47
51.560        53
51.570        47
51.580        67
51.590        27
51.600        33
51.610        60
51.620        60
51.630         7
51.640        53
51.650        33
51.660        53
51.670        33
51.680        40
51.690        53
51.700        33
51.710        27
51.720        27
51.730        33
51.740        40
51.750        40
51.760        20
51.770        20
51.780        67
51.790        27
51.800        40
51.810        60
51.820        20
51.830        20
51.840        60
51.850        60
51.860        40
51.870        47
51.880        47
51.890        87
51.900         7
51.910        33
51.920        47
51.930        47
51.940        60
51.950        40
51.960        47
51.970         0
51.980        40
51.990        20
52.000        20
52.010         7
52.020        33
52.030        60
52.040        27
52.050        47
52.060        40
52.070        20
52.080        27
52.090        20
52.100        53
52.110        47
52.120        27
52.130        53
52.140        60
52.150        40
52.160        20
52.170        47
52.180        60
52.190        20
52.200        47
52.210        27
52.220        33
52.230        20
52.240        20
52.250        53
52.260        27
52.270        80
52.280        47
52.290        27
52.300        20
52.310        53
52.320        40
52.330        33
52.340        60
52.350        47
52.360        60
52.370        27
52.380        20
52.390        53
52.400        60
52.410        60
52.420         7
52.430        13
52.440        53
52.450        33
52.460        47
52.470        53
52.480        40
52.490        40
52.500        60
52.510        40
52.520        27
52.530        33
52.540        60
52.550        53
52.560        40
52.570        40
52.580        53
52.590        33
52.600        33
52.610        47
52.620        47
52.630        40
52.640        13
52.650        40
52.660        33
52.670        53
52.680        40
52.690        40
52.700        40
52.710        67
52.720        27
52.730        40
52.740         7
52.750        53
52.760        27
52.770        60
52.780        47
52.790        47
52.800        60
52.810        47
52.820        40
52.830        20
52.840        80
52.850        27
52.860        40
52.870        20
52.880        60
52.890        40
52.900        67
52.910        20
52.920        20
52.930        20
52.940        40
52.950        27
52.960        27
52.970        47
52.980        53
52.990        13
53.000        13
53.010        40
53.020        73
53.030        53
53.040        67
53.050        73
53.060        33
53.070        20
53.080         7
53.090        33
53.100        13
53.110        40
53.120        53
53.130        53
53.140        27
53.150        60
53.160        93
53.170        40
53.180        33
53.190        47
53.200        40
53.210        13
53.220        47
53.230        20
53.240        20
53.250        27
53.260        27
53.270        40
53.280        27
53.290        80
53.300        27
53.310        13
53.320        27
53.330        27
53.340        20
53.350        40
53.360        47
53.370        60
53.380        40
53.390        53
53.400        33
53.410        60
53.420         7
53.430        60
53.440        40
53.450        73
53.460        47
53.470        33
53.480        40
53.490        47
53.500        33
53.510        40
53.520        80
53.530        20
53.540        47
53.550        53
53.560        47
53.570        47
53.580        47
53.590        60
53.600        33
53.610        53
53.620        53
53.630        27
53.640        67
53.650        53
53.660        53
53.670        60
53.680        67
53.690        13
53.700        53
53.710         7
53.720        47
53.730        33
53.740        20
53.750        73
53.760        53
53.770        33
53.780        60
53.790        40
53.800        47
53.810        33
53.820        40
53.830        33
53.840        33
53.850        40
53.860        13
53.870        33
53.880        47
53.890        53
53.900        13
53.910        20
53.920        33
53.930        33
53.940        47
53.950        40
53.960        47
53.970        33
53.980        73
53.990        13
54.000        33
54.010        40
54.020        47
54.030        27
54.040        60
54.050        27
54.060        20
54.070        60
54.080        40
54.090        33
54.100        47
54.110        47
54.120        27
54.130        53
54.140        33
54.150        27
54.160        27
54.170        53
54.180        53
54.190        40
54.200        53
54.210        33
54.220        73
54.230        73
54.240        60
54.250        53
54.260        67
54.270        33
54.280        80
54.290        20
54.300         7
54.310        27
54.320        53
54.330        40
54.340        47
54.350        33
54.360        27
54.370        53
54.380        53
54.390        27
54.400        33
54.410        53
54.420        33
54.430        60
54.440        47
54.450        60
54.460        53
54.470        53
54.480        53
54.490        53
54.500        33
54.510        47
54.520        47
54.530        33
54.540        67
54.550        73
54.560        67
54.570        20
54.580        40
54.590        20
54.600        13
54.610        47
54.620        93
54.630        60
54.640        33
54.650        60
54.660        40
54.670        27
54.680        73
54.690        20
54.700        40
54.710        27
54.720        73
54.730        67
54.740        27
54.750        80
54.760        60
54.770        67
54.780        33
54.790        87
54.800        47
54.810        27
54.820        40
54.830        47
54.840        47
54.850        27
54.860        27
54.870        60
54.880        67
54.890        67
54.900        53
54.910        47
54.920        40
54.930        33
54.940        80
54.950        53
54.960        73
54.970        40
54.980        40
54.990        27
55.000        67
55.010        93
55.020        47
55.030        40
55.040        73
55.050        33
55.060        87
55.070        60
55.080        73
55.090        47
55.100        47
55.110        60
55.120        40
55.130        40
55.140        47
55.150        60
55.160        33
55.170        47
55.180        53
55.190        53
55.200        87
55.210        47
55.220        80
55.230        53
55.240        53
55.250        60
55.260        60
55.270        87
55.280        33
55.290        60
55.300        60
55.310        53
55.320        80
55.330        60
55.340        27
55.350        53
55.360        73
55.370        60
55.380        53
55.390        67
55.400        60
55.410        53
55.420        73
55.430        80
55.440       113
55.450        80
55.460        93
55.470       120
55.480        87
55.490       107
55.500        67
55.510       120
55.520       113
55.530       147
55.540       200
55.550       187
55.560       200
55.570       173
55.580       180
55.590       173
55.600       213
55.610       193
55.620       253
55.630       233
55.640       280
55.650       300
55.660       360
55.670       287
55.680       293
55.690       293
55.700       213
55.710       240
55.720       320
55.730       240
55.740       267
55.750       253
55.760       233
55.770       267
55.780       213
55.790       220
55.800       167
55.810       173
55.820       167
55.830       167
55.840       207
55.850       153
55.860       100
55.870       187
55.880       187
55.890       140
55.900       120
55.910       113
55.920       133
55.930        80
55.940        87
55.950        73
55.960        27
55.970        80
55.980        60
55.990        73
56.000        40
56.010        40
56.020        33
56.030        40
56.040        40
56.050        33
56.060        60
56.070        47
56.080        27
56.090        47
56.100        20
56.110        33
56.120        33
56.130        40
56.140        60
56.150        80
56.160        47
56.170        47
56.180        33
56.190        33
56.200        13
56.210        40
56.220        47
56.230        40
56.240        33
56.250        27
56.260        67
56.270        53
56.280        33
56.290        53
56.300        53
56.310        60
56.320        60
56.330        53
56.340        27
56.350        53
56.360        33
56.370        33
56.380        33
56.390        47
56.400        47
56.410        53
56.420        33
56.430        87
56.440        27
56.450        73
56.460        47
56.470        13
56.480        40
56.490        33
56.500        40
56.510        53
56.520        47
56.530       100
56.540        47
56.550        47
56.560        67
56.570        40
56.580        27
56.590        47
56.600        40
56.610        27
56.620        33
56.630        27
56.640        33
56.650        53
56.660        80
56.670        27
56.680        40
56.690        33
56.700        73
56.710       113
56.720        40
56.730        27
56.740        33
56.750        53
56.760        53
56.770        73
56.780        80
56.790        13
56.800        60
56.810        60
56.820        60
56.830        73
56.840        60
56.850        20
56.860         7
56.870        53
56.880        67
56.890        27
56.900        60
56.910        33
56.920        67
56.930        40
56.940        20
56.950        33
56.960        47
56.970        47
56.980        47
56.990        53
57.000        80
57.010        20
57.020        27
57.030        33
57.040        40
57.050        27
57.060        33
57.070        53
57.080        53
57.090        20
57.100        33
57.110        60
57.120        40
57.130        53
57.140        67
57.150        47
57.160        40
57.170        20
57.180        40
57.190        40
57.200        40
57.210        67
57.220        33
57.230        73
57.240        47
57.250        60
57.260        47
57.270        80
57.280        20
57.290        60
57.300        67
57.310        20
57.320        60
57.330        53
57.340        47
57.350        47
57.360        73
57.370        73
57.380        47
57.390        20
57.400        60
57.410        33
57.420        73
57.430        53
57.440        67
57.450        47
57.460        60
57.470        60
57.480        60
57.490        60
57.500        73
57.510        60
57.520        27
57.530        33
57.540        47
57.550        73
57.560        53
57.570        87
57.580        67
57.590        67
57.600        67
57.610        27
57.620       100
57.630        67
57.640        33
57.650        27
57.660        40
57.670        60
57.680        80
57.690        47
57.700        47
57.710        40
57.720        40
57.730        20
57.740        60
57.750        13
57.760        40
57.770        67
57.780        40
57.790        73
57.800        60
57.810        47
57.820        33
57.830        20
57.840        67
57.850        53
57.860        73
57.870        27
57.880        27
57.890        33
57.900        33
57.910        40
57.920        33
57.930        33
57.940        27
57.950        40
57.960        40
57.970        80
57.980        40
57.990        33
58.000        80
58.010        47
58.020        53
58.030        60
58.040        73
58.050        47
58.060        53
58.070        47
58.080        53
58.090        20
58.100        60
58.110        53
58.120        60
58.130        40
58.140        27
58.150        40
58.160        47
58.170        13
58.180        40
58.190        33
58.200        33
58.210        33
58.220        33
58.230        13
58.240        20
58.250        33
58.260        47
58.270        20
58.280        47
58.290        33
58.300        27
58.310        20
58.320        40
58.330        73
58.340        40
58.350        67
58.360        53
58.370        33
58.380        60
58.390        47
58.400        33
58.410        13
58.420        40
58.430        47
58.440        53
58.450        40
58.460        47
58.470        40
58.480        40
58.490        40
58.500         7
58.510        27
58.520        27
58.530        40
58.540        20
58.550        40
58.560        60
58.570        93
58.580        73
58.590        67
58.600        60
58.610        33
58.620        60
58.630        33
58.640        13
58.650        47
58.660        20
58.670        60
58.680        53
58.690        33
58.700        40
58.710        60
58.720        40
58.730        40
58.740        47
58.750        33
58.760        20
58.770        20
58.780        33
58.790        47
58.800        40
58.810        33
58.820        27
58.830        13
58.840        47
58.850        20
58.860        53
58.870        33
58.880        60
58.890        33
58.900        33
58.910        13
58.920        27
58.930        27
58.940        33
58.950        40
58.960         7
58.970        47
58.980        13
58.990        13
59.000        47
59.010        67
59.020        13
59.030        53
59.040        73
59.050         7
59.060        27
59.070        27
59.080        33
59.090        27
59.100        33
59.110        47
59.120        27
59.130        20
59.140        47
59.150        40
59.160        13
59.170        40
59.180        60
59.190        13
59.200        27
59.210        60
59.220        13
59.230        13
59.240        60
59.250        20
59.260        47
59.270        53
59.280        27
59.290         7
59.300        53
59.310        13
59.320        40
59.330        33
59.340        47
59.350        27
59.360        27
59.370        53
59.380        40
59.390        33
59.400        27
59.410        47
59.420        27
59.430        27
59.440        13
59.450        13
59.460        47
59.470        20
59.480        40
59.490        20
59.500        33
59.510        33
59.520        67
59.530        47
59.540         7
59.550        47
59.560        47
59.570        40
59.580        27
59.590        40
59.600        40
59.610        47
59.620        40
59.630        27
59.640        33
59.650        53
59.660        47
59.670        33
59.680        33
59.690        47
59.700        20
59.710        27
59.720        87
59.730        33
59.740        40
59.750        33
59.760        20
59.770        27
59.780        33
59.790        47
59.800        20
59.810        27
59.820        47
59.830        20
59.840        27
59.850        27
59.860        33
59.870        27
59.880        53
59.890        33
59.900        33
59.910        53
59.920        40
59.930        47
59.940        33
59.950        40
59.960        60
59.970        33
59.980        47
59.990         7
60.000         7
