20.000       460
20.010       686
20.020       526
20.030       486
20.040       506
20.050       473
20.060       626
20.070       533
20.080       633
20.090       513
20.100       600
20.110       486
20.120       520
20.130       433
20.140       513
20.150       446
20.160       453
20.170       420
20.180       393
20.190       453
20.200       526
20.210       500
20.220       433
20.230       473
20.240       566
20.250       506
20.260       473
20.270       640
20.280       500
20.290       466
20.300       380
20.310       500
20.320       387
20.330       460
20.340       400
20.350       420
20.360       453
20.370       493
20.380       526
20.390       466
20.400       407
20.410       493
20.420       466
20.430       426
20.440       420
20.450       400
20.460       466
20.470       426
20.480       513
20.490       466
20.500       593
20.510       367
20.520       446
20.530       407
20.540       486
20.550       493
20.560       566
20.570       466
20.580       460
20.590       580
20.600       460
20.610       466
20.620       493
20.630       433
20.640       426
20.650       613
20.660       520
20.670       466
20.680       426
20.690       407
20.700       426
20.710       347
20.720       446
20.730       393
20.740       400
20.750       400
20.760       460
20.770       420
20.780       460
20.790       400
20.800       426
20.810       373
20.820       353
20.830       546
20.840       520
20.850       393
20.860       426
20.870       453
20.880       480
20.890       413
20.900       446
20.910       373
20.920       473
20.930       473
20.940       466
20.950       400
20.960       500
20.970       407
20.980       486
20.990       453
21.000       480
21.010       453
21.020       413
21.030       506
21.040       413
21.050       460
21.060       420
21.070       380
21.080       466
21.090       373
21.100       453
21.110       446
21.120       433
21.130       453
21.140       440
21.150       400
21.160       400
21.170       293
21.180       333
21.190       446
21.200       426
21.210       440
21.220       533
21.230       426
21.240       420
21.250       566
21.260       480
21.270       453
21.280       373
21.290       373
21.300       446
21.310       426
21.320       333
21.330       413
21.340       486
21.350       600
21.360       453
21.370       433
21.380       400
21.390       373
21.400       393
21.410       353
21.420       387
21.430       473
21.440       426
21.450       433
21.460       513
21.470       353
21.480       460
21.490       400
21.500       380
21.510       400
21.520       387
21.530       473
21.540       367
21.550       380
21.560       493
21.570       407
21.580       500
21.590       400
21.600       353
21.610       373
21.620       380
21.630       433
21.640       440
21.650       546
21.660       373
21.670       373
21.680       433
21.690       340
21.700       400
21.710       327
21.720       446
21.730       440
21.740       367
21.750       513
21.760       347
21.770       367
21.780       433
21.790       420
21.800       380
21.810       373
21.820       400
21.830       393
21.840       393
21.850       373
21.860       480
21.870       320
21.880       380
21.890       400
21.900       433
21.910       360
21.920       393
21.930       473
21.940       387
21.950       393
21.960       380
21.970       373
21.980       393
21.990       320
22.000       367
22.010       400
22.020       560
22.030       400
22.040       373
22.050       373
22.060       440
22.070       380
22.080       307
22.090       407
22.100       426
22.110       393
22.120       293
22.130       473
22.140       387
22.150       347
22.160       367
22.170       407
22.180       440
22.190       313
22.200       320
22.210       393
22.220       273
22.230       313
22.240       367
22.250       380
22.260       373
22.270       367
22.280       247
22.290       293
22.300       433
22.310       347
22.320       433
22.330       373
22.340       393
22.350       347
22.360       453
22.370       380
22.380       393
22.390       327
22.400       293
22.410       400
22.420       373
22.430       313
22.440       267
22.450       307
22.460       373
22.470       320
22.480       353
22.490       280
22.500       293
22.510       367
22.520       333
22.530       426
22.540       293
22.550       287
22.560       253
22.570       333
22.580       287
22.590       320
22.600       393
22.610       293
22.620       400
22.630       367
22.640       373
22.650       466
22.660       380
22.670       413
22.680       360
22.690       367
22.700       347
22.710       407
22.720       373
22.730       400
22.740       367
22.750       320
22.760       360
22.770       287
22.780       320
22.790       333
22.800       320
22.810       407
22.820       320
22.830       340
22.840       353
22.850       360
22.860       293
22.870       320
22.880       380
22.890       340
22.900       387
22.910       393
22.920       333
22.930       413
22.940       287
22.950       373
22.960       307
22.970       407
22.980       353
22.990       353
23.000       446
23.010       307
23.020       280
23.030       367
23.040       300
23.050       400
23.060       313
23.070       327
23.080       280
23.090       293
23.100       267
23.110       407
23.120       320
23.130       367
23.140       340
23.150       400
23.160       287
23.170       340
23.180       400
23.190       367
23.200       313
23.210       313
23.220       313
23.230       340
23.240       393
23.250       313
23.260       347
23.270       393
23.280       380
23.290       347
23.300       327
23.310       367
23.320       347
23.330       307
23.340       393
23.350       360
23.360       367
23.370       360
23.380       373
23.390       300
23.400       320
23.410       387
23.420       347
23.430       293
23.440       373
23.450       393
23.460       327
23.470       367
23.480       287
23.490       280
23.500       340
23.510       413
23.520       327
23.530       320
23.540       373
23.550       347
23.560       293
23.570       280
23.580       267
23.590       327
23.600       327
23.610       347
23.620       287
23.630       300
23.640       353
23.650       520
23.660       260
23.670       267
23.680       307
23.690       333
23.700       293
23.710       247
23.720       280
23.730       340
23.740       347
23.750       333
23.760       313
23.770       293
23.780       313
23.790       367
23.800       280
23.810       380
23.820       240
23.830       353
23.840       387
23.850       307
23.860       260
23.870       307
23.880       240
23.890       280
23.900       340
23.910       267
23.920       240
23.930       333
23.940       227
23.950       293
23.960       280
23.970       353
23.980       340
23.990       340
24.000       340
24.010       333
24.020       307
24.030       260
24.040       327
24.050       420
24.060       300
24.070       260
24.080       313
24.090       320
24.100       300
24.110       260
24.120       300
24.130       360
24.140       273
24.150       293
24.160       327
24.170       300
24.180       340
24.190       287
24.200       320
24.210       347
24.220       300
24.230       280
24.240       353
24.250       347
24.260       360
24.270       260
24.280       233
24.290       267
24.300       273
24.310       353
24.320       353
24.330       300
24.340       280
24.350       280
24.360       227
24.370       273
24.380       233
24.390       360
24.400       253
24.410       267
24.420       253
24.430       313
24.440       340
24.450       260
24.460       333
24.470       280
24.480       233
24.490       327
24.500       273
24.510       227
24.520       367
24.530       260
24.540       220
24.550       307
24.560       233
24.570       240
24.580       280
24.590       253
24.600       287
24.610       273
24.620       293
24.630       253
24.640       260
24.650       287
24.660       340
24.670       340
24.680       233
24.690       253
24.700       320
24.710       267
24.720       387
24.730       320
24.740       260
24.750       247
24.760       307
24.770       260
24.780       240
24.790       253
24.800       280
24.810       313
24.820       220
24.830       253
24.840       213
24.850       287
24.860       240
24.870       267
24.880       300
24.890       267
24.900       280
24.910       233
24.920       213
24.930       253
24.940       220
24.950       293
24.960       273
24.970       240
24.980       260
24.990       273
25.000       327
25.010       260
25.020       187
25.030       220
25.040       240
25.050       273
25.060       273
25.070       227
25.080       200
25.090       307
25.100       260
25.110       200
25.120       233
25.130       280
25.140       207
25.150       280
25.160       313
25.170       213
25.180       253
25.190       313
25.200       260
25.210       333
25.220       267
25.230       300
25.240       267
25.250       173
25.260       200
25.270       273
25.280       267
25.290       193
25.300       187
25.310       200
25.320       293
25.330       187
25.340       200
25.350       260
25.360       267
25.370       200
25.380       160
25.390       247
25.400       167
25.410       193
25.420       273
25.430       173
25.440       173
25.450       293
25.460       247
25.470       207
25.480       233
25.490       280
25.500       207
25.510       273
25.520       193
25.530       313
25.540       187
25.550       193
25.560       247
25.570       233
25.580       153
25.590       207
25.600       207
25.610       240
25.620       173
25.630       233
25.640       220
25.650       153
25.660       187
25.670       167
25.680       193
25.690       213
25.700       140
25.710       167
25.720       147
25.730       220
25.740       167
25.750       180
25.760       173
25.770       173
25.780        87
25.790       127
25.800       160
25.810       127
25.820       127
25.830       160
25.840       133
25.850       147
25.860       113
25.870       153
25.880       133
25.890       120
25.900       160
25.910       153
25.920       153
25.930       147
25.940       133
25.950       147
25.960       180
25.970        87
25.980       133
25.990       127
26.000       120
26.010       120
26.020       153
26.030       100
26.040       153
26.050       120
26.060        87
26.070       160
26.080       187
26.090        53
26.100       100
26.110       113
26.120       113
26.130       107
26.140       107
26.150       167
26.160       147
26.170       127
26.180       173
26.190       140
26.200        93
26.210        87
26.220       127
26.230        87
26.240        80
26.250        80
26.260       133
26.270       107
26.280       127
26.290       127
26.300       147
26.310       100
26.320       100
26.330       160
26.340       133
26.350       160
26.360       100
26.370       120
26.380       133
26.390       113
26.400       140
26.410       120
26.420       113
26.430       140
26.440        80
26.450       133
26.460       147
26.470        93
26.480        80
26.490       100
26.500       133
26.510       120
26.520       107
26.530        87
26.540       140
26.550       120
26.560       160
26.570       100
26.580       107
26.590        87
26.600       127
26.610        87
26.620        73
26.630       127
26.640       147
26.650       160
26.660        87
26.670       113
26.680        80
26.690        93
26.700       140
26.710       127
26.720        93
26.730       100
26.740        87
26.750       107
26.760       120
26.770       133
26.780       113
26.790       100
26.800       127
26.810       133
26.820       107
26.830        87
26.840       107
26.850       100
26.860        93
26.870        87
26.880       107
26.890       100
26.900        93
26.910       120
26.920       120
26.930        73
26.940        47
26.950       120
26.960       100
26.970       120
26.980       100
26.990        60
27.000       173
27.010        80
27.020       120
27.030       133
27.040       167
27.050        73
27.060       173
27.070        93
27.080       147
27.090        87
27.100       107
27.110       107
27.120        93
27.130        87
27.140       133
27.150       113
27.160        93
27.170       133
27.180        93
27.190        67
27.200        87
27.210       107
27.220       100
27.230        33
27.240       133
27.250        73
27.260        93
27.270       120
27.280        93
27.290        87
27.300       133
27.310       100
27.320        93
27.330        80
27.340       113
27.350        80
27.360        67
27.370        67
27.380        87
27.390       113
27.400        73
27.410        60
27.420       153
27.430       153
27.440        73
27.450       100
27.460        53
27.470        73
27.480        67
27.490        93
27.500        67
27.510       100
27.520       120
27.530       127
27.540        67
27.550        67
27.560        80
27.570        80
27.580        93
27.590       107
27.600        73
27.610        80
27.620       193
27.630        87
27.640        47
27.650        93
27.660        87
27.670        60
27.680       107
27.690       107
27.700        67
27.710       113
27.720        93
27.730        80
27.740        87
27.750        93
27.760        60
27.770        87
27.780        47
27.790        67
27.800        93
27.810        53
27.820       113
27.830        73
27.840        67
27.850       120
27.860        80
27.870        80
27.880        60
27.890        80
27.900        73
27.910       107
27.920        67
27.930       127
27.940        73
27.950        67
27.960        87
27.970       120
27.980       120
27.990       107
28.000        60
28.010       120
28.020        87
28.030       107
28.040        60
28.050       120
28.060        73
28.070        47
28.080       100
28.090        93
28.100       100
28.110       100
28.120        87
28.130       100
28.140        80
28.150        60
28.160        87
28.170        87
28.180        80
28.190       133
28.200       120
28.210        60
28.220       107
28.230       107
28.240       107
28.250        73
28.260        93
28.270        67
28.280        67
28.290        93
28.300       140
28.310        60
28.320       100
28.330       127
28.340       100
28.350        67
28.360        67
28.370       140
28.380        67
28.390        60
28.400        87
28.410       100
28.420        67
28.430        53
28.440       100
28.450        53
28.460        67
28.470        47
28.480       100
28.490       100
28.500        60
28.510        80
28.520        87
28.530        87
28.540       107
28.550       100
28.560        80
28.570        93
28.580       107
28.590        93
28.600        67
28.610        60
28.620        47
28.630        73
28.640        33
28.650        47
28.660       113
28.670        53
28.680        80
28.690       120
28.700        87
28.710        40
28.720        93
28.730        60
28.740        80
28.750        67
28.760        80
28.770        93
28.780       113
28.790        80
28.800        67
28.810       133
28.820        47
28.830       100
28.840       153
28.850        87
28.860        73
28.870       127
28.880       113
28.890       107
28.900        67
28.910       127
28.920        93
28.930       100
28.940        80
28.950       113
28.960       113
28.970        73
28.980        73
28.990        73
29.000       133
29.010       133
29.020        93
29.030        53
29.040        67
29.050        67
29.060        53
29.070        80
29.080        60
29.090       100
29.100        93
29.110        67
29.120        73
29.130        87
29.140        67
29.150        87
29.160       113
29.170        53
29.180        60
29.190       120
29.200        73
29.210       113
29.220        60
29.230       120
29.240       100
29.250       100
29.260       100
29.270       140
29.280        93
29.290        87
29.300       107
29.310       100
29.320       153
29.330       147
29.340       113
29.350       140
29.360        87
29.370       100
29.380       107
29.390        60
29.400       113
29.410        93
29.420        93
29.430       107
29.440        73
29.450       100
29.460        67
29.470        87
29.480        87
29.490        87
29.500        73
29.510        87
29.520        60
29.530        47
29.540        93
29.550        67
29.560        87
29.570       113
29.580        53
29.590        67
29.600        67
29.610        47
29.620        93
29.630        73
29.640       100
29.650        60
29.660       113
29.670        93
29.680        47
29.690        27
29.700        67
29.710        80
29.720        67
29.730       100
29.740        67
29.750        60
29.760       133
29.770        73
29.780       100
29.790        93
29.800       113
29.810       100
29.820        67
29.830        73
29.840       113
29.850        87
29.860        60
29.870       107
29.880        47
29.890        73
29.900        87
29.910        73
29.920        80
29.930        87
29.940        80
29.950        80
29.960       133
29.970        60
29.980        67
29.990        87
30.000        67
30.010        67
30.020        87
30.030        27
30.040        80
30.050        53
30.060       113
30.070        87
30.080       120
30.090        80
30.100        60
30.110        67
30.120        67
30.130        53
30.140        67
30.150       147
30.160        73
30.170        73
30.180        73
30.190       107
30.200        73
30.210        80
30.220        87
30.230        73
30.240        73
30.250        73
30.260        67
30.270       127
30.280       100
30.290        60
30.300        80
30.310        60
30.320        67
30.330       113
30.340        93
30.350        53
30.360        87
30.370       100
30.380        93
30.390        80
30.400        80
30.410       120
30.420       100
30.430       140
30.440        93
30.450        87
30.460        67
30.470        80
30.480       127
30.490        80
30.500        80
30.510        80
30.520        67
30.530       100
30.540       100
30.550       133
30.560        93
30.570       107
30.580        60
30.590       153
30.600        60
30.610       127
30.620       113
30.630        87
30.640        80
30.650        67
30.660        87
30.670       120
30.680        73
30.690       100
30.700        87
30.710        53
30.720        80
30.730       113
30.740        93
30.750       113
30.760       113
30.770       127
30.780       127
30.790        93
30.800        87
30.810       107
30.820       133
30.830       100
30.840       140
30.850       120
30.860        93
30.870        80
30.880       113
30.890        93
30.900        87
30.910       113
30.920        87
30.930       140
30.940       113
30.950       113
30.960       140
30.970       153
30.980       140
30.990       140
31.000       113
31.010       160
31.020       107
31.030       173
31.040       147
31.050       153
31.060       207
31.070       207
31.080       213
31.090       213
31.100       287
31.110       240
31.120       227
31.130       313
31.140       340
31.150       327
31.160       393
31.170       393
31.180       340
31.190       360
31.200       313
31.210       340
31.220       320
31.230       353
31.240       293
31.250       233
31.260       233
31.270       260
31.280       200
31.290       207
31.300       167
31.310       207
31.320       113
31.330       113
31.340       140
31.350       153
31.360       160
31.370       147
31.380       100
31.390       107
31.400       107
31.410       140
31.420       133
31.430        87
31.440       120
31.450       107
31.460        73
31.470       120
31.480       127
31.490       120
31.500       153
31.510       147
31.520       120
31.530       113
31.540       127
31.550       153
31.560       147
31.570       107
31.580       187
31.590        73
31.600        93
31.610       153
31.620       160
31.630       127
31.640       180
31.650        93
31.660       140
31.670       113
31.680        93
31.690       127
31.700       120
31.710       193
31.720       140
31.730       147
31.740       140
31.750       140
31.760       133
31.770       133
31.780       193
31.790       147
31.800       213
31.810       147
31.820       147
31.830       253
31.840       220
31.850       147
31.860       153
31.870       193
31.880       207
31.890       193
31.900       107
31.910       173
31.920       207
31.930       173
31.940       187
31.950       200
31.960       160
31.970       227
31.980       207
31.990       233
32.000       153
32.010       233
32.020       300
32.030       280
32.040       413
32.050       560
32.060       766
32.070      1000
32.080      1293
32.090      1773
32.100      2079
32.110      2159
32.120      2046
32.130      1919
32.140      1379
32.150      1319
32.160       720
32.170       533
32.180       347
32.190       280
32.200       327
32.210       307
32.220       360
32.230       320
32.240       260
32.250       240
32.260       240
32.270       260
32.280       200
32.290       207
32.300       227
32.310       187
32.320       187
32.330       147
32.340       153
32.350       173
32.360       160
32.370       173
32.380       173
32.390       213
32.400       120
32.410       153
32.420       167
32.430       173
32.440       160
32.450       153
32.460       140
32.470       167
32.480       133
32.490       187
32.500       113
32.510       100
32.520       167
32.530       140
32.540       167
32.550       160
32.560       133
32.570        93
32.580       113
32.590       200
32.600       147
32.610       147
32.620       220
32.630       187
32.640       153
32.650       147
32.660       133
32.670       133
32.680       153
32.690       107
32.700       173
32.710       167
32.720       167
32.730        87
32.740       147
32.750       140
32.760       133
32.770       107
32.780        93
32.790       160
32.800       153
32.810       113
32.820       180
32.830       113
32.840       220
32.850       160
32.860       120
32.870       100
32.880       173
32.890       133
32.900       140
32.910       140
32.920       153
32.930       187
32.940        87
32.950       173
32.960       167
32.970       180
32.980       133
32.990       107
33.000       100
33.010       153
33.020       147
33.030        80
33.040       160
33.050       153
33.060       147
33.070       180
33.080        87
33.090       153
33.100       113
33.110       167
33.120       167
33.130       180
33.140       147
33.150       113
33.160       160
33.170       153
33.180       153
33.190       133
33.200       180
33.210       153
33.220       147
33.230       147
33.240        93
33.250       127
33.260       147
33.270       193
33.280       167
33.290       193
33.300       153
33.310        93
33.320       173
33.330       127
33.340        67
33.350       167
33.360       153
33.370        87
33.380       133
33.390       133
33.400       140
33.410        87
33.420       153
33.430       147
33.440       113
33.450       127
33.460       147
33.470       113
33.480       120
33.490        87
33.500       160
33.510       113
33.520        93
33.530       147
33.540       100
33.550       120
33.560       173
33.570       167
33.580       113
33.590       173
33.600       127
33.610       173
33.620       213
33.630       127
33.640        93
33.650       140
33.660       127
33.670       167
33.680       193
33.690       207
33.700       153
33.710       153
33.720       113
33.730       207
33.740       173
33.750       113
33.760       173
33.770       187
33.780       147
33.790       133
33.800       127
33.810       140
33.820       187
33.830        87
33.840       173
33.850       133
33.860       120
33.870       120
33.880       153
33.890       107
33.900       127
33.910       133
33.920       160
33.930       107
33.940       127
33.950       140
33.960       127
33.970       133
33.980       100
33.990       133
34.000       153
34.010       140
34.020       127
34.030       160
34.040       107
34.050       133
34.060       113
34.070       147
34.080       120
34.090       100
34.100       180
34.110       133
34.120       133
34.130       107
34.140       153
34.150       100
34.160        60
34.170       113
34.180       133
34.190       133
34.200       147
34.210        93
34.220       180
34.230       113
34.240       133
34.250       147
34.260       187
34.270       113
34.280       133
34.290        93
34.300       160
34.310       153
34.320       200
34.330       193
34.340       220
34.350       213
34.360       240
34.370       260
34.380       347
34.390       413
34.400       480
34.410       460
34.420       560
34.430       533
34.440       653
34.450       586
34.460       686
34.470       693
34.480       760
34.490       640
34.500       946
34.510       646
34.520       520
34.530       853
34.540       640
34.550       560
34.560       766
34.570       626
34.580       846
34.590       720
34.600       780
34.610       700
34.620       713
34.630       746
34.640       640
34.650       626
34.660       713
34.670       586
34.680       680
34.690       600
34.700       660
34.710       526
34.720       660
34.730       753
34.740       740
34.750       646
34.760       726
34.770       666
34.780       726
34.790       653
34.800       600
34.810       640
34.820       620
34.830       626
34.840       493
34.850       613
34.860       673
34.870       606
34.880       720
34.890       713
34.900       620
34.910       620
34.920       673
34.930       573
34.940       640
34.950       666
34.960       673
34.970       560
34.980       666
34.990       746
35.000       733
35.010       753
35.020       653
35.030       786
35.040       726
35.050       813
35.060       560
35.070       700
35.080       680
35.090       680
35.100       740
35.110       666
35.120       606
35.130       773
35.140       666
35.150       746
35.160       780
35.170       813
35.180       740
35.190       793
35.200       813
35.210       840
35.220       820
35.230       780
35.240       713
35.250       826
35.260      1013
35.270       826
35.280       886
35.290       973
35.300       900
35.310      1080
35.320      1093
35.330      1073
35.340      1013
35.350      1220
35.360      1299
35.370      1413
35.380      1513
35.390      1659
35.400      1559
35.410      2252
35.420      2432
35.430      3345
35.440      4065
35.450      5045
35.460      6191
35.470      6724
35.480      7970
35.490      8317
35.500      9276
35.510      9243
35.520     10789
35.530     11236
35.540     12328
35.550     14674
35.560     18086
35.570     27569
35.580     47554
35.590     78955
35.600    114674
35.610    143116
35.620    162941
35.630    170612
35.640    175810
35.650    168999
35.660    153692
35.670    132294
35.680    108863
35.690     97174
35.700     97868
35.710    103299
35.720    106744
35.730    108297
35.740    104152
35.750     93396
35.760     76449
35.770     55784
35.780     37305
35.790     24304
35.800     17193
35.810     12835
35.820     10509
35.830      8657
35.840      7697
35.850      7024
35.860      6477
35.870      5651
35.880      4911
35.890      4465
35.900      3739
35.910      3005
35.920      2439
35.930      2159
35.940      1839
35.950      1626
35.960      1459
35.970      1220
35.980      1279
35.990      1346
36.000      1173
36.010      1200
36.020      1146
36.030      1193
36.040      1093
36.050       926
36.060      1106
36.070       993
36.080       866
36.090      1040
36.100      1086
36.110       933
36.120       940
36.130       920
36.140      1066
36.150       826
36.160       880
36.170       766
36.180       686
36.190       926
36.200       720
36.210       700
36.220       700
36.230       700
36.240       753
36.250       633
36.260       826
36.270       626
36.280       646
36.290       673
36.300       586
36.310       660
36.320       786
36.330       580
36.340       640
36.350       593
36.360       593
36.370       700
36.380       753
36.390       646
36.400       586
36.410       640
36.420       693
36.430       553
36.440       553
36.450       560
36.460       620
36.470       573
36.480       533
36.490       513
36.500       486
36.510       526
36.520       580
36.530       566
36.540       540
36.550       513
36.560       546
36.570       526
36.580       440
36.590       440
36.600       520
36.610       440
36.620       440
36.630       620
36.640       513
36.650       486
36.660       473
36.670       466
36.680       433
36.690       486
36.700       533
36.710       513
36.720       466
36.730       540
36.740       500
36.750       506
36.760       473
36.770       426
36.780       460
36.790       560
36.800       500
36.810       440
36.820       426
36.830       453
36.840       393
36.850       433
36.860       426
36.870       407
36.880       513
36.890       453
36.900       367
36.910       486
36.920       353
36.930       533
36.940       480
36.950       473
36.960       407
36.970       387
36.980       393
36.990       480
37.000       573
37.010       293
37.020       433
37.030       460
37.040       493
37.050       407
37.060       426
37.070       453
37.080       380
37.090       553
37.100       466
37.110       407
37.120       400
37.130       373
37.140       407
37.150       413
37.160       393
37.170       426
37.180       400
37.190       440
37.200       446
37.210       420
37.220       393
37.230       453
37.240       453
37.250       333
37.260       393
37.270       440
37.280       373
37.290       333
37.300       420
37.310       426
37.320       453
37.330       393
37.340       380
37.350       486
37.360       367
37.370       367
37.380       426
37.390       426
37.400       506
37.410       420
37.420       506
37.430       353
37.440       360
37.450       387
37.460       426
37.470       340
37.480       466
37.490       420
37.500       466
37.510       473
37.520       387
37.530       353
37.540       273
37.550       293
37.560       407
37.570       360
37.580       367
37.590       280
37.600       433
37.610       333
37.620       380
37.630       353
37.640       393
37.650       347
37.660       380
37.670       380
37.680       307
37.690       466
37.700       393
37.710       333
37.720       353
37.730       300
37.740       400
37.750       340
37.760       407
37.770       307
37.780       327
37.790       347
37.800       300
37.810       293
37.820       300
37.830       340
37.840       273
37.850       380
37.860       433
37.870       327
37.880       320
37.890       393
37.900       373
37.910       353
37.920       407
37.930       393
37.940       340
37.950       333
37.960       293
37.970       287
37.980       380
37.990       400
38.000       347
38.010       287
38.020       253
38.030       387
38.040       373
38.050       313
38.060       267
38.070       333
38.080       320
38.090       273
38.100       300
38.110       287
38.120       353
38.130       340
38.140       300
38.150       300
38.160       267
38.170       327
38.180       426
38.190       273
38.200       280
38.210       367
38.220       287
38.230       327
38.240       273
38.250       287
38.260       393
38.270       320
38.280       280
38.290       267
38.300       320
38.310       307
38.320       433
38.330       293
38.340       327
38.350       300
38.360       367
38.370       400
38.380       347
38.390       380
38.400       347
38.410       353
38.420       380
38.430       480
38.440       373
38.450       413
38.460       373
38.470       433
38.480       400
38.490       407
38.500       480
38.510       433
38.520       313
38.530       387
38.540       446
38.550       267
38.560       313
38.570       340
38.580       267
38.590       313
38.600       340
38.610       420
38.620       360
38.630       287
38.640       247
38.650       380
38.660       253
38.670       267
38.680       333
38.690       267
38.700       300
38.710       373
38.720       340
38.730       233
38.740       367
38.750       227
38.760       227
38.770       287
38.780       353
38.790       260
38.800       373
38.810       300
38.820       253
38.830       240
38.840       207
38.850       247
38.860       207
38.870       267
38.880       333
38.890       240
38.900       180
38.910       353
38.920       240
38.930       293
38.940       287
38.950       300
38.960       287
38.970       287
38.980       267
38.990       273
39.000       247
39.010       260
39.020       313
39.030       293
39.040       247
39.050       220
39.060       333
39.070       273
39.080       227
39.090       220
39.100       200
39.110       333
39.120       247
39.130       233
39.140       287
39.150       287
39.160       233
39.170       287
39.180       307
39.190       273
39.200       300
39.210       280
39.220       287
39.230       193
39.240       247
39.250       307
39.260       227
39.270       227
39.280       267
39.290       300
39.300       307
39.310       333
39.320       333
39.330       247
39.340       333
39.350       293
39.360       287
39.370       273
39.380       227
39.390       267
39.400       327
39.410       287
39.420       313
39.430       340
39.440       220
39.450       247
39.460       307
39.470       253
39.480       213
39.490       253
39.500       247
39.510       213
39.520       253
39.530       267
39.540       207
39.550       233
39.560       273
39.570       267
39.580       287
39.590       220
39.600       267
39.610       220
39.620       280
39.630       260
39.640       280
39.650       213
39.660       293
39.670       267
39.680       213
39.690       273
39.700       307
39.710       280
39.720       253
39.730       240
39.740       240
39.750       220
39.760       240
39.770       267
39.780       240
39.790       213
39.800       327
39.810       193
39.820       233
39.830       293
39.840       240
39.850       273
39.860       213
39.870       213
39.880       280
39.890       267
39.900       220
39.910       220
39.920       287
39.930       260
39.940       267
39.950       300
39.960       293
39.970       220
39.980       260
39.990       193
40.000       240
40.010       233
40.020       180
40.030       193
40.040       227
40.050       273
40.060       287
40.070       227
40.080       140
40.090       207
40.100       240
40.110       227
40.120       200
40.130       273
40.140       187
40.150       207
40.160       253
40.170       207
40.180       313
40.190       220
40.200       193
40.210       227
40.220       193
40.230       247
40.240       260
40.250       227
40.260       207
40.270       193
40.280       240
40.290       227
40.300       267
40.310       280
40.320       300
40.330       200
40.340       220
40.350       227
40.360       227
40.370       220
40.380       267
40.390       267
40.400       180
40.410       193
40.420       280
40.430       180
40.440       213
40.450       187
40.460       153
40.470       227
40.480       260
40.490       233
40.500       247
40.510       200
40.520       173
40.530       187
40.540       240
40.550       173
40.560       293
40.570       253
40.580       227
40.590       213
40.600       207
40.610       247
40.620       247
40.630       187
40.640       180
40.650       220
40.660       187
40.670       180
40.680       160
40.690       273
40.700       240
40.710       193
40.720       300
40.730       207
40.740       173
40.750       207
40.760       227
40.770       200
40.780       227
40.790       213
40.800       280
40.810       193
40.820       240
40.830       207
40.840       180
40.850       180
40.860       107
40.870       193
40.880       180
40.890       253
40.900       213
40.910       147
40.920       220
40.930       147
40.940       160
40.950       220
40.960       147
40.970       260
40.980       240
40.990       127
41.000       220
41.010       193
41.020       260
41.030       173
41.040       207
41.050       220
41.060       167
41.070       153
41.080       240
41.090       167
41.100       160
41.110       173
41.120       213
41.130       193
41.140       227
41.150       180
41.160       193
41.170       160
41.180       200
41.190       187
41.200       180
41.210       200
41.220       220
41.230       247
41.240       207
41.250       200
41.260       180
41.270       200
41.280       260
41.290       220
41.300       160
41.310       127
41.320       207
41.330       173
41.340       187
41.350       200
41.360       113
41.370       213
41.380       227
41.390       173
41.400       187
41.410       200
41.420       260
41.430       133
41.440       153
41.450       160
41.460       127
41.470       213
41.480       220
41.490       187
41.500       153
41.510       160
41.520       200
41.530       227
41.540       193
41.550       213
41.560       187
41.570       220
41.580       107
41.590       260
41.600       167
41.610       140
41.620       180
41.630       240
41.640       153
41.650       193
41.660       160
41.670       267
41.680       160
41.690       147
41.700       187
41.710       180
41.720       107
41.730       193
41.740       153
41.750       267
41.760       100
41.770       187
41.780       113
41.790       147
41.800       267
41.810       233
41.820       187
41.830       167
41.840       200
41.850       193
41.860       180
41.870       167
41.880       193
41.890       173
41.900       167
41.910       180
41.920       193
41.930       193
41.940       253
41.950       167
41.960       207
41.970       107
41.980       167
41.990       227
42.000       220
42.010       180
42.020       213
42.030       140
42.040       200
42.050       147
42.060       160
42.070       200
42.080       160
42.090       173
42.100       187
42.110       120
42.120       193
42.130       233
42.140       167
42.150       187
42.160       193
42.170       233
42.180       140
42.190       187
42.200       200
42.210       193
42.220       173
42.230       193
42.240       113
42.250       220
42.260       233
42.270       207
42.280       247
42.290       187
42.300       187
42.310        73
42.320       213
42.330       153
42.340       147
42.350       187
42.360       127
42.370       147
42.380       167
42.390       147
42.400       173
42.410       220
42.420       153
42.430       207
42.440       180
42.450       167
42.460       160
42.470       120
42.480       207
42.490       180
42.500       167
42.510       153
42.520       160
42.530       167
42.540       153
42.550       200
42.560       153
42.570       247
42.580       187
42.590       147
42.600       227
42.610       200
42.620       173
42.630       133
42.640       153
42.650       173
42.660       133
42.670       147
42.680       173
42.690       200
42.700       167
42.710       147
42.720       173
42.730       147
42.740       173
42.750       153
42.760       213
42.770       213
42.780       220
42.790       153
42.800       240
42.810       153
42.820       167
42.830       167
42.840       173
42.850       140
42.860       173
42.870       113
42.880       193
42.890       133
42.900       133
42.910       173
42.920       213
42.930       247
42.940        93
42.950       193
42.960       220
42.970       187
42.980       127
42.990       153
43.000       147
43.010       180
43.020       153
43.030       120
43.040       193
43.050       167
43.060       160
43.070       260
43.080       140
43.090       153
43.100       200
43.110       180
43.120       100
43.130       140
43.140       107
43.150       147
43.160       160
43.170       133
43.180       160
43.190       140
43.200       187
43.210       127
43.220       167
43.230       180
43.240       133
43.250       200
43.260       173
43.270       200
43.280       160
43.290       173
43.300       107
43.310       153
43.320       213
43.330       200
43.340       153
43.350       153
43.360       147
43.370       233
43.380       113
43.390       173
43.400       140
43.410       187
43.420       160
43.430       133
43.440       160
43.450       120
43.460       113
43.470       120
43.480       133
43.490       167
43.500       173
43.510       140
43.520       153
43.530       160
43.540       153
43.550       133
43.560       140
43.570       147
43.580       153
43.590       180
43.600       113
43.610       133
43.620       140
43.630        93
43.640       127
43.650       180
43.660       193
43.670        80
43.680       107
43.690       133
43.700       167
43.710       120
43.720       113
43.730       200
43.740       147
43.750       173
43.760       187
43.770       147
43.780       140
43.790       133
43.800       173
43.810       120
43.820       167
43.830       160
43.840       147
43.850       120
43.860       113
43.870       153
43.880       113
43.890       153
43.900       160
43.910       100
43.920       147
43.930       173
43.940       120
43.950       180
43.960       127
43.970       127
43.980       100
43.990       120
44.000       160
44.010        80
44.020       147
44.030       133
44.040       140
44.050       120
44.060       147
44.070       133
44.080       133
44.090       173
44.100       160
44.110       127
44.120       120
44.130       167
44.140       160
44.150       120
44.160       120
44.170       167
44.180        93
44.190       127
44.200       147
44.210       100
44.220       140
44.230       120
44.240       180
44.250       160
44.260       147
44.270       167
44.280        93
44.290       140
44.300       113
44.310       160
44.320       107
44.330       113
44.340       147
44.350       147
44.360       133
44.370       133
44.380        80
44.390        93
44.400       127
44.410       140
44.420       120
44.430       160
44.440        87
44.450       120
44.460       180
44.470       120
44.480       173
44.490       160
44.500       127
44.510       153
44.520       147
44.530       133
44.540       173
44.550       127
44.560       193
44.570       113
44.580       200
44.590       193
44.600       187
44.610       127
44.620       160
44.630       167
44.640       147
44.650        87
44.660       153
44.670       180
44.680       187
44.690       180
44.700       227
44.710       173
44.720       173
44.730       233
44.740       147
44.750       173
44.760       140
44.770       120
44.780       213
44.790       167
44.800       200
44.810       133
44.820       153
44.830       167
44.840       147
44.850       127
44.860       133
44.870       140
44.880        93
44.890        87
44.900       127
44.910       153
44.920       140
44.930       233
44.940        73
44.950       113
44.960       120
44.970       133
44.980        93
44.990       107
45.000        87
45.010        87
45.020       147
45.030       140
45.040       160
45.050       127
45.060       160
45.070       140
45.080       113
45.090        87
45.100        87
45.110       120
45.120       167
45.130       127
45.140       193
45.150       140
45.160       160
45.170       127
45.180       127
45.190        73
45.200       153
45.210       140
45.220       120
45.230        67
45.240       113
45.250       133
45.260       140
45.270       140
45.280       140
45.290       167
45.300       107
45.310       147
45.320       120
45.330       100
45.340       113
45.350       120
45.360       133
45.370        80
45.380       153
45.390       100
45.400       127
45.410       140
45.420        87
45.430       113
45.440        87
45.450       113
45.460       133
45.470       107
45.480        80
45.490        93
45.500       113
45.510       107
45.520       100
45.530       153
45.540       107
45.550       113
45.560       153
45.570       120
45.580       113
45.590        93
45.600       120
45.610        73
45.620        87
45.630        87
45.640       173
45.650        87
45.660       160
45.670        87
45.680        93
45.690       153
45.700        87
45.710        87
45.720        87
45.730       120
45.740       107
45.750        53
45.760       160
45.770        93
45.780        60
45.790       127
45.800        73
45.810       113
45.820       133
45.830       140
45.840       187
45.850       147
45.860        80
45.870        67
45.880       127
45.890       113
45.900       113
45.910       120
45.920       120
45.930       120
45.940       127
45.950       167
45.960       127
45.970       100
45.980       107
45.990       127
46.000       140
46.010       120
46.020       113
46.030       107
46.040        87
46.050       133
46.060       107
46.070        73
46.080       133
46.090       113
46.100       100
46.110       100
46.120       113
46.130       120
46.140       113
46.150        53
46.160       120
46.170        93
46.180       127
46.190       107
46.200       127
46.210        80
46.220        80
46.230        60
46.240       133
46.250        93
46.260       100
46.270        87
46.280       100
46.290       107
46.300       153
46.310       127
46.320       120
46.330       127
46.340        93
46.350        67
46.360       113
46.370        87
46.380        93
46.390        80
46.400       160
46.410       133
46.420       133
46.430       113
46.440       120
46.450        93
46.460       147
46.470       107
46.480       100
46.490        87
46.500        93
46.510        93
46.520        93
46.530        87
46.540       113
46.550       100
46.560       100
46.570       107
46.580        93
46.590       113
46.600        93
46.610       100
46.620        93
46.630        67
46.640       100
46.650        87
46.660        87
46.670       107
46.680       113
46.690        73
46.700        87
46.710        93
46.720        93
46.730       127
46.740        87
46.750        87
46.760        87
46.770        47
46.780       107
46.790       133
46.800       113
46.810       107
46.820        80
46.830       120
46.840       133
46.850       100
46.860       127
46.870       133
46.880       100
46.890       167
46.900       133
46.910       113
46.920       153
46.930       120
46.940       133
46.950       133
46.960       107
46.970       107
46.980       133
46.990       133
47.000       100
47.010        80
47.020       120
47.030       147
47.040       113
47.050       100
47.060       147
47.070        80
47.080       120
47.090        80
47.100       127
47.110        73
47.120       107
47.130        67
47.140       120
47.150        93
47.160       133
47.170       127
47.180        67
47.190       120
47.200       113
47.210        93
47.220        60
47.230       160
47.240        60
47.250        87
47.260        93
47.270       113
47.280       160
47.290        73
47.300        73
47.310       120
47.320       113
47.330        73
47.340       120
47.350        93
47.360       153
47.370       113
47.380       173
47.390       113
47.400        87
47.410       100
47.420       127
47.430       160
47.440       133
47.450       127
47.460       133
47.470        73
47.480        80
47.490       120
47.500       100
47.510        73
47.520       113
47.530       127
47.540       100
47.550       100
47.560        60
47.570       100
47.580        87
47.590       147
47.600        73
47.610        93
47.620        73
47.630        67
47.640       113
47.650        87
47.660       133
47.670       100
47.680       127
47.690        87
47.700       100
47.710       100
47.720        73
47.730        87
47.740        87
47.750       113
47.760       127
47.770       107
47.780        73
47.790        67
47.800        60
47.810       100
47.820       140
47.830        87
47.840        80
47.850        53
47.860       113
47.870       100
47.880        73
47.890       100
47.900        67
47.910        93
47.920       100
47.930        73
47.940        73
47.950        87
47.960        87
47.970        73
47.980        87
47.990        53
48.000        80
48.010        73
48.020       107
48.030       113
48.040       127
48.050        93
48.060        73
48.070        93
48.080        40
48.090        87
48.100       120
48.110       160
48.120       100
48.130        93
48.140       100
48.150       127
48.160       120
48.170       113
48.180       107
48.190        80
48.200       133
48.210       133
48.220       133
48.230       140
48.240        80
48.250       113
48.260       160
48.270       100
48.280        80
48.290       153
48.300       127
48.310       100
48.320        80
48.330       147
48.340       120
48.350       127
48.360        60
48.370        93
48.380        67
48.390        80
48.400        93
48.410       100
48.420        80
48.430        73
48.440       127
48.450       133
48.460        87
48.470       107
48.480        93
48.490        80
48.500        87
48.510       107
48.520        67
48.530       107
48.540        80
48.550       113
48.560       133
48.570       100
48.580       140
48.590       100
48.600       140
48.610        87
48.620       127
48.630       120
48.640        53
48.650       113
48.660       120
48.670       147
48.680       140
48.690       113
48.700        47
48.710       113
48.720       113
48.730        87
48.740        73
48.750        87
48.760       107
48.770       107
48.780       107
48.790       127
48.800        60
48.810        87
48.820       113
48.830        87
48.840        67
48.850       140
48.860       167
48.870       147
48.880       127
48.890        60
48.900        93
48.910        73
48.920        80
48.930        87
48.940       107
48.950       127
48.960        53
48.970        60
48.980       113
48.990        87
49.000        53
49.010       113
49.020       147
49.030       100
49.040        80
49.050        73
49.060       113
49.070        93
49.080        87
49.090       107
49.100        80
49.110        53
49.120        80
49.130       153
49.140       107
49.150        80
49.160       100
49.170        87
49.180        93
49.190        93
49.200        73
49.210        93
49.220       100
49.230        53
49.240       167
49.250       107
49.260       107
49.270       100
49.280        80
49.290       100
49.300       100
49.310        93
49.320        67
49.330        73
49.340        93
49.350        93
49.360       140
49.370       107
49.380        87
49.390        53
49.400       120
49.410       100
49.420        67
49.430        80
49.440       107
49.450        20
49.460        73
49.470       133
49.480        80
49.490        73
49.500       153
49.510        73
49.520        87
49.530       107
49.540        87
49.550       100
49.560        67
49.570        87
49.580        93
49.590        60
49.600       127
49.610       100
49.620        93
49.630        87
49.640        93
49.650        60
49.660        93
49.670       120
49.680       107
49.690        80
49.700        80
49.710        67
49.720        87
49.730        93
49.740        93
49.750        87
49.760       100
49.770        67
49.780       100
49.790        53
49.800        60
49.810       113
49.820        87
49.830        73
49.840       120
49.850        80
49.860       107
49.870        87
49.880        80
49.890       120
49.900       120
49.910        80
49.920        87
49.930       127
49.940        67
49.950        60
49.960        67
49.970       100
49.980        67
49.990        80
50.000        80
50.010        53
50.020       113
50.030        93
50.040       127
50.050        87
50.060       100
50.070        73
50.080       140
50.090        93
50.100        67
50.110        93
50.120        93
50.130        93
50.140       107
50.150       133
50.160        60
50.170        80
50.180        73
50.190       120
50.200        67
50.210       120
50.220       100
50.230       120
50.240       153
50.250       107
50.260       140
50.270       100
50.280        67
50.290       140
50.300        60
50.310        93
50.320        60
50.330       127
50.340       107
50.350       160
50.360       100
50.370        40
50.380       140
50.390        80
50.400        80
50.410       140
50.420        67
50.430       100
50.440        67
50.450       107
50.460        93
50.470       113
50.480       107
50.490       100
50.500        80
50.510       127
50.520        80
50.530        93
50.540        73
50.550        80
50.560        80
50.570        73
50.580        80
50.590        53
50.600       127
50.610        60
50.620       147
50.630        80
50.640        73
50.650        27
50.660       100
50.670        93
50.680       113
50.690        53
50.700        47
50.710        27
50.720        80
50.730        60
50.740        53
50.750        73
50.760        60
50.770        87
50.780        80
50.790        73
50.800        87
50.810        87
50.820        73
50.830        47
50.840        80
50.850       113
50.860        60
50.870       100
50.880        33
50.890       100
50.900        53
50.910        93
50.920       107
50.930        67
50.940        53
50.950        73
50.960       133
50.970        73
50.980        87
50.990       100
51.000        60
51.010        80
51.020        87
51.030        93
51.040        80
51.050       120
51.060        73
51.070        93
51.080        87
51.090        60
51.100        87
51.110       100
51.120       127
51.130       100
51.140        67
51.150        73
51.160        87
51.170       120
51.180       120
51.190        80
51.200        73
51.210        93
51.220        60
51.230        53
51.240        93
51.250        73
51.260       100
51.270        87
51.280        93
51.290        87
51.300        80
51.310        67
51.320        87
51.330        60
51.340        47
51.350        67
51.360        53
51.370        53
51.380        73
51.390       127
51.400        80
51.410       113
51.420        73
51.430       120
51.440        40
51.450        40
51.460       100
51.470       100
51.480       120
51.490        60
51.500        33
51.510        60
51.520        67
51.530        87
51.540        87
51.550        93
51.560        53
51.570        53
51.580       100
51.590        80
51.600       100
51.610       120
51.620        87
51.630        53
51.640        53
51.650        87
51.660       100
51.670        40
51.680        67
51.690        27
51.700       113
51.710        80
51.720        93
51.730        93
51.740       107
51.750        73
51.760        87
51.770        87
51.780        93
51.790       127
51.800        60
51.810       107
51.820        87
51.830        93
51.840        93
51.850        60
51.860        40
51.870        67
51.880       120
51.890        60
51.900        87
51.910       120
51.920        53
51.930        47
51.940        80
51.950        87
51.960       113
51.970        93
51.980        80
51.990        73
52.000        73
52.010        73
52.020        93
52.030        67
52.040        73
52.050        93
52.060        87
52.070        73
52.080       107
52.090       120
52.100       100
52.110       100
52.120        53
52.130        93
52.140        87
52.150        47
52.160       100
52.170        93
52.180        60
52.190        80
52.200        87
52.210       113
52.220       113
52.230        87
52.240        80
52.250        80
52.260       127
52.270        80
52.280        60
52.290       107
52.300        27
52.310       113
52.320       120
52.330        87
52.340        80
52.350        73
52.360       113
52.370        80
52.380        93
52.390        40
52.400        73
52.410        60
52.420        87
52.430        60
52.440        60
52.450        87
52.460        60
52.470        73
52.480        60
52.490       140
52.500        33
52.510       127
52.520        60
52.530        87
52.540        67
52.550        87
52.560        80
52.570        87
52.580       120
52.590        87
52.600        80
52.610        67
52.620        60
52.630        73
52.640        93
52.650        73
52.660        73
52.670        87
52.680        73
52.690        93
52.700        93
52.710        67
52.720       100
52.730       120
52.740       100
52.750        80
52.760       113
52.770        80
52.780        87
52.790        67
52.800        73
52.810        40
52.820       100
52.830        73
52.840        60
52.850       140
52.860        67
52.870        47
52.880       133
52.890        40
52.900        87
52.910        73
52.920       120
52.930        73
52.940        93
52.950        60
52.960        67
52.970        87
52.980       100
52.990       120
53.000        27
53.010        80
53.020        93
53.030       100
53.040        67
53.050        73
53.060        60
53.070        80
53.080        47
53.090       113
53.100        80
53.110        93
53.120        80
53.130       140
53.140       120
53.150        87
53.160       107
53.170        40
53.180        87
53.190        73
53.200        60
53.210        47
53.220        80
53.230        73
53.240       107
53.250        60
53.260        40
53.270        53
53.280        93
53.290        93
53.300        60
53.310       107
53.320        67
53.330        53
53.340        80
53.350        93
53.360        87
53.370        73
53.380        60
53.390       100
53.400        93
53.410        60
53.420        67
53.430        80
53.440        40
53.450        80
53.460        80
53.470        53
53.480       100
53.490       113
53.500        53
53.510        80
53.520        33
53.530        87
53.540        67
53.550       127
53.560        47
53.570        47
53.580        53
53.590        80
53.600        73
53.610       113
53.620        93
53.630       127
53.640        60
53.650        40
53.660        27
53.670        47
53.680        53
53.690        93
53.700        73
53.710        73
53.720        87
53.730        87
53.740        60
53.750        93
53.760        80
53.770        80
53.780        73
53.790       107
53.800       133
53.810        87
53.820       113
53.830       140
53.840       107
53.850        80
53.860       133
53.870        67
53.880        60
53.890        73
53.900       100
53.910        87
53.920        87
53.930        47
53.940        87
53.950       127
53.960        80
53.970        80
53.980        80
53.990        87
54.000        53
54.010        80
54.020        87
54.030        80
54.040        93
54.050        73
54.060        60
54.070        80
54.080        47
54.090       140
54.100        53
54.110        33
54.120        93
54.130        67
54.140        47
54.150        73
54.160        80
54.170       100
54.180        87
54.190        80
54.200        53
54.210        73
54.220        80
54.230        93
54.240        87
54.250        53
54.260        47
54.270        47
54.280        80
54.290        67
54.300        80
54.310        73
54.320        73
54.330        60
54.340        67
54.350        73
54.360        87
54.370        73
54.380        87
54.390        53
54.400       100
54.410        87
54.420       113
54.430       107
54.440        80
54.450        80
54.460        67
54.470        93
54.480        60
54.490       140
54.500        93
54.510        67
54.520        80
54.530        87
54.540        47
54.550        73
54.560        67
54.570        73
54.580        80
54.590        87
54.600        40
54.610        40
54.620       113
54.630        47
54.640        73
54.650       120
54.660        73
54.670        67
54.680        80
54.690        87
54.700        53
54.710        33
54.720        80
54.730       127
54.740        93
54.750       153
54.760        40
54.770        73
54.780        60
54.790        80
54.800        87
54.810        80
54.820        80
54.830        27
54.840       107
54.850        80
54.860        87
54.870        60
54.880       120
54.890       100
54.900       100
54.910        33
54.920       120
54.930        53
54.940       100
54.950        60
54.960       120
54.970        80
54.980        87
54.990        60
55.000        80
55.010        73
55.020        87
55.030        60
55.040        80
55.050        53
55.060       120
55.070        93
55.080        73
55.090        73
55.100        53
55.110        80
55.120        60
55.130       100
55.140       153
55.150        80
55.160        87
55.170       107
55.180        60
55.190        47
55.200        87
55.210       133
55.220       107
55.230        73
55.240       100
55.250       113
55.260       140
55.270        53
55.280        93
55.290        87
55.300       147
55.310       133
55.320       160
55.330       167
55.340       107
55.350       167
55.360       173
55.370       160
55.380       207
55.390       213
55.400       187
55.410       220
55.420       253
55.430       307
55.440       247
55.450       267
55.460       260
55.470       193
55.480       287
55.490       367
55.500       247
55.510       280
55.520       267
55.530       227
55.540       213
55.550       273
55.560       267
55.570       253
55.580       227
55.590       207
55.600       173
55.610       260
55.620       253
55.630       260
55.640       227
55.650       233
55.660       207
55.670       160
55.680       160
55.690       260
55.700       160
55.710       193
55.720       147
55.730       120
55.740       127
55.750       140
55.760       193
55.770        73
55.780        93
55.790        93
55.800       127
55.810       193
55.820       100
55.830       100
55.840        60
55.850       107
55.860        60
55.870        67
55.880       113
55.890        93
55.900        73
55.910       100
55.920        87
55.930        73
55.940       133
55.950        93
55.960        73
55.970        60
55.980        47
55.990        73
56.000        73
56.010       107
56.020       100
56.030        53
56.040        67
56.050       120
56.060       147
56.070        80
56.080        60
56.090        53
56.100       107
56.110        33
56.120        73
56.130        53
56.140        87
56.150        53
56.160        67
56.170       133
56.180        73
56.190       107
56.200        87
56.210       100
56.220        53
56.230        80
56.240        93
56.250        67
56.260       100
56.270        93
56.280        87
56.290        73
56.300        73
56.310        73
56.320        93
56.330        40
56.340        53
56.350       107
56.360       100
56.370        60
56.380        53
56.390        87
56.400        80
56.410       113
56.420        40
56.430       113
56.440        40
56.450        67
56.460       120
56.470        27
56.480        47
56.490        47
56.500       100
56.510        93
56.520       100
56.530        73
56.540       113
56.550        53
56.560        87
56.570        47
56.580        47
56.590        67
56.600       120
56.610        53
56.620        73
56.630        60
56.640        73
56.650        60
56.660        73
56.670        67
56.680        47
56.690        60
56.700        33
56.710        73
56.720        87
56.730        87
56.740        60
56.750        67
56.760        53
56.770        60
56.780       100
56.790        40
56.800        67
56.810       107
56.820        67
56.830        67
56.840        60
56.850       100
56.860        67
56.870        93
56.880        40
56.890        60
56.900       100
56.910        67
56.920        47
56.930        73
56.940        53
56.950        60
56.960        73
56.970        80
56.980        53
56.990       107
57.000        80
57.010       100
57.020        60
57.030        53
57.040        93
57.050        93
57.060        53
57.070        60
57.080        60
57.090        73
57.100        53
57.110        53
57.120       127
57.130        47
57.140        87
57.150        60
57.160        87
57.170        80
57.180       113
57.190        93
57.200        67
57.210        73
57.220        47
57.230        93
57.240        47
57.250        93
57.260       100
57.270       100
57.280        93
57.290        67
57.300        93
57.310        67
57.320       120
57.330        67
57.340        67
57.350        67
57.360        80
57.370       107
57.380        67
57.390       127
57.400        80
57.410       113
57.420        67
57.430        67
57.440        87
57.450        33
57.460        93
57.470       120
57.480        60
57.490        53
57.500        80
57.510       107
57.520        80
57.530        27
57.540        87
57.550        87
57.560        80
57.570       100
57.580        73
57.590        67
57.600        73
57.610        67
57.620       100
57.630        60
57.640        60
57.650        40
57.660        87
57.670        60
57.680        53
57.690        67
57.700        80
57.710        87
57.720        47
57.730        87
57.740        40
57.750        67
57.760        73
57.770        47
57.780        67
57.790        80
57.800        73
57.810        33
57.820        20
57.830       100
57.840        60
57.850        73
57.860        87
57.870        80
57.880        87
57.890        27
57.900        67
57.910        67
57.920        80
57.930        73
57.940        60
57.950       113
57.960        87
57.970        80
57.980        80
57.990        93
58.000        87
58.010        67
58.020        93
58.030        53
58.040       127
58.050       107
58.060        60
58.070        40
58.080        53
58.090        47
58.100        60
58.110        73
58.120        93
58.130        73
58.140        73
58.150        73
58.160        67
58.170        87
58.180        87
58.190        67
58.200        60
58.210        80
58.220        60
58.230        87
58.240        73
58.250        73
58.260        67
58.270        60
58.280        53
58.290        80
58.300       100
58.310       120
58.320        93
58.330        80
58.340        40
58.350        47
58.360       113
58.370        80
58.380        27
58.390        80
58.400        93
58.410        93
58.420        53
58.430        53
58.440        73
58.450       140
58.460        33
58.470        53
58.480        67
58.490        53
58.500        87
58.510        33
58.520       100
58.530        60
58.540        73
58.550        93
58.560         7
58.570        67
58.580        40
58.590        33
58.600        67
58.610        87
58.620        53
58.630        87
58.640        67
58.650        67
58.660        67
58.670        33
58.680        47
58.690        53
58.700        80
58.710        60
58.720        67
58.730        80
58.740        73
58.750        93
58.760        87
58.770        93
58.780        53
58.790        47
58.800        33
58.810        47
58.820        93
58.830        73
58.840        20
58.850        87
58.860        60
58.870        67
58.880        67
58.890        53
58.900        47
58.910       120
58.920        93
58.930        73
58.940        60
58.950       113
58.960        60
58.970        33
58.980        73
58.990        67
59.000        73
59.010        80
59.020        67
59.030        47
59.040        73
59.050        93
59.060        53
59.070        80
59.080        40
59.090        33
59.100        40
59.110        53
59.120        47
59.130        33
59.140       107
59.150        60
59.160        67
59.170        73
59.180        47
59.190        80
59.200        40
59.210        67
59.220        73
59.230        73
59.240        40
59.250        67
59.260       113
59.270        33
59.280        47
59.290        40
59.300        73
59.310        80
59.320        60
59.330        73
59.340        93
59.350        67
59.360        47
59.370        53
59.380        87
59.390        27
59.400       100
59.410        67
59.420        53
59.430       113
59.440        53
59.450        87
59.460        93
59.470        93
59.480       100
59.490        33
59.500        60
59.510       100
59.520        60
59.530        40
59.540        60
59.550        33
59.560        67
59.570        60
59.580        53
59.590        40
59.600        80
59.610        93
59.620        53
59.630        67
59.640        47
59.650        67
59.660        93
59.670        27
59.680        40
59.690        47
59.700        67
59.710        73
59.720        53
59.730        40
59.740        27
59.750        73
59.760        93
59.770        60
59.780        60
59.790        47
59.800        73
59.810        87
59.820        47
59.830        60
59.840        60
59.850        67
59.860        80
59.870        53
59.880        73
59.890        47
59.900        67
59.910        47
59.920        47
59.930        87
59.940        40
59.950        73
59.960        80
59.970        47
59.980        80
59.990        20
60.000        20
