20.000        53
20.010        53
20.020        80
20.030        20
20.040        47
20.050        20
20.060        60
20.070        27
20.080        33
20.090        40
20.100        53
20.110        47
20.120        47
20.130        33
20.140        33
20.150        80
20.160        53
20.170        27
20.180        40
20.190        60
20.200        33
20.210        13
20.220        47
20.230        47
20.240        93
20.250        33
20.260        33
20.270        33
20.280        33
20.290        20
20.300        40
20.310        27
20.320        80
20.330        33
20.340        60
20.350        40
20.360        33
20.370        53
20.380        20
20.390        47
20.400        53
20.410        40
20.420        40
20.430        13
20.440        33
20.450        47
20.460        20
20.470        40
20.480        40
20.490        27
20.500        47
20.510        47
20.520        67
20.530        33
20.540        47
20.550        67
20.560        27
20.570        27
20.580        27
20.590        33
20.600        53
20.610        33
20.620        40
20.630        27
20.640        47
20.650        67
20.660        33
20.670        40
20.680        47
20.690       100
20.700        73
20.710        53
20.720        40
20.730        47
20.740        53
20.750        40
20.760        27
20.770        60
20.780         7
20.790        47
20.800        27
20.810        33
20.820        27
20.830        60
20.840        53
20.850        53
20.860        40
20.870        13
20.880        47
20.890        47
20.900        33
20.910        33
20.920        27
20.930        13
20.940        40
20.950        67
20.960        47
20.970        60
20.980        40
20.990        60
21.000        20
21.010        47
21.020        20
21.030        87
21.040        33
21.050        33
21.060        33
21.070        60
21.080        27
21.090        47
21.100        40
21.110        47
21.120        53
21.130        47
21.140        27
21.150        60
21.160        53
21.170        33
21.180        53
21.190        60
21.200        53
21.210        47
21.220        33
21.230        27
21.240        40
21.250        67
21.260        47
21.270        67
21.280        13
21.290        33
21.300        47
21.310        27
21.320        33
21.330        40
21.340        27
21.350        33
21.360        53
21.370        33
21.380        40
21.390        47
21.400        20
21.410        47
21.420        20
21.430        13
21.440        33
21.450        40
21.460        47
21.470        20
21.480        87
21.490        40
21.500        47
21.510        33
21.520         0
21.530        80
21.540        53
21.550        47
21.560        20
21.570         7
21.580        20
21.590        47
21.600        80
21.610        67
21.620        13
21.630        20
21.640        33
21.650        33
21.660        20
21.670        13
21.680        67
21.690        33
21.700        33
21.710        20
21.720        33
21.730        67
21.740        13
21.750        40
21.760        80
21.770        27
21.780        53
21.790        13
21.800         7
21.810        80
21.820        47
21.830        60
21.840        27
21.850        33
21.860        87
21.870        40
21.880        33
21.890        27
21.900        33
21.910        40
21.920        47
21.930        53
21.940        80
21.950        87
21.960        73
21.970        60
21.980        53
21.990        73
22.000        53
22.010       107
22.020        40
22.030       153
22.040        80
22.050        40
22.060        73
22.070        87
22.080        87
22.090        87
22.100        93
22.110        93
22.120        80
22.130        60
22.140       107
22.150        73
22.160        93
22.170        53
22.180        93
22.190        27
22.200        27
22.210        80
22.220        60
22.230        40
22.240        27
22.250        27
22.260        33
22.270        40
22.280        53
22.290        27
22.300        60
22.310        27
22.320        40
22.330        27
22.340        47
22.350        47
22.360        33
22.370        53
22.380        20
22.390        47
22.400        47
22.410        40
22.420        27
22.430        27
22.440        73
22.450        20
22.460        20
22.470        40
22.480        60
22.490        27
22.500        13
22.510        33
22.520        40
22.530        40
22.540        27
22.550        60
22.560        33
22.570        20
22.580        40
22.590        47
22.600        27
22.610        27
22.620        13
22.630        20
22.640        20
22.650        40
22.660        40
22.670        47
22.680        73
22.690        47
22.700        60
22.710        27
22.720        33
22.730        40
22.740        53
22.750        33
22.760        20
22.770        33
22.780        27
22.790        27
22.800        40
22.810        33
22.820        47
22.830        33
22.840        20
22.850        27
22.860        53
22.870        40
22.880        33
22.890        27
22.900        13
22.910        27
22.920        47
22.930        33
22.940        33
22.950        47
22.960        33
22.970        53
22.980        13
22.990        80
23.000        47
23.010        47
23.020        67
23.030        27
23.040        27
23.050        40
23.060        20
23.070        40
23.080        67
23.090        53
23.100        27
23.110        40
23.120        27
23.130        33
23.140        60
23.150        33
23.160        27
23.170        27
23.180        27
23.190        40
23.200        27
23.210        40
23.220        40
23.230        33
23.240        20
23.250        33
23.260        40
23.270        53
23.280        27
23.290        40
23.300        20
23.310        33
23.320        33
23.330        27
23.340        53
23.350        73
23.360        67
23.370         7
23.380        20
23.390         7
23.400        60
23.410        47
23.420        20
23.430        27
23.440        27
23.450        27
23.460        20
23.470        47
23.480        60
23.490        67
23.500        47
23.510        67
23.520        40
23.530        53
23.540        40
23.550        27
23.560        47
23.570         7
23.580        53
23.590        20
23.600        40
23.610        13
23.620         7
23.630        47
23.640        20
23.650        13
23.660        33
23.670        20
23.680        33
23.690        33
23.700        40
23.710        53
23.720        20
23.730        20
23.740        60
23.750        20
23.760        40
23.770        33
23.780        27
23.790        20
23.800        40
23.810        33
23.820        20
23.830        20
23.840        53
23.850        67
23.860         7
23.870        20
23.880        53
23.890        27
23.900        20
23.910        33
23.920        20
23.930        67
23.940        20
23.950        40
23.960        20
23.970        27
23.980        13
23.990        47
24.000        27
24.010        20
24.020        13
24.030        53
24.040        33
24.050        33
24.060        13
24.070        13
24.080        40
24.090        27
24.100        53
24.110        13
24.120         7
24.130        47
24.140        53
24.150        27
24.160        20
24.170        27
24.180        40
24.190        40
24.200        20
24.210        40
24.220        27
24.230        40
24.240        73
24.250        27
24.260        33
24.270         7
24.280        40
24.290        40
24.300        20
24.310         7
24.320        20
24.330        33
24.340        40
24.350        40
24.360        47
24.370        33
24.380        40
24.390         7
24.400        47
24.410        20
24.420        53
24.430        40
24.440        40
24.450        53
24.460        13
24.470        20
24.480        47
24.490        53
24.500        40
24.510        47
24.520        20
24.530        53
24.540        27
24.550        20
24.560        53
24.570        13
24.580        40
24.590        20
24.600        27
24.610        47
24.620        20
24.630        47
24.640        47
24.650        60
24.660        67
24.670        67
24.680        27
24.690        60
24.700        33
24.710        33
24.720        27
24.730        27
24.740        33
24.750        47
24.760        27
24.770        27
24.780        27
24.790        40
24.800        53
24.810        13
24.820        20
24.830        40
24.840        33
24.850        27
24.860        40
24.870        27
24.880        27
24.890        53
24.900        40
24.910        40
24.920         7
24.930        47
24.940        33
24.950        33
24.960        60
24.970        40
24.980        60
24.990        27
25.000        53
25.010        13
25.020        40
25.030        27
25.040        13
25.050         7
25.060        33
25.070        53
25.080        13
25.090        47
25.100        27
25.110        13
25.120        47
25.130        20
25.140        53
25.150        40
25.160        20
25.170        47
25.180        20
25.190        33
25.200        27
25.210        13
25.220        20
25.230        60
25.240        53
25.250        20
25.260        27
25.270        33
25.280        33
25.290        47
25.300        27
25.310        47
25.320        13
25.330        53
25.340        40
25.350        13
25.360        33
25.370        47
25.380        40
25.390        33
25.400        20
25.410        40
25.420         7
25.430        20
25.440        33
25.450        27
25.460        33
25.470        33
25.480        53
25.490        60
25.500        60
25.510         7
25.520         7
25.530        27
25.540        27
25.550        47
25.560        27
25.570        33
25.580        60
25.590        40
25.600        33
25.610        40
25.620        33
25.630        33
25.640        47
25.650        13
25.660        47
25.670        33
25.680        27
25.690        33
25.700        27
25.710         7
25.720        27
25.730        33
25.740        27
25.750        47
25.760        13
25.770        47
25.780        87
25.790        20
25.800        27
25.810        33
25.820        27
25.830        33
25.840        20
25.850        40
25.860        27
25.870        20
25.880        20
25.890        20
25.900        20
25.910        47
25.920         7
25.930        33
25.940        53
25.950        27
25.960        47
25.970        27
25.980        47
25.990        27
26.000        27
26.010        27
26.020        47
26.030        40
26.040        20
26.050        13
26.060        40
26.070        13
26.080        47
26.090        33
26.100        27
26.110        20
26.120        60
26.130        40
26.140        27
26.150         0
26.160        13
26.170        13
26.180        33
26.190        27
26.200        20
26.210        13
26.220        40
26.230        27
26.240        27
26.250        27
26.260        33
26.270         7
26.280        33
26.290        27
26.300        20
26.310        27
26.320        13
26.330        20
26.340        33
26.350        20
26.360        40
26.370         7
26.380        27
26.390        13
26.400        20
26.410         7
26.420        27
26.430        13
26.440        40
26.450        33
26.460        27
26.470        33
26.480        33
26.490        33
26.500        13
26.510        27
26.520        40
26.530        27
26.540        20
26.550        47
26.560        13
26.570        27
26.580        33
26.590        47
26.600        20
26.610        40
26.620        47
26.630        27
26.640        13
26.650        20
26.660        20
26.670        20
26.680        13
26.690        20
26.700        20
26.710        20
26.720        40
26.730        27
26.740        20
26.750        40
26.760        33
26.770        20
26.780        47
26.790        40
26.800        33
26.810        27
26.820        33
26.830        27
26.840        27
26.850        53
26.860        33
26.870        33
26.880        20
26.890        13
26.900        40
26.910        20
26.920        13
26.930        33
26.940        33
26.950        33
26.960        47
26.970         7
26.980        13
26.990        33
27.000        40
27.010        20
27.020        33
27.030        13
27.040        20
27.050         7
27.060        53
27.070        33
27.080        27
27.090        20
27.100        13
27.110        20
27.120        33
27.130        13
27.140        27
27.150        20
27.160         7
27.170        27
27.180        40
27.190         7
27.200        20
27.210        13
27.220        13
27.230        60
27.240        20
27.250        27
27.260        40
27.270        13
27.280        20
27.290        40
27.300        20
27.310        47
27.320        20
27.330        53
27.340        33
27.350        27
27.360        60
27.370        13
27.380        33
27.390        33
27.400        33
27.410        53
27.420        20
27.430        40
27.440        27
27.450        33
27.460        27
27.470        33
27.480        20
27.490        27
27.500        33
27.510        27
27.520        20
27.530        47
27.540        20
27.550        33
27.560        27
27.570        20
27.580        33
27.590        27
27.600        27
27.610        27
27.620        27
27.630        33
27.640        20
27.650        33
27.660        33
27.670        27
27.680        47
27.690        33
27.700        40
27.710        40
27.720        13
27.730        33
27.740        20
27.750        27
27.760        47
27.770        53
27.780        40
27.790        33
27.800        20
27.810        20
27.820        27
27.830        27
27.840        20
27.850        27
27.860        40
27.870        40
27.880         0
27.890        27
27.900        40
27.910        20
27.920        53
27.930        40
27.940        27
27.950        33
27.960        33
27.970         7
27.980        33
27.990        80
28.000        13
28.010        33
28.020        40
28.030        20
28.040        20
28.050        27
28.060        40
28.070        27
28.080        13
28.090        20
28.100        33
28.110        20
28.120        40
28.130        33
28.140        40
28.150        33
28.160        60
28.170        13
28.180        47
28.190        40
28.200        33
28.210        53
28.220        40
28.230        13
28.240        53
28.250        40
28.260        20
28.270        20
28.280        40
28.290        20
28.300        27
28.310        27
28.320        20
28.330        33
28.340        53
28.350        47
28.360        33
28.370         0
28.380        33
28.390        27
28.400        53
28.410        33
28.420        20
28.430        27
28.440        20
28.450        33
28.460         7
28.470        40
28.480        27
28.490        33
28.500        40
28.510        20
28.520        27
28.530        33
28.540        40
28.550        27
28.560         7
28.570         7
28.580        33
28.590        33
28.600        40
28.610        53
28.620        27
28.630        27
28.640        33
28.650        27
28.660        33
28.670         7
28.680        47
28.690        13
28.700        33
28.710        27
28.720        27
28.730        27
28.740        27
28.750        27
28.760        27
28.770        20
28.780        40
28.790        33
28.800        33
28.810        47
28.820        33
28.830        40
28.840        40
28.850        27
28.860         7
28.870        33
28.880        27
28.890        20
28.900        27
28.910        20
28.920         7
28.930        47
28.940        33
28.950        33
28.960        40
28.970        27
28.980        47
28.990        27
29.000        40
29.010        20
29.020        20
29.030        20
29.040        40
29.050         0
29.060        13
29.070        27
29.080        40
29.090        27
29.100        53
29.110        40
29.120        47
29.130        27
29.140        60
29.150        47
29.160        27
29.170        27
29.180        20
29.190        13
29.200        13
29.210         7
29.220        20
29.230        40
29.240        27
29.250        20
29.260        20
29.270        20
29.280         7
29.290        33
29.300        27
29.310        27
29.320        47
29.330        33
29.340         7
29.350        40
29.360        20
29.370        40
29.380         7
29.390        27
29.400        33
29.410        27
29.420        27
29.430         7
29.440        27
29.450        20
29.460        13
29.470        13
29.480        40
29.490        27
29.500        20
29.510        47
29.520        27
29.530         7
29.540        27
29.550        20
29.560        20
29.570        27
29.580        27
29.590        40
29.600        27
29.610        33
29.620        27
29.630        27
29.640         7
29.650        27
29.660        13
29.670        33
29.680        47
29.690        33
29.700        40
29.710        13
29.720        13
29.730        33
29.740        20
29.750        27
29.760        20
29.770        13
29.780        13
29.790        13
29.800        27
29.810        40
29.820        33
29.830        27
29.840        47
29.850        20
29.860        27
29.870         7
29.880        33
29.890        20
29.900        33
29.910         7
29.920        27
29.930        27
29.940        47
29.950        40
29.960        33
29.970         7
29.980        20
29.990        13
30.000        33
30.010        13
30.020        27
30.030        13
30.040        33
30.050        40
30.060        13
30.070        40
30.080        13
30.090        33
30.100        20
30.110        33
30.120        33
30.130        20
30.140        13
30.150        33
30.160         7
30.170        27
30.180        40
30.190        20
30.200        13
30.210        27
30.220        33
30.230        27
30.240        20
30.250        53
30.260        53
30.270        40
30.280        27
30.290        13
30.300        40
30.310        27
30.320        40
30.330        27
30.340        73
30.350         7
30.360        13
30.370        20
30.380        20
30.390        20
30.400        27
30.410        27
30.420         7
30.430        33
30.440         7
30.450         7
30.460        60
30.470         7
30.480        27
30.490        33
30.500        13
30.510        27
30.520        13
30.530        20
30.540        33
30.550        20
30.560        20
30.570        27
30.580        20
30.590        13
30.600        13
30.610        40
30.620        40
30.630        27
30.640        13
30.650         7
30.660        27
30.670        20
30.680        33
30.690        40
30.700        33
30.710        47
30.720        27
30.730        27
30.740        40
30.750        47
30.760        27
30.770        20
30.780        27
30.790        13
30.800        20
30.810        40
30.820        20
30.830        27
30.840        20
30.850        20
30.860         7
30.870        27
30.880        13
30.890        40
30.900        60
30.910        40
30.920        27
30.930        27
30.940        13
30.950        33
30.960        20
30.970         7
30.980        13
30.990        33
31.000        20
31.010        13
31.020        33
31.030        20
31.040        40
31.050        27
31.060        27
31.070        33
31.080        13
31.090        33
31.100        20
31.110        20
31.120        53
31.130        13
31.140        27
31.150        13
31.160        67
31.170        20
31.180        53
31.190        40
31.200        67
31.210        87
31.220        27
31.230        60
31.240        47
31.250        93
31.260        47
31.270        60
31.280        53
31.290        53
31.300        73
31.310       113
31.320       120
31.330        67
31.340        67
31.350       127
31.360       133
31.370        73
31.380       133
31.390        87
31.400        73
31.410       107
31.420       113
31.430       107
31.440        93
31.450       107
31.460        93
31.470        60
31.480        67
31.490        60
31.500        27
31.510        47
31.520        53
31.530        67
31.540        40
31.550        53
31.560        47
31.570        20
31.580        53
31.590        53
31.600        47
31.610        40
31.620        20
31.630        47
31.640        27
31.650        27
31.660        40
31.670        33
31.680        40
31.690        47
31.700        20
31.710        13
31.720        13
31.730        33
31.740        27
31.750        20
31.760        20
31.770        20
31.780         7
31.790        33
31.800        27
31.810        33
31.820        27
31.830        20
31.840        27
31.850        13
31.860        33
31.870        13
31.880        27
31.890        20
31.900        33
31.910        33
31.920        27
31.930         7
31.940        20
31.950         7
31.960        27
31.970        13
31.980        33
31.990        13
32.000        27
32.010         7
32.020        47
32.030        27
32.040        27
32.050        33
32.060         7
32.070        33
32.080        27
32.090        13
32.100        40
32.110        20
32.120        13
32.130         7
32.140        20
32.150        20
32.160        33
32.170        27
32.180        27
32.190        27
32.200        20
32.210        53
32.220        20
32.230        13
32.240        33
32.250        20
32.260        60
32.270        13
32.280        20
32.290         7
32.300        13
32.310         0
32.320        13
32.330        27
32.340         0
32.350        13
32.360        20
32.370        40
32.380        27
32.390        60
32.400        33
32.410        13
32.420        27
32.430        13
32.440        20
32.450        47
32.460        47
32.470         7
32.480        40
32.490        13
32.500        27
32.510        27
32.520        33
32.530        13
32.540        27
32.550        33
32.560        27
32.570        13
32.580        13
32.590         7
32.600        27
32.610        40
32.620        20
32.630        27
32.640        20
32.650        27
32.660         0
32.670        27
32.680        27
32.690        20
32.700        27
32.710        47
32.720        33
32.730        33
32.740        13
32.750        13
32.760         7
32.770        13
32.780        27
32.790        27
32.800        13
32.810        20
32.820        27
32.830        20
32.840        20
32.850        40
32.860        27
32.870        13
32.880        13
32.890        13
32.900         0
32.910        27
32.920        40
32.930        20
32.940         7
32.950        27
32.960        27
32.970        27
32.980        20
32.990        20
33.000        53
33.010        33
33.020        13
33.030        20
33.040        40
33.050         7
33.060        27
33.070        33
33.080        47
33.090         0
33.100        13
33.110        47
33.120        20
33.130        13
33.140        27
33.150        20
33.160         7
33.170        13
33.180        20
33.190        13
33.200        13
33.210         7
33.220        40
33.230        33
33.240        40
33.250        20
33.260        33
33.270        27
33.280        27
33.290        33
33.300        27
33.310        33
33.320         7
33.330        33
33.340        20
33.350        33
33.360        40
33.370        27
33.380        20
33.390        20
33.400        20
33.410        27
33.420        13
33.430        13
33.440         7
33.450        20
33.460         7
33.470         7
33.480        27
33.490        27
33.500        33
33.510        33
33.520        40
33.530         0
33.540        20
33.550        27
33.560        33
33.570        47
33.580        33
33.590        13
33.600        33
33.610        40
33.620        20
33.630        20
33.640        20
33.650        20
33.660        20
33.670         7
33.680        20
33.690        20
33.700        27
33.710        27
33.720        27
33.730        20
33.740        13
33.750        20
33.760        27
33.770        40
33.780         7
33.790        47
33.800         7
33.810        33
33.820        33
33.830        33
33.840        20
33.850        33
33.860        13
33.870        13
33.880        33
33.890         7
33.900        27
33.910        20
33.920        13
33.930        33
33.940         7
33.950        33
33.960         7
33.970        33
33.980        27
33.990        20
34.000        20
34.010        20
34.020        20
34.030        13
34.040        13
34.050        33
34.060        33
34.070         7
34.080        33
34.090         0
34.100        13
34.110        33
34.120        27
34.130        27
34.140         7
34.150         7
34.160         7
34.170        27
34.180        13
34.190        27
34.200        13
34.210        20
34.220        13
34.230        47
34.240         0
34.250        13
34.260        20
34.270        27
34.280        40
34.290        33
34.300        13
34.310        27
34.320        27
34.330        27
34.340        27
34.350        33
34.360         7
34.370        13
34.380        27
34.390         7
34.400        13
34.410        27
34.420        13
34.430        27
34.440        20
34.450        13
34.460        27
34.470        13
34.480        20
34.490         7
34.500        13
34.510        27
34.520         7
34.530        27
34.540        13
34.550        40
34.560        20
34.570        20
34.580        13
34.590        33
34.600         7
34.610        20
34.620        13
34.630        20
34.640        40
34.650         7
34.660         7
34.670         0
34.680        27
34.690        13
34.700        27
34.710        27
34.720        27
34.730         0
34.740        27
34.750        20
34.760        20
34.770        27
34.780         7
34.790         7
34.800        47
34.810        40
34.820        27
34.830        20
34.840        13
34.850        33
34.860         7
34.870         7
34.880        40
34.890        40
34.900        13
34.910        27
34.920        33
34.930        13
34.940        13
34.950        53
34.960         7
34.970        27
34.980        40
34.990        13
35.000        20
35.010        33
35.020        27
35.030        13
35.040        53
35.050        33
35.060        67
35.070        47
35.080        20
35.090        47
35.100        20
35.110        53
35.120        27
35.130        53
35.140        40
35.150        40
35.160        93
35.170        67
35.180       113
35.190        53
35.200        67
35.210        27
35.220        60
35.230        67
35.240        53
35.250        40
35.260        53
35.270        47
35.280        80
35.290        47
35.300        27
35.310        33
35.320        33
35.330        20
35.340        33
35.350        20
35.360        33
35.370        27
35.380        33
35.390        13
35.400        27
35.410        13
35.420        33
35.430        20
35.440        33
35.450        27
35.460        27
35.470        53
35.480        13
35.490        20
35.500        20
35.510        20
35.520        13
35.530        20
35.540        13
35.550        53
35.560        40
35.570         0
35.580        33
35.590         7
35.600         7
35.610        20
35.620        27
35.630        20
35.640        13
35.650        20
35.660        13
35.670        13
35.680        13
35.690        20
35.700         7
35.710         7
35.720        27
35.730        20
35.740        20
35.750        27
35.760        27
35.770        33
35.780        13
35.790         7
35.800        20
35.810        20
35.820         7
35.830        13
35.840        13
35.850        40
35.860        13
35.870        20
35.880        33
35.890        33
35.900        13
35.910        47
35.920        27
35.930         7
35.940         7
35.950        20
35.960         7
35.970        13
35.980        47
35.990         7
36.000        13
36.010        20
36.020        27
36.030        20
36.040        33
36.050        20
36.060        13
36.070         7
36.080        27
36.090        40
36.100        13
36.110        13
36.120         7
36.130        20
36.140        13
36.150        33
36.160         7
36.170         7
36.180         7
36.190        27
36.200         7
36.210        13
36.220        13
36.230        20
36.240        13
36.250        40
36.260        13
36.270        27
36.280        27
36.290         7
36.300        27
36.310        20
36.320        13
36.330        20
36.340        20
36.350        13
36.360        13
36.370        20
36.380        13
36.390        13
36.400        13
36.410        27
36.420        20
36.430         7
36.440        20
36.450        20
36.460        13
36.470        27
36.480        13
36.490        33
36.500        20
36.510        27
36.520        20
36.530        27
36.540         7
36.550        13
36.560        13
36.570        27
36.580        27
36.590        20
36.600        27
36.610        40
36.620        13
36.630         7
36.640        33
36.650         0
36.660        13
36.670        13
36.680        13
36.690        13
36.700        13
36.710        27
36.720         0
36.730        13
36.740        47
36.750        40
36.760        13
36.770         7
36.780        13
36.790        13
36.800         0
36.810        40
36.820         0
36.830        33
36.840        27
36.850        13
36.860         7
36.870        13
36.880         7
36.890        27
36.900        20
36.910         7
36.920        27
36.930        13
36.940         0
36.950        20
36.960        20
36.970         7
36.980         0
36.990        27
37.000         7
37.010        27
37.020        27
37.030        20
37.040        20
37.050        13
37.060         7
37.070        20
37.080        20
37.090        20
37.100        27
37.110         7
37.120        20
37.130        40
37.140        20
37.150        13
37.160        20
37.170         0
37.180        13
37.190        20
37.200        27
37.210        13
37.220        33
37.230         0
37.240        27
37.250        20
37.260        27
37.270         7
37.280        33
37.290        20
37.300        20
37.310        20
37.320         7
37.330        20
37.340         7
37.350        27
37.360         7
37.370        27
37.380        20
37.390         0
37.400        27
37.410         7
37.420        13
37.430        20
37.440        73
37.450        33
37.460         7
37.470        27
37.480         0
37.490        27
37.500        13
37.510        27
37.520        33
37.530        27
37.540        20
37.550        13
37.560        40
37.570        20
37.580        27
37.590         7
37.600        13
37.610         7
37.620        40
37.630        27
37.640        13
37.650        13
37.660         7
37.670        27
37.680         7
37.690        33
37.700        40
37.710        27
37.720        20
37.730        33
37.740        33
37.750        53
37.760        33
37.770        20
37.780        20
37.790        60
37.800        47
37.810        47
37.820        87
37.830        40
37.840        40
37.850        47
37.860        53
37.870        47
37.880        27
37.890        40
37.900        53
37.910        67
37.920        47
37.930        47
37.940        53
37.950        27
37.960        27
37.970        20
37.980        13
37.990        13
38.000        47
38.010        27
38.020        13
38.030         0
38.040         7
38.050         7
38.060         7
38.070         0
38.080        13
38.090        40
38.100        20
38.110        27
38.120        27
38.130        27
38.140        33
38.150        20
38.160        27
38.170        27
38.180         7
38.190        33
38.200        20
38.210        13
38.220        27
38.230        27
38.240        13
38.250        20
38.260         7
38.270        27
38.280        27
38.290        20
38.300        40
38.310        27
38.320        40
38.330        20
38.340        20
38.350        47
38.360        13
38.370        20
38.380        27
38.390        27
38.400        47
38.410        20
38.420        13
38.430        13
38.440        40
38.450        40
38.460        27
38.470        13
38.480        20
38.490         7
38.500        47
38.510        40
38.520        53
38.530        60
38.540        33
38.550        60
38.560       107
38.570        73
38.580        93
38.590       153
38.600        87
38.610       147
38.620       147
38.630       147
38.640       160
38.650       193
38.660       187
38.670       140
38.680       233
38.690       267
38.700       173
38.710       220
38.720       220
38.730       207
38.740       227
38.750       207
38.760       207
38.770       160
38.780       193
38.790       147
38.800       167
38.810       153
38.820        67
38.830       107
38.840       127
38.850        67
38.860       133
38.870        73
38.880        67
38.890        93
38.900        53
38.910        73
38.920        27
38.930        67
38.940        20
38.950        13
38.960        20
38.970        20
38.980        53
38.990         0
39.000        27
39.010        27
39.020        33
39.030         7
39.040         7
39.050        40
39.060        20
39.070         7
39.080        20
39.090        27
39.100        40
39.110        20
39.120        13
39.130        13
39.140        13
39.150        13
39.160        47
39.170        13
39.180        40
39.190        33
39.200        20
39.210        13
39.220        20
39.230        33
39.240        33
39.250        20
39.260        33
39.270        33
39.280        13
39.290        33
39.300        20
39.310         7
39.320        27
39.330        27
39.340        13
39.350        13
39.360         7
39.370         7
39.380        13
39.390        53
39.400        27
39.410         0
39.420        47
39.430        27
39.440        20
39.450        27
39.460        20
39.470        13
39.480         7
39.490        20
39.500         7
39.510         0
39.520        13
39.530        13
39.540         7
39.550         7
39.560        20
39.570         7
39.580        13
39.590        33
39.600        20
39.610        33
39.620        27
39.630         7
39.640        20
39.650        13
39.660        33
39.670        13
39.680        20
39.690        13
39.700         7
39.710        20
39.720        20
39.730        13
39.740        20
39.750         7
39.760        27
39.770         7
39.780         7
39.790        13
39.800        20
39.810         7
39.820         0
39.830        13
39.840        27
39.850        20
39.860        20
39.870        20
39.880        13
39.890         7
39.900        27
39.910        20
39.920        27
39.930        13
39.940        20
39.950         7
39.960        20
39.970        13
39.980        27
39.990         7
40.000        20
40.010        27
40.020        13
40.030        13
40.040        33
40.050        13
40.060        33
40.070        27
40.080        40
40.090         7
40.100         7
40.110        13
40.120        20
40.130        40
40.140        27
40.150        40
40.160        40
40.170        13
40.180        33
40.190        13
40.200        27
40.210        20
40.220        13
40.230         7
40.240         7
40.250        27
40.260        20
40.270        13
40.280        13
40.290        20
40.300        67
40.310        40
40.320         7
40.330        40
40.340        33
40.350         0
40.360        20
40.370        27
40.380        33
40.390        13
40.400        13
40.410        13
40.420        27
40.430        20
40.440        20
40.450        20
40.460        20
40.470        13
40.480        20
40.490        27
40.500        33
40.510        33
40.520        33
40.530        27
40.540        13
40.550        13
40.560         0
40.570        20
40.580        20
40.590        27
40.600        20
40.610        40
40.620        20
40.630        20
40.640         7
40.650        40
40.660        27
40.670        20
40.680        13
40.690        33
40.700        13
40.710        13
40.720        60
40.730         7
40.740        33
40.750        20
40.760        20
40.770         0
40.780        13
40.790         7
40.800        20
40.810        27
40.820        20
40.830        20
40.840         7
40.850        27
40.860        27
40.870        13
40.880         7
40.890         7
40.900         0
40.910         7
40.920        20
40.930         7
40.940        20
40.950        13
40.960         7
40.970        33
40.980        13
40.990        47
41.000        13
41.010         7
41.020         0
41.030         0
41.040        33
41.050         7
41.060        27
41.070        27
41.080        13
41.090         7
41.100        20
41.110        20
41.120         0
41.130        20
41.140        20
41.150         7
41.160        40
41.170        33
41.180        20
41.190        20
41.200        33
41.210        40
41.220        40
41.230        33
41.240        27
41.250        27
41.260        47
41.270        27
41.280        20
41.290        20
41.300         7
41.310        20
41.320         7
41.330         0
41.340        20
41.350         7
41.360        13
41.370         0
41.380        27
41.390        20
41.400         7
41.410        40
41.420        40
41.430        40
41.440        40
41.450        47
41.460         0
41.470        40
41.480        27
41.490         0
41.500        13
41.510        20
41.520        27
41.530        33
41.540        13
41.550        20
41.560        53
41.570        27
41.580         7
41.590        27
41.600        33
41.610        13
41.620        47
41.630        40
41.640        67
41.650        47
41.660        33
41.670        67
41.680        13
41.690        27
41.700        40
41.710        60
41.720        67
41.730        47
41.740        60
41.750        40
41.760        60
41.770        20
41.780        27
41.790        47
41.800        40
41.810        40
41.820        53
41.830        20
41.840        40
41.850        27
41.860        20
41.870        47
41.880        13
41.890        27
41.900        33
41.910         7
41.920        20
41.930        20
41.940        13
41.950        27
41.960         7
41.970         0
41.980        20
41.990        20
42.000        27
42.010        33
42.020        13
42.030        13
42.040        40
42.050        47
42.060         7
42.070        20
42.080         0
42.090         7
42.100         7
42.110        27
42.120        13
42.130        47
42.140        27
42.150        20
42.160        13
42.170        20
42.180        13
42.190        13
42.200         7
42.210         7
42.220        20
42.230         7
42.240        13
42.250        33
42.260         7
42.270        20
42.280        27
42.290        27
42.300        20
42.310         7
42.320        13
42.330        33
42.340         7
42.350         7
42.360         7
42.370         0
42.380        40
42.390         0
42.400        27
42.410         7
42.420        13
42.430         7
42.440        13
42.450         7
42.460        33
42.470        20
42.480        27
42.490        20
42.500        47
42.510         7
42.520        13
42.530        27
42.540        33
42.550         0
42.560         0
42.570        40
42.580        13
42.590         7
42.600        20
42.610        13
42.620        13
42.630         7
42.640        13
42.650        13
42.660        53
42.670        20
42.680        13
42.690        20
42.700        27
42.710        27
42.720         0
42.730         7
42.740        13
42.750        20
42.760         7
42.770         7
42.780        20
42.790        20
42.800        20
42.810        20
42.820        13
42.830        13
42.840        13
42.850        27
42.860        33
42.870         7
42.880         0
42.890         7
42.900        27
42.910        40
42.920        13
42.930        33
42.940        27
42.950        20
42.960         0
42.970        27
42.980        20
42.990        33
43.000        20
43.010        40
43.020         7
43.030        13
43.040        33
43.050        13
43.060         7
43.070        20
43.080        20
43.090        13
43.100        33
43.110        33
43.120         7
43.130        13
43.140        27
43.150        20
43.160        20
43.170        20
43.180        20
43.190        27
43.200        20
43.210        13
43.220        27
43.230        20
43.240        20
43.250        13
43.260        33
43.270        27
43.280        33
43.290        20
43.300        40
43.310        40
43.320        33
43.330        47
43.340        33
43.350        60
43.360        93
43.370       113
43.380        60
43.390        73
43.400        93
43.410       127
43.420       120
43.430       113
43.440        53
43.450        87
43.460        93
43.470        47
43.480        47
43.490        40
43.500        40
43.510        13
43.520        53
43.530        67
43.540        53
43.550        60
43.560        40
43.570        93
43.580         7
43.590        40
43.600         7
43.610        13
43.620        33
43.630        13
43.640        40
43.650        13
43.660        40
43.670        13
43.680         7
43.690         7
43.700        33
43.710        13
43.720         7
43.730        40
43.740        13
43.750        13
43.760        13
43.770        27
43.780         7
43.790        27
43.800         7
43.810         0
43.820         0
43.830        20
43.840        27
43.850        20
43.860        27
43.870        20
43.880        13
43.890        20
43.900        13
43.910        13
43.920        27
43.930         0
43.940        27
43.950        33
43.960        13
43.970        13
43.980         7
43.990         7
44.000        27
44.010         7
44.020         7
44.030        27
44.040         0
44.050        13
44.060        27
44.070        13
44.080        53
44.090        40
44.100        20
44.110        27
44.120         7
44.130         7
44.140         7
44.150         7
44.160        33
44.170        20
44.180        27
44.190         7
44.200        20
44.210        13
44.220        33
44.230        13
44.240        20
44.250         7
44.260         0
44.270         7
44.280        13
44.290        13
44.300        40
44.310        27
44.320        27
44.330         0
44.340        13
44.350         0
44.360        20
44.370        13
44.380        13
44.390        13
44.400        20
44.410        27
44.420         7
44.430         0
44.440        33
44.450         7
44.460         7
44.470        27
44.480         7
44.490        20
44.500        20
44.510        20
44.520        20
44.530         7
44.540        27
44.550        27
44.560        27
44.570        20
44.580         7
44.590        13
44.600        13
44.610         7
44.620         0
44.630        27
44.640        13
44.650        20
44.660         0
44.670        27
44.680        73
44.690        33
44.700        40
44.710        40
44.720        27
44.730         7
44.740         7
44.750         7
44.760        60
44.770        33
44.780        40
44.790        53
44.800        40
44.810        33
44.820        47
44.830        80
44.840        47
44.850        67
44.860        87
44.870        60
44.880        67
44.890       100
44.900        87
44.910        80
44.920       160
44.930       173
44.940        93
44.950       160
44.960       180
44.970       200
44.980       200
44.990       213
45.000       227
45.010       233
45.020       213
45.030       213
45.040       167
45.050       247
45.060       193
45.070       220
45.080       240
45.090       187
45.100       247
45.110       147
45.120       247
45.130       180
45.140       173
45.150       187
45.160       167
45.170       107
45.180       140
45.190       107
45.200        87
45.210        47
45.220       120
45.230        40
45.240        47
45.250        40
45.260        93
45.270        27
45.280        47
45.290        20
45.300        47
45.310        20
45.320        60
45.330        40
45.340        13
45.350        27
45.360        13
45.370        27
45.380        13
45.390        20
45.400        20
45.410        13
45.420        13
45.430         7
45.440        13
45.450        20
45.460        13
45.470        27
45.480        13
45.490        27
45.500        13
45.510        20
45.520         7
45.530        27
45.540        33
45.550        13
45.560        33
45.570        27
45.580        13
45.590        13
45.600         7
45.610        27
45.620        20
45.630        20
45.640        13
45.650        20
45.660        60
45.670        13
45.680        13
45.690         0
45.700        13
45.710        13
45.720        13
45.730        27
45.740        47
45.750        27
45.760        20
45.770        13
45.780         7
45.790        13
45.800         7
45.810        33
45.820        13
45.830        20
45.840        27
45.850        27
45.860        27
45.870         0
45.880        27
45.890        33
45.900        13
45.910        20
45.920        33
45.930        33
45.940        20
45.950         7
45.960        20
45.970        27
45.980        13
45.990        20
46.000        13
46.010        33
46.020        40
46.030        13
46.040        13
46.050         7
46.060        27
46.070        33
46.080         7
46.090        27
46.100        20
46.110        33
46.120        20
46.130        20
46.140        33
46.150        20
46.160         7
46.170        13
46.180        13
46.190         7
46.200         7
46.210         7
46.220        13
46.230        13
46.240         0
46.250         7
46.260        13
46.270         7
46.280        13
46.290        20
46.300        27
46.310        33
46.320        27
46.330         0
46.340        20
46.350        13
46.360        40
46.370        20
46.380         7
46.390        20
46.400        20
46.410        13
46.420        20
46.430        27
46.440        20
46.450        27
46.460        33
46.470        33
46.480         7
46.490         0
46.500        33
46.510         0
46.520        13
46.530        20
46.540         0
46.550        20
46.560        27
46.570        20
46.580         0
46.590        33
46.600        20
46.610        13
46.620         7
46.630         7
46.640         7
46.650        13
46.660        13
46.670        20
46.680        27
46.690        13
46.700         7
46.710        20
46.720         7
46.730         7
46.740        20
46.750        13
46.760        20
46.770        20
46.780         0
46.790        20
46.800        27
46.810        27
46.820        27
46.830         0
46.840         7
46.850        13
46.860        20
46.870        33
46.880        13
46.890         7
46.900        13
46.910         7
46.920        13
46.930        27
46.940        20
46.950        13
46.960         7
46.970        27
46.980        40
46.990         0
47.000        13
47.010        33
47.020        20
47.030        13
47.040        20
47.050         0
47.060        20
47.070        27
47.080         0
47.090        13
47.100         7
47.110        27
47.120        13
47.130        13
47.140        40
47.150         0
47.160        13
47.170         7
47.180        13
47.190        27
47.200        13
47.210        33
47.220        20
47.230         0
47.240        13
47.250        20
47.260        20
47.270         0
47.280        27
47.290        13
47.300        20
47.310        33
47.320        13
47.330        20
47.340        13
47.350         7
47.360        40
47.370         7
47.380        27
47.390        27
47.400        27
47.410        20
47.420        13
47.430         7
47.440         0
47.450         7
47.460         0
47.470        27
47.480         7
47.490        13
47.500        13
47.510        13
47.520        13
47.530         7
47.540        20
47.550         7
47.560        13
47.570        20
47.580        20
47.590        40
47.600        20
47.610        27
47.620         0
47.630        27
47.640        40
47.650        20
47.660        27
47.670        13
47.680        13
47.690         7
47.700        13
47.710         7
47.720        20
47.730         0
47.740         0
47.750         7
47.760         7
47.770        13
47.780        20
47.790         0
47.800        27
47.810         7
47.820        13
47.830        20
47.840         7
47.850        13
47.860        13
47.870        13
47.880        20
47.890         0
47.900         7
47.910        13
47.920        13
47.930         7
47.940         0
47.950         7
47.960         7
47.970        20
47.980        20
47.990        27
48.000        13
48.010        13
48.020        27
48.030         7
48.040         7
48.050        13
48.060         7
48.070        13
48.080        20
48.090         7
48.100        20
48.110        20
48.120         0
48.130        27
48.140         7
48.150        13
48.160        13
48.170         7
48.180        13
48.190        20
48.200         0
48.210        20
48.220        20
48.230        20
48.240        20
48.250        13
48.260        20
48.270        20
48.280        13
48.290         7
48.300        27
48.310         0
48.320        27
48.330        27
48.340        20
48.350        20
48.360        27
48.370         7
48.380         7
48.390         7
48.400        13
48.410        13
48.420        13
48.430        13
48.440        13
48.450        20
48.460         7
48.470         0
48.480         7
48.490        13
48.500        33
48.510        13
48.520        13
48.530        13
48.540        33
48.550        13
48.560         0
48.570        20
48.580        20
48.590        20
48.600         7
48.610        13
48.620         7
48.630        27
48.640        20
48.650        13
48.660        13
48.670         7
48.680        20
48.690        20
48.700         7
48.710         0
48.720        20
48.730        20
48.740        20
48.750         7
48.760        20
48.770        13
48.780        33
48.790         7
48.800        33
48.810         0
48.820        20
48.830        27
48.840        13
48.850        27
48.860        13
48.870        20
48.880        20
48.890        20
48.900        20
48.910         0
48.920        13
48.930        13
48.940        20
48.950        13
48.960         7
48.970        27
48.980         7
48.990        13
49.000         7
49.010        20
49.020        20
49.030        13
49.040         0
49.050        20
49.060         0
49.070        13
49.080         7
49.090        47
49.100         7
49.110         7
49.120        20
49.130         0
49.140        13
49.150        20
49.160        20
49.170        20
49.180        20
49.190         7
49.200        20
49.210        13
49.220        20
49.230        13
49.240        13
49.250         0
49.260         7
49.270         7
49.280        27
49.290        13
49.300         7
49.310        13
49.320        20
49.330         7
49.340        13
49.350         0
49.360        20
49.370        47
49.380         0
49.390        20
49.400         7
49.410        13
49.420        13
49.430        20
49.440        27
49.450        27
49.460         7
49.470         7
49.480        20
49.490        13
49.500         7
49.510        13
49.520        13
49.530        13
49.540        13
49.550        33
49.560        13
49.570         0
49.580         7
49.590         0
49.600         7
49.610        13
49.620        20
49.630        13
49.640        13
49.650         7
49.660        40
49.670         7
49.680        20
49.690        13
49.700        33
49.710         7
49.720        20
49.730         7
49.740        13
49.750        13
49.760         7
49.770        27
49.780         7
49.790        20
49.800         7
49.810        13
49.820        20
49.830        20
49.840         7
49.850        40
49.860         7
49.870        40
49.880         7
49.890        27
49.900        13
49.910         7
49.920        20
49.930        27
49.940        27
49.950        13
49.960        20
49.970        13
49.980        13
49.990        13
50.000        20
50.010        20
50.020        20
50.030        20
50.040        27
50.050        33
50.060        13
50.070        13
50.080        20
50.090        20
50.100        13
50.110        33
50.120        20
50.130         0
50.140        13
50.150        20
50.160        13
50.170         0
50.180        20
50.190         7
50.200        13
50.210        20
50.220         0
50.230        27
50.240        13
50.250         0
50.260        20
50.270        27
50.280        13
50.290        20
50.300        13
50.310        53
50.320        20
50.330        13
50.340         7
50.350        60
50.360        20
50.370        13
50.380        40
50.390        20
50.400         7
50.410        20
50.420        33
50.430        33
50.440        20
50.450        13
50.460         7
50.470         7
50.480        20
50.490        13
50.500        13
50.510        13
50.520        47
50.530        13
50.540        13
50.550        13
50.560         7
50.570        13
50.580        20
50.590        20
50.600        33
50.610        27
50.620         7
50.630        13
50.640        40
50.650        13
50.660        40
50.670        13
50.680        47
50.690        13
50.700        20
50.710        20
50.720        27
50.730        47
50.740        40
50.750        20
50.760        20
50.770        13
50.780        13
50.790        13
50.800         7
50.810        27
50.820         0
50.830        13
50.840        20
50.850        27
50.860         7
50.870        27
50.880        13
50.890        20
50.900        20
50.910        27
50.920        20
50.930         0
50.940        20
50.950        20
50.960         7
50.970        20
50.980         7
50.990        20
51.000         7
51.010        27
51.020        20
51.030        13
51.040        13
51.050         0
51.060        13
51.070         7
51.080        20
51.090         0
51.100        20
51.110        13
51.120         0
51.130        27
51.140         0
51.150         7
51.160        20
51.170        13
51.180        13
51.190         0
51.200        20
51.210        13
51.220         0
51.230         7
51.240         7
51.250        33
51.260        13
51.270        13
51.280        13
51.290         7
51.300        13
51.310        20
51.320        20
51.330        13
51.340        20
51.350        33
51.360         7
51.370         0
51.380        20
51.390         0
51.400         0
51.410        33
51.420         7
51.430         7
51.440        27
51.450         0
51.460         7
51.470        13
51.480        13
51.490         0
51.500         0
51.510        13
51.520        20
51.530        53
51.540         7
51.550        13
51.560        53
51.570        13
51.580        27
51.590         7
51.600        13
51.610        13
51.620        20
51.630        20
51.640        13
51.650        13
51.660         7
51.670         7
51.680        33
51.690        13
51.700         0
51.710         0
51.720        20
51.730         0
51.740        13
51.750         7
51.760        20
51.770        27
51.780         7
51.790         7
51.800         0
51.810        13
51.820        27
51.830        20
51.840         0
51.850        13
51.860         0
51.870        27
51.880         7
51.890         0
51.900         7
51.910        20
51.920        20
51.930         7
51.940         0
51.950         0
51.960        13
51.970         0
51.980         7
51.990        20
52.000         7
52.010         7
52.020        20
52.030         0
52.040        27
52.050         0
52.060        13
52.070        20
52.080        27
52.090        20
52.100        13
52.110         7
52.120         0
52.130        27
52.140         0
52.150        20
52.160        20
52.170        27
52.180         7
52.190        13
52.200         0
52.210        40
52.220        20
52.230         7
52.240         7
52.250        27
52.260        27
52.270         7
52.280         0
52.290         0
52.300        13
52.310         7
52.320         7
52.330         0
52.340         7
52.350         7
52.360         7
52.370         7
52.380         0
52.390        13
52.400        13
52.410         7
52.420         7
52.430         0
52.440         7
52.450        27
52.460        13
52.470        27
52.480        13
52.490        13
52.500        13
52.510        60
52.520        27
52.530        20
52.540        67
52.550        27
52.560        33
52.570       100
52.580        73
52.590        80
52.600        67
52.610        53
52.620        40
52.630        87
52.640        33
52.650        40
52.660        33
52.670        40
52.680        33
52.690        27
52.700        27
52.710        13
52.720        27
52.730        33
52.740        33
52.750        33
52.760        27
52.770        27
52.780        27
52.790        27
52.800        40
52.810        27
52.820        27
52.830        27
52.840        27
52.850        13
52.860        27
52.870         0
52.880        13
52.890        20
52.900        13
52.910         0
52.920        13
52.930         7
52.940        13
52.950        20
52.960        20
52.970        13
52.980         0
52.990        33
53.000         7
53.010        13
53.020        20
53.030        13
53.040        20
53.050        13
53.060         0
53.070         7
53.080         7
53.090         7
53.100        20
53.110        13
53.120        13
53.130         7
53.140        13
53.150         0
53.160        13
53.170        20
53.180        13
53.190         7
53.200        13
53.210        13
53.220        13
53.230        27
53.240        13
53.250         0
53.260         0
53.270         0
53.280         7
53.290        13
53.300        13
53.310        33
53.320         7
53.330        13
53.340         0
53.350        13
53.360         7
53.370        13
53.380        13
53.390         7
53.400         7
53.410         7
53.420        27
53.430        13
53.440        13
53.450        20
53.460        27
53.470        13
53.480         7
53.490        20
53.500         7
53.510         7
53.520        27
53.530        20
53.540        20
53.550         7
53.560        13
53.570        13
53.580        27
53.590        13
53.600        27
53.610        13
53.620        33
53.630        13
53.640        13
53.650        13
53.660        13
53.670        20
53.680         7
53.690        13
53.700        20
53.710        40
53.720        13
53.730        27
53.740         7
53.750         0
53.760         7
53.770         0
53.780         7
53.790         7
53.800        33
53.810         7
53.820        27
53.830        13
53.840         7
53.850        13
53.860         7
53.870        40
53.880        33
53.890        13
53.900         7
53.910        13
53.920        27
53.930         0
53.940        20
53.950         0
53.960         7
53.970        27
53.980        13
53.990        33
54.000        13
54.010        13
54.020         7
54.030        20
54.040        13
54.050         0
54.060        20
54.070        13
54.080        13
54.090         7
54.100        33
54.110        13
54.120        20
54.130         0
54.140         7
54.150        13
54.160        20
54.170         0
54.180        33
54.190        13
54.200         7
54.210        27
54.220        13
54.230        20
54.240        13
54.250        20
54.260         0
54.270         7
54.280        20
54.290        20
54.300        20
54.310         0
54.320        47
54.330        67
54.340         7
54.350        13
54.360        27
54.370        20
54.380        20
54.390        13
54.400        33
54.410        20
54.420        20
54.430        13
54.440        20
54.450        27
54.460        13
54.470         7
54.480        20
54.490        13
54.500         7
54.510        20
54.520         0
54.530        13
54.540        13
54.550         7
54.560        20
54.570         7
54.580        27
54.590         7
54.600        13
54.610        20
54.620        27
54.630        13
54.640        13
54.650        27
54.660        27
54.670        20
54.680        27
54.690        13
54.700        40
54.710        13
54.720         7
54.730        33
54.740        33
54.750         7
54.760         0
54.770        13
54.780        13
54.790        20
54.800         7
54.810        20
54.820        27
54.830        13
54.840         7
54.850        20
54.860        13
54.870        13
54.880        13
54.890        20
54.900         7
54.910        33
54.920        20
54.930         7
54.940         7
54.950        13
54.960        13
54.970         7
54.980        13
54.990        13
55.000        27
55.010        27
55.020        27
55.030        40
55.040         0
55.050        27
55.060        13
55.070        13
55.080        27
55.090         7
55.100         7
55.110        20
55.120        13
55.130         7
55.140        13
55.150        13
55.160        13
55.170        13
55.180        13
55.190        20
55.200         7
55.210         7
55.220        13
55.230         0
55.240        20
55.250         7
55.260        20
55.270        33
55.280        13
55.290        20
55.300        13
55.310        27
55.320        27
55.330         7
55.340        27
55.350         7
55.360        13
55.370         7
55.380        47
55.390        13
55.400         7
55.410         7
55.420         0
55.430         0
55.440        13
55.450        20
55.460        27
55.470        20
55.480        40
55.490        33
55.500        13
55.510        27
55.520         7
55.530        53
55.540        33
55.550        27
55.560        73
55.570        47
55.580        13
55.590        53
55.600        60
55.610        60
55.620        67
55.630        67
55.640        67
55.650        67
55.660       120
55.670       100
55.680        93
55.690       120
55.700       113
55.710       167
55.720       207
55.730       167
55.740       260
55.750       173
55.760       200
55.770       267
55.780       193
55.790       347
55.800       293
55.810       260
55.820       287
55.830       373
55.840       360
55.850       400
55.860       300
55.870       353
55.880       413
55.890       340
55.900       380
55.910       380
55.920       513
55.930       460
55.940       347
55.950       413
55.960       400
55.970       466
55.980       440
55.990       327
56.000       327
56.010       300
56.020       400
56.030       373
56.040       333
56.050       293
56.060       287
56.070       193
56.080       167
56.090       227
56.100       240
56.110       200
56.120       147
56.130       193
56.140       140
56.150       160
56.160       120
56.170        80
56.180       147
56.190        87
56.200        47
56.210        67
56.220        40
56.230        67
56.240        67
56.250        53
56.260         7
56.270        60
56.280        27
56.290        60
56.300        13
56.310        47
56.320        33
56.330         7
56.340        47
56.350        20
56.360        20
56.370        27
56.380        33
56.390        20
56.400        20
56.410        33
56.420        13
56.430        33
56.440        40
56.450         7
56.460         7
56.470        13
56.480        27
56.490        40
56.500        20
56.510         0
56.520        27
56.530        13
56.540        27
56.550        20
56.560         0
56.570         0
56.580        20
56.590        20
56.600         0
56.610        20
56.620        20
56.630        13
56.640        33
56.650        27
56.660         7
56.670         7
56.680         0
56.690        13
56.700        47
56.710        33
56.720         7
56.730        20
56.740        13
56.750         0
56.760         7
56.770        20
56.780        20
56.790        33
56.800        20
56.810         7
56.820        13
56.830         7
56.840        13
56.850        13
56.860        13
56.870         0
56.880        13
56.890        20
56.900        20
56.910        33
56.920        40
56.930         7
56.940        27
56.950        20
56.960        13
56.970        20
56.980         0
56.990        20
57.000        20
57.010         7
57.020         0
57.030        20
57.040        27
57.050        13
57.060         7
57.070        13
57.080         0
57.090        27
57.100        13
57.110         0
57.120         7
57.130        13
57.140         7
57.150        13
57.160        13
57.170        20
57.180        13
57.190        20
57.200        20
57.210        20
57.220        20
57.230        13
57.240        13
57.250        13
57.260        20
57.270        40
57.280        13
57.290        33
57.300        20
57.310        20
57.320        13
57.330        13
57.340        27
57.350        13
57.360        27
57.370        20
57.380        27
57.390         0
57.400        20
57.410        27
57.420        40
57.430        33
57.440        67
57.450        60
57.460        53
57.470        47
57.480        87
57.490       133
57.500       140
57.510       187
57.520       160
57.530       213
57.540       240
57.550       147
57.560       127
57.570       140
57.580       140
57.590        87
57.600        47
57.610        53
57.620        40
57.630        87
57.640        60
57.650        80
57.660        80
57.670       113
57.680       127
57.690       113
57.700       100
57.710       113
57.720        93
57.730        80
57.740        27
57.750        47
57.760        20
57.770        40
57.780        13
57.790        27
57.800        27
57.810        27
57.820        13
57.830        27
57.840         7
57.850        40
57.860        20
57.870        20
57.880         7
57.890        13
57.900         7
57.910         7
57.920        27
57.930        20
57.940         0
57.950         7
57.960        20
57.970         0
57.980         7
57.990        27
58.000        13
58.010        20
58.020         7
58.030         7
58.040        13
58.050        20
58.060        27
58.070        20
58.080         7
58.090        13
58.100        13
58.110        27
58.120         7
58.130        13
58.140        20
58.150        13
58.160         0
58.170        13
58.180        13
58.190         7
58.200        27
58.210         7
58.220         7
58.230         7
58.240         0
58.250        20
58.260        13
58.270         7
58.280         7
58.290        13
58.300        13
58.310         7
58.320        27
58.330         0
58.340         0
58.350        20
58.360        27
58.370        20
58.380        13
58.390        20
58.400        20
58.410         7
58.420         7
58.430         7
58.440        13
58.450         7
58.460        13
58.470        13
58.480         7
58.490         7
58.500         7
58.510        27
58.520        13
58.530         7
58.540         0
58.550         7
58.560        27
58.570        20
58.580        13
58.590        13
58.600         7
58.610        27
58.620        13
58.630         7
58.640         7
58.650        13
58.660         7
58.670         7
58.680        13
58.690         7
58.700        13
58.710         7
58.720         7
58.730         7
58.740         7
58.750        20
58.760        33
58.770        13
58.780        13
58.790        13
58.800        27
58.810        13
58.820         7
58.830         7
58.840        20
58.850        13
58.860        13
58.870         0
58.880        13
58.890        20
58.900         7
58.910        27
58.920        13
58.930        13
58.940        20
58.950        13
58.960        13
58.970         0
58.980        13
58.990         0
59.000         0
59.010         0
59.020        20
59.030        13
59.040        13
59.050        13
59.060         7
59.070        20
59.080        13
59.090         7
59.100        13
59.110        20
59.120         0
59.130        27
59.140         7
59.150         7
59.160         7
59.170        13
59.180         0
59.190        27
59.200         7
59.210         7
59.220        13
59.230         7
59.240        13
59.250         7
59.260        27
59.270        27
59.280         7
59.290        33
59.300         0
59.310        40
59.320        20
59.330         0
59.340        20
59.350         0
59.360         0
59.370        47
59.380        20
59.390        13
59.400        20
59.410        20
59.420        20
59.430        13
59.440         0
59.450        27
59.460         7
59.470        20
59.480         0
59.490         7
59.500         7
59.510        13
59.520        20
59.530         7
59.540         0
59.550        13
59.560         7
59.570        13
59.580        27
59.590        20
59.600        13
59.610        13
59.620        27
59.630        20
59.640         7
59.650        20
59.660        13
59.670         7
59.680        13
59.690        20
59.700        13
59.710        13
59.720        13
59.730        13
59.740        13
59.750        20
59.760        27
59.770        20
59.780         0
59.790        27
59.800        20
59.810         7
59.820        13
59.830         7
59.840        13
59.850        40
59.860        20
59.870         7
59.880         0
59.890        27
59.900        20
59.910         7
59.920         0
59.930        13
59.940        13
59.950        20
59.960        27
59.970        47
59.980        47
59.990         7
60.000         7
