20.000        60
20.010        40
20.020        13
20.030        27
20.040        27
20.050        33
20.060        20
20.070        53
20.080        67
20.090        33
20.100        33
20.110        47
20.120        33
20.130        47
20.140        27
20.150        33
20.160        20
20.170        27
20.180        20
20.190        47
20.200        40
20.210        67
20.220        33
20.230        67
20.240        13
20.250        27
20.260        33
20.270        33
20.280        47
20.290         7
20.300        27
20.310        53
20.320        20
20.330        40
20.340        67
20.350        47
20.360        53
20.370        13
20.380        60
20.390        53
20.400        47
20.410        27
20.420        20
20.430        13
20.440        60
20.450        33
20.460        47
20.470        40
20.480        40
20.490        73
20.500        33
20.510        40
20.520        20
20.530        40
20.540        40
20.550        53
20.560        33
20.570        47
20.580        27
20.590        13
20.600        67
20.610        33
20.620        20
20.630        27
20.640        20
20.650        47
20.660        33
20.670        40
20.680         7
20.690        47
20.700        40
20.710        20
20.720        13
20.730        27
20.740        40
20.750        40
20.760        40
20.770        13
20.780        33
20.790        33
20.800         7
20.810        53
20.820        53
20.830        53
20.840        47
20.850        20
20.860        33
20.870        47
20.880        33
20.890        33
20.900        33
20.910        73
20.920        20
20.930        47
20.940        53
20.950        40
20.960        47
20.970        47
20.980        33
20.990        27
21.000         7
21.010        60
21.020        33
21.030        47
21.040        13
21.050        20
21.060        60
21.070        53
21.080        47
21.090        40
21.100        13
21.110        73
21.120        40
21.130        53
21.140        13
21.150        27
21.160        20
21.170        40
21.180        40
21.190        40
21.200        33
21.210        60
21.220        13
21.230         7
21.240        40
21.250        53
21.260        53
21.270        13
21.280        40
21.290        27
21.300        73
21.310        20
21.320        47
21.330        13
21.340        40
21.350        47
21.360        27
21.370        60
21.380        40
21.390        33
21.400        20
21.410        47
21.420        33
21.430        20
21.440        27
21.450        53
21.460        47
21.470        33
21.480        13
21.490        27
21.500        40
21.510        47
21.520        53
21.530        20
21.540        47
21.550        67
21.560        20
21.570        20
21.580        13
21.590        33
21.600        47
21.610        27
21.620        27
21.630        13
21.640        27
21.650        33
21.660        40
21.670        67
21.680        67
21.690        47
21.700        47
21.710        40
21.720        53
21.730        60
21.740        13
21.750        20
21.760        33
21.770        33
21.780        33
21.790        33
21.800        33
21.810        33
21.820        47
21.830        67
21.840        53
21.850        33
21.860        40
21.870        27
21.880        27
21.890        40
21.900        53
21.910        60
21.920        40
21.930        87
21.940        67
21.950        33
21.960        33
21.970        60
21.980        33
21.990        13
22.000        40
22.010        33
22.020        53
22.030        67
22.040        40
22.050        20
22.060        53
22.070        33
22.080        47
22.090        53
22.100        27
22.110        33
22.120        27
22.130        33
22.140        27
22.150        33
22.160        47
22.170        13
22.180        40
22.190        40
22.200        40
22.210        27
22.220        20
22.230        20
22.240        13
22.250        40
22.260        40
22.270        33
22.280         7
22.290        33
22.300        33
22.310        20
22.320        20
22.330        27
22.340        47
22.350        53
22.360        47
22.370        47
22.380        40
22.390        40
22.400        33
22.410        47
22.420        13
22.430        33
22.440        47
22.450        27
22.460        47
22.470        33
22.480        27
22.490        40
22.500        53
22.510         0
22.520        20
22.530        20
22.540        33
22.550        27
22.560        13
22.570        20
22.580        53
22.590        33
22.600        53
22.610        60
22.620        53
22.630        13
22.640        40
22.650        20
22.660        27
22.670        20
22.680        27
22.690        27
22.700        47
22.710        47
22.720        40
22.730        27
22.740        33
22.750        20
22.760        13
22.770        27
22.780        13
22.790         7
22.800        33
22.810        20
22.820        20
22.830        40
22.840        33
22.850         0
22.860        27
22.870        27
22.880        27
22.890        13
22.900         7
22.910        40
22.920        27
22.930        40
22.940        27
22.950        20
22.960        40
22.970        33
22.980        13
22.990        53
23.000        13
23.010        27
23.020        13
23.030        60
23.040        20
23.050        33
23.060        27
23.070        40
23.080        20
23.090        13
23.100         7
23.110        33
23.120        13
23.130        20
23.140        20
23.150        40
23.160        40
23.170        53
23.180        53
23.190        20
23.200        20
23.210         7
23.220        27
23.230        20
23.240        13
23.250        33
23.260        27
23.270        20
23.280        27
23.290        53
23.300        40
23.310        13
23.320        20
23.330        40
23.340        47
23.350        40
23.360        33
23.370        13
23.380        40
23.390        40
23.400        33
23.410        33
23.420        60
23.430        27
23.440        47
23.450        33
23.460        33
23.470        33
23.480        40
23.490        13
23.500         7
23.510        13
23.520        20
23.530        27
23.540        40
23.550        60
23.560        27
23.570        27
23.580        33
23.590        20
23.600        20
23.610         0
23.620        47
23.630        53
23.640        27
23.650        40
23.660        60
23.670        33
23.680        13
23.690        27
23.700        33
23.710         7
23.720        27
23.730        47
23.740        13
23.750        20
23.760        47
23.770        13
23.780        33
23.790        20
23.800        20
23.810        13
23.820        20
23.830        53
23.840        27
23.850        40
23.860        47
23.870        40
23.880        40
23.890        13
23.900        33
23.910        40
23.920        47
23.930        53
23.940        33
23.950        47
23.960        20
23.970        13
23.980        20
23.990        20
24.000        20
24.010        33
24.020        40
24.030        27
24.040        13
24.050        13
24.060        47
24.070        40
24.080        33
24.090        27
24.100        27
24.110        33
24.120        33
24.130        40
24.140        40
24.150        13
24.160        27
24.170        27
24.180        20
24.190        33
24.200        40
24.210         7
24.220        13
24.230        13
24.240        13
24.250        13
24.260        13
24.270         7
24.280        53
24.290        27
24.300        13
24.310        20
24.320        20
24.330        20
24.340        33
24.350        27
24.360        47
24.370        53
24.380        40
24.390        13
24.400        13
24.410        53
24.420        20
24.430        40
24.440        33
24.450        27
24.460        27
24.470        33
24.480        53
24.490        27
24.500        33
24.510        20
24.520        20
24.530        47
24.540        13
24.550        53
24.560        60
24.570        27
24.580        40
24.590        53
24.600         7
24.610        20
24.620        33
24.630        40
24.640        27
24.650         7
24.660        40
24.670        13
24.680        33
24.690        20
24.700        53
24.710        27
24.720        27
24.730        20
24.740        33
24.750        47
24.760        27
24.770        20
24.780        13
24.790         7
24.800        13
24.810        40
24.820        27
24.830        40
24.840        27
24.850        60
24.860         7
24.870        27
24.880        40
24.890        33
24.900        40
24.910        40
24.920        33
24.930        53
24.940        20
24.950        20
24.960        13
24.970        20
24.980        27
24.990        53
25.000         7
25.010        47
25.020         7
25.030        13
25.040        47
25.050        33
25.060        20
25.070        13
25.080         0
25.090        33
25.100        20
25.110        20
25.120        40
25.130        20
25.140        20
25.150        20
25.160        53
25.170        27
25.180        33
25.190         7
25.200        20
25.210        20
25.220        33
25.230        33
25.240        20
25.250        33
25.260        47
25.270        27
25.280        27
25.290        27
25.300        33
25.310        33
25.320         7
25.330         7
25.340        33
25.350        47
25.360        13
25.370        27
25.380        33
25.390        40
25.400         7
25.410        27
25.420        27
25.430        33
25.440        27
25.450        40
25.460        67
25.470        33
25.480         0
25.490        20
25.500        33
25.510        47
25.520        33
25.530        40
25.540        40
25.550        27
25.560        60
25.570        80
25.580        33
25.590        80
25.600        47
25.610        40
25.620        47
25.630        33
25.640        67
25.650        60
25.660        60
25.670        67
25.680        80
25.690        40
25.700        67
25.710        60
25.720        20
25.730        60
25.740         0
25.750        20
25.760        27
25.770        47
25.780        20
25.790         7
25.800        40
25.810        33
25.820        40
25.830        33
25.840        60
25.850        40
25.860        20
25.870        47
25.880        40
25.890        33
25.900        20
25.910        40
25.920        33
25.930        33
25.940        27
25.950        27
25.960        27
25.970        47
25.980        40
25.990        33
26.000        40
26.010        20
26.020        60
26.030        33
26.040        33
26.050        27
26.060        13
26.070        47
26.080        27
26.090        33
26.100        13
26.110        13
26.120        27
26.130        20
26.140        27
26.150        40
26.160        40
26.170        27
26.180        33
26.190        40
26.200        20
26.210        13
26.220        33
26.230        27
26.240        33
26.250        40
26.260        40
26.270        20
26.280        20
26.290        40
26.300        40
26.310        40
26.320        13
26.330        20
26.340        27
26.350        27
26.360        13
26.370         7
26.380        27
26.390        27
26.400        13
26.410        20
26.420        20
26.430        47
26.440        33
26.450        33
26.460        13
26.470        27
26.480        27
26.490        20
26.500        27
26.510        27
26.520        13
26.530        20
26.540        20
26.550        20
26.560        13
26.570        20
26.580        33
26.590        20
26.600        27
26.610        20
26.620        33
26.630        40
26.640        27
26.650        27
26.660        20
26.670         0
26.680        27
26.690         7
26.700        40
26.710        73
26.720        27
26.730        40
26.740        20
26.750        20
26.760        13
26.770        20
26.780        27
26.790        60
26.800        13
26.810        13
26.820        20
26.830        67
26.840        20
26.850        60
26.860        40
26.870        13
26.880        53
26.890        13
26.900        47
26.910        20
26.920        40
26.930         7
26.940        20
26.950         0
26.960        27
26.970        20
26.980        13
26.990        40
27.000        27
27.010        20
27.020        27
27.030        33
27.040        13
27.050        20
27.060        13
27.070        33
27.080        20
27.090        27
27.100        20
27.110        13
27.120         7
27.130         7
27.140        33
27.150        27
27.160        20
27.170         7
27.180        27
27.190        60
27.200        60
27.210        47
27.220        20
27.230        27
27.240        20
27.250        53
27.260        40
27.270        27
27.280        47
27.290        40
27.300        40
27.310        40
27.320        40
27.330        13
27.340        20
27.350        20
27.360        33
27.370        27
27.380        20
27.390        47
27.400         7
27.410         0
27.420        20
27.430        13
27.440         7
27.450        40
27.460        20
27.470        13
27.480        40
27.490        40
27.500        13
27.510        47
27.520        13
27.530        13
27.540        33
27.550        13
27.560        27
27.570        67
27.580        27
27.590         7
27.600         7
27.610        27
27.620        27
27.630        27
27.640        13
27.650        20
27.660        20
27.670         7
27.680        13
27.690        40
27.700        27
27.710        47
27.720        33
27.730        33
27.740        13
27.750         0
27.760        13
27.770        20
27.780        13
27.790        20
27.800        27
27.810        20
27.820        13
27.830        60
27.840        27
27.850        33
27.860        40
27.870        27
27.880        33
27.890        27
27.900        27
27.910        27
27.920        20
27.930        20
27.940        27
27.950        40
27.960        20
27.970        27
27.980        20
27.990         7
28.000        20
28.010        27
28.020        33
28.030         7
28.040        40
28.050        33
28.060        27
28.070        20
28.080        27
28.090        20
28.100        40
28.110         7
28.120         7
28.130        27
28.140        13
28.150        13
28.160        33
28.170        20
28.180        33
28.190        27
28.200        33
28.210        20
28.220        40
28.230        33
28.240        27
28.250        27
28.260        27
28.270        13
28.280        20
28.290         0
28.300        27
28.310        27
28.320        27
28.330        27
28.340        13
28.350        13
28.360        13
28.370        13
28.380         7
28.390        13
28.400        20
28.410        33
28.420        33
28.430        27
28.440        20
28.450        20
28.460        40
28.470         7
28.480        27
28.490        33
28.500        27
28.510        20
28.520        40
28.530        27
28.540        53
28.550         0
28.560        40
28.570         7
28.580        20
28.590        20
28.600         7
28.610        53
28.620        33
28.630        33
28.640        27
28.650        20
28.660        20
28.670        53
28.680         7
28.690        27
28.700        20
28.710        20
28.720        27
28.730        13
28.740        27
28.750        27
28.760        13
28.770        53
28.780        20
28.790        20
28.800        27
28.810        13
28.820         7
28.830        33
28.840        27
28.850         0
28.860        27
28.870        13
28.880        20
28.890        40
28.900        53
28.910        20
28.920        33
28.930        13
28.940        20
28.950        13
28.960        33
28.970         7
28.980         7
28.990        33
29.000        33
29.010        13
29.020        20
29.030        47
29.040         7
29.050        27
29.060        27
29.070         7
29.080        47
29.090        27
29.100        20
29.110        33
29.120        33
29.130        20
29.140        33
29.150        40
29.160        13
29.170        20
29.180        33
29.190        20
29.200        13
29.210        20
29.220        20
29.230         0
29.240        13
29.250        27
29.260        20
29.270        27
29.280        33
29.290         7
29.300        27
29.310        33
29.320        13
29.330        53
29.340        27
29.350        40
29.360        27
29.370        33
29.380        20
29.390        20
29.400        33
29.410        27
29.420        20
29.430        27
29.440        20
29.450        27
29.460        13
29.470        20
29.480        27
29.490        40
29.500        27
29.510         7
29.520        20
29.530        47
29.540         0
29.550        27
29.560        13
29.570         0
29.580        20
29.590        13
29.600        20
29.610        20
29.620        20
29.630        27
29.640        33
29.650        27
29.660        13
29.670        13
29.680        33
29.690        27
29.700        20
29.710        27
29.720        13
29.730        33
29.740        27
29.750         7
29.760        20
29.770        13
29.780        20
29.790        20
29.800        13
29.810        13
29.820        53
29.830         0
29.840        20
29.850        20
29.860        13
29.870         7
29.880        13
29.890        27
29.900        13
29.910        20
29.920         7
29.930        13
29.940        33
29.950        20
29.960        27
29.970        13
29.980        13
29.990        13
30.000        27
30.010        13
30.020         7
30.030        20
30.040        27
30.050        53
30.060        33
30.070        40
30.080        20
30.090        20
30.100        27
30.110        20
30.120        20
30.130        20
30.140        20
30.150        27
30.160        20
30.170        33
30.180        53
30.190        13
30.200        33
30.210        60
30.220        27
30.230        20
30.240        40
30.250        20
30.260        47
30.270        13
30.280        20
30.290        33
30.300        27
30.310        60
30.320         7
30.330        20
30.340        20
30.350        27
30.360        13
30.370        47
30.380        13
30.390        27
30.400        13
30.410         0
30.420        27
30.430        20
30.440        27
30.450        27
30.460        13
30.470        13
30.480         0
30.490        33
30.500        20
30.510        13
30.520        47
30.530        47
30.540        27
30.550        27
30.560        13
30.570        13
30.580         7
30.590        27
30.600        13
30.610        27
30.620        13
30.630        20
30.640        33
30.650        47
30.660        13
30.670         7
30.680        13
30.690         0
30.700        27
30.710         7
30.720        20
30.730        53
30.740        67
30.750        20
30.760        27
30.770        13
30.780        13
30.790        20
30.800        20
30.810         0
30.820        33
30.830        27
30.840        40
30.850        20
30.860        13
30.870        13
30.880        33
30.890        47
30.900        13
30.910        13
30.920        20
30.930        20
30.940        40
30.950        60
30.960        40
30.970        13
30.980        73
30.990        27
31.000        40
31.010        60
31.020        47
31.030        33
31.040        87
31.050        67
31.060        73
31.070       120
31.080        67
31.090        80
31.100        60
31.110       100
31.120       147
31.130       107
31.140       153
31.150       100
31.160       127
31.170       120
31.180       120
31.190       107
31.200       100
31.210       107
31.220        80
31.230       107
31.240       100
31.250       100
31.260        80
31.270        67
31.280        73
31.290        67
31.300        73
31.310        60
31.320        47
31.330        27
31.340        33
31.350        20
31.360        27
31.370        20
31.380        33
31.390        27
31.400        13
31.410        47
31.420        20
31.430         0
31.440        40
31.450        27
31.460        40
31.470        47
31.480        27
31.490         0
31.500        20
31.510        20
31.520         7
31.530        47
31.540        13
31.550        33
31.560        13
31.570        47
31.580        40
31.590        27
31.600         7
31.610        20
31.620        13
31.630        13
31.640         7
31.650        27
31.660        20
31.670        13
31.680        27
31.690         7
31.700        20
31.710        13
31.720        53
31.730        20
31.740         7
31.750         7
31.760        33
31.770        20
31.780        40
31.790        20
31.800        33
31.810         7
31.820        20
31.830        20
31.840        13
31.850        27
31.860        27
31.870        40
31.880        20
31.890        20
31.900        27
31.910         0
31.920        13
31.930        13
31.940         7
31.950        13
31.960         7
31.970        33
31.980        33
31.990        20
32.000        20
32.010        13
32.020        27
32.030         7
32.040         0
32.050        13
32.060        13
32.070        20
32.080        27
32.090         7
32.100         0
32.110         7
32.120        20
32.130        27
32.140         0
32.150        27
32.160        20
32.170        27
32.180        13
32.190        33
32.200        27
32.210        13
32.220        13
32.230         7
32.240        13
32.250        13
32.260        13
32.270         7
32.280        33
32.290        33
32.300        13
32.310         7
32.320        40
32.330         0
32.340        13
32.350        13
32.360        27
32.370         7
32.380        33
32.390        13
32.400        27
32.410        27
32.420        27
32.430        13
32.440        33
32.450         7
32.460        13
32.470        27
32.480        27
32.490        13
32.500        40
32.510        20
32.520        40
32.530        33
32.540        33
32.550         7
32.560        20
32.570        13
32.580        20
32.590        20
32.600        13
32.610        13
32.620        13
32.630         7
32.640         7
32.650         7
32.660        20
32.670        20
32.680        33
32.690        13
32.700        13
32.710        20
32.720        13
32.730         7
32.740        13
32.750        27
32.760         7
32.770        27
32.780         0
32.790        27
32.800        27
32.810        20
32.820        27
32.830        20
32.840        20
32.850        20
32.860         0
32.870         7
32.880        13
32.890         0
32.900        20
32.910        13
32.920         0
32.930        33
32.940         0
32.950        33
32.960         7
32.970        27
32.980        20
32.990        20
33.000        27
33.010        20
33.020        33
33.030        13
33.040        40
33.050        13
33.060         0
33.070        13
33.080        13
33.090        40
33.100        33
33.110        13
33.120        13
33.130        20
33.140        20
33.150        13
33.160        13
33.170         7
33.180        13
33.190        33
33.200         7
33.210         7
33.220         7
33.230        13
33.240        27
33.250        13
33.260        13
33.270        27
33.280        33
33.290        20
33.300         0
33.310        20
33.320        13
33.330        20
33.340         7
33.350        13
33.360        47
33.370         7
33.380        13
33.390        13
33.400        20
33.410        20
33.420        20
33.430         0
33.440        20
33.450        27
33.460        20
33.470        33
33.480         7
33.490         0
33.500        13
33.510         7
33.520        20
33.530        27
33.540        33
33.550         7
33.560         7
33.570        27
33.580        33
33.590        13
33.600        13
33.610        27
33.620        20
33.630         7
33.640         0
33.650        20
33.660        13
33.670        27
33.680         7
33.690        27
33.700        20
33.710        40
33.720        27
33.730         7
33.740        20
33.750        20
33.760        20
33.770        13
33.780         7
33.790        33
33.800        40
33.810         7
33.820        27
33.830        13
33.840         7
33.850        13
33.860        27
33.870        33
33.880        33
33.890        20
33.900         7
33.910        13
33.920         7
33.930        13
33.940        27
33.950        27
33.960         7
33.970        13
33.980         7
33.990        20
34.000        27
34.010        20
34.020        27
34.030        33
34.040        20
34.050         7
34.060         7
34.070        20
34.080        20
34.090         0
34.100        20
34.110         0
34.120        20
34.130        20
34.140        20
34.150         7
34.160        13
34.170         7
34.180         7
34.190        40
34.200        20
34.210        33
34.220        27
34.230        40
34.240        13
34.250        33
34.260         0
34.270         0
34.280        40
34.290         7
34.300        13
34.310        13
34.320         7
34.330        13
34.340        20
34.350         7
34.360        27
34.370        47
34.380         0
34.390         7
34.400         7
34.410         7
34.420        13
34.430        13
34.440        13
34.450        27
34.460        33
34.470         7
34.480        13
34.490         7
34.500         0
34.510         7
34.520         0
34.530        20
34.540         7
34.550        13
34.560         7
34.570        13
34.580        27
34.590        40
34.600        20
34.610        13
34.620         7
34.630         7
34.640        27
34.650        27
34.660        20
34.670         0
34.680         7
34.690        27
34.700         7
34.710        33
34.720        13
34.730         7
34.740        20
34.750        13
34.760        13
34.770        27
34.780        33
34.790        20
34.800        27
34.810        33
34.820        13
34.830        13
34.840         7
34.850        33
34.860        27
34.870        13
34.880        33
34.890        20
34.900        33
34.910        13
34.920        20
34.930         7
34.940        27
34.950        33
34.960        40
34.970        13
34.980        20
34.990        13
35.000        20
35.010        20
35.020         7
35.030        13
35.040        13
35.050        13
35.060        13
35.070        13
35.080        13
35.090        20
35.100        13
35.110        13
35.120        13
35.130        20
35.140         7
35.150        13
35.160        20
35.170         0
35.180        13
35.190        13
35.200        20
35.210        13
35.220        20
35.230         7
35.240        13
35.250        20
35.260        20
35.270        33
35.280         7
35.290        20
35.300        13
35.310        20
35.320         7
35.330         7
35.340         7
35.350        13
35.360        27
35.370         7
35.380        13
35.390        13
35.400        13
35.410         0
35.420        13
35.430         0
35.440        13
35.450         7
35.460         7
35.470        13
35.480        20
35.490        47
35.500        13
35.510         7
35.520        20
35.530        13
35.540        27
35.550        20
35.560        27
35.570        13
35.580        27
35.590        13
35.600         7
35.610        47
35.620        13
35.630        33
35.640        20
35.650        13
35.660        20
35.670        27
35.680        27
35.690        33
35.700        33
35.710         7
35.720         7
35.730        13
35.740        20
35.750        13
35.760        27
35.770        40
35.780        27
35.790        13
35.800        13
35.810        20
35.820        40
35.830         7
35.840         7
35.850         7
35.860         7
35.870         7
35.880        20
35.890        20
35.900        13
35.910         7
35.920        13
35.930        13
35.940        13
35.950        33
35.960        33
35.970        13
35.980         0
35.990        20
36.000        27
36.010        20
36.020         0
36.030        13
36.040        13
36.050        47
36.060        27
36.070        40
36.080         0
36.090        20
36.100        27
36.110        20
36.120         7
36.130        13
36.140        13
36.150         7
36.160        13
36.170        53
36.180        20
36.190        20
36.200        33
36.210        13
36.220        33
36.230        27
36.240        13
36.250        27
36.260        20
36.270        13
36.280        13
36.290        20
36.300        27
36.310        13
36.320        20
36.330        20
36.340         7
36.350        20
36.360        33
36.370        13
36.380        20
36.390         0
36.400        40
36.410        20
36.420        27
36.430        13
36.440         7
36.450        27
36.460        13
36.470         0
36.480        27
36.490        27
36.500         7
36.510        40
36.520        27
36.530        27
36.540        20
36.550        40
36.560        27
36.570         0
36.580        13
36.590        27
36.600         0
36.610         7
36.620         7
36.630        20
36.640         7
36.650        13
36.660        13
36.670         7
36.680        20
36.690         7
36.700        13
36.710        27
36.720        13
36.730        13
36.740        13
36.750         7
36.760        13
36.770         7
36.780         7
36.790         7
36.800        20
36.810         7
36.820        13
36.830         0
36.840        53
36.850         7
36.860        20
36.870        20
36.880        27
36.890         7
36.900         7
36.910        20
36.920        13
36.930        20
36.940        20
36.950        27
36.960        20
36.970        13
36.980        13
36.990         7
37.000         0
37.010        13
37.020        20
37.030         7
37.040        13
37.050         7
37.060        27
37.070        27
37.080         0
37.090        13
37.100        13
37.110         7
37.120        20
37.130        27
37.140        33
37.150         7
37.160        33
37.170         7
37.180        20
37.190        33
37.200         7
37.210        13
37.220        13
37.230        47
37.240        40
37.250         7
37.260        13
37.270         7
37.280         0
37.290        13
37.300        20
37.310        40
37.320         7
37.330        20
37.340        13
37.350        13
37.360         0
37.370        40
37.380         7
37.390        13
37.400        27
37.410        13
37.420         7
37.430         0
37.440        20
37.450        13
37.460         0
37.470         0
37.480        27
37.490        20
37.500         7
37.510         7
37.520        20
37.530        13
37.540        20
37.550        13
37.560         0
37.570         7
37.580        33
37.590        20
37.600        27
37.610        13
37.620        13
37.630        40
37.640         7
37.650        27
37.660         7
37.670        20
37.680        13
37.690         7
37.700         7
37.710        53
37.720        13
37.730        20
37.740        20
37.750        20
37.760        20
37.770        13
37.780        40
37.790         7
37.800        20
37.810        13
37.820        13
37.830         0
37.840        13
37.850        20
37.860         7
37.870        13
37.880         0
37.890        20
37.900        13
37.910        27
37.920        27
37.930        20
37.940         7
37.950        33
37.960        20
37.970         0
37.980        20
37.990        33
38.000        13
38.010        13
38.020        27
38.030         7
38.040         7
38.050         7
38.060        13
38.070        20
38.080        27
38.090        20
38.100        27
38.110        20
38.120        33
38.130        27
38.140        27
38.150        13
38.160        27
38.170        47
38.180        40
38.190        33
38.200        53
38.210        33
38.220        40
38.230        47
38.240        33
38.250        27
38.260        20
38.270        53
38.280        40
38.290        53
38.300        27
38.310        80
38.320        53
38.330        80
38.340        87
38.350       120
38.360       100
38.370        87
38.380       207
38.390       107
38.400        87
38.410       280
38.420       293
38.430       213
38.440       220
38.450       213
38.460       233
38.470       260
38.480       227
38.490       193
38.500       153
38.510       180
38.520       173
38.530       133
38.540       100
38.550       167
38.560       160
38.570       200
38.580        80
38.590       120
38.600       127
38.610        53
38.620        20
38.630        20
38.640        20
38.650        60
38.660        13
38.670        47
38.680        47
38.690        47
38.700        60
38.710        27
38.720        27
38.730        20
38.740         0
38.750        13
38.760        13
38.770        27
38.780        20
38.790        27
38.800         7
38.810        20
38.820        27
38.830        20
38.840        47
38.850         7
38.860        13
38.870        33
38.880        13
38.890        20
38.900         7
38.910        13
38.920        13
38.930        13
38.940         7
38.950        20
38.960        27
38.970        20
38.980        53
38.990         7
39.000         7
39.010        13
39.020        20
39.030        13
39.040        27
39.050         0
39.060        13
39.070         7
39.080        33
39.090        60
39.100        27
39.110        27
39.120        13
39.130        47
39.140         7
39.150        20
39.160        13
39.170         7
39.180        33
39.190         7
39.200        40
39.210        27
39.220         0
39.230        20
39.240        20
39.250        53
39.260        40
39.270        20
39.280        13
39.290         7
39.300        27
39.310         0
39.320        20
39.330        20
39.340        13
39.350        33
39.360        20
39.370        47
39.380        20
39.390        13
39.400        13
39.410        20
39.420        20
39.430        27
39.440        27
39.450        27
39.460         0
39.470        20
39.480        27
39.490         7
39.500         7
39.510         7
39.520         7
39.530        40
39.540        33
39.550         7
39.560        33
39.570        13
39.580         7
39.590        27
39.600         7
39.610        20
39.620        20
39.630         7
39.640        13
39.650        13
39.660        20
39.670        20
39.680         7
39.690        53
39.700        27
39.710         0
39.720        27
39.730        13
39.740        20
39.750        20
39.760        27
39.770        13
39.780        27
39.790        20
39.800        13
39.810        40
39.820        13
39.830        13
39.840         0
39.850        27
39.860        27
39.870        13
39.880        20
39.890         0
39.900         7
39.910        13
39.920        20
39.930        20
39.940        20
39.950        20
39.960        20
39.970         7
39.980         0
39.990        33
40.000        20
40.010         7
40.020        13
40.030        20
40.040         7
40.050         7
40.060         7
40.070        20
40.080        13
40.090         7
40.100         7
40.110        20
40.120        13
40.130        20
40.140         7
40.150        27
40.160        13
40.170        13
40.180        20
40.190        33
40.200        33
40.210        33
40.220        20
40.230         7
40.240        33
40.250        40
40.260         0
40.270         7
40.280        13
40.290        13
40.300        13
40.310         7
40.320        13
40.330        20
40.340         7
40.350         7
40.360        13
40.370        13
40.380         0
40.390         0
40.400         7
40.410        13
40.420        13
40.430        33
40.440        33
40.450        40
40.460        47
40.470        20
40.480        20
40.490        40
40.500        20
40.510        13
40.520        33
40.530         0
40.540        13
40.550        20
40.560        20
40.570         7
40.580        27
40.590         7
40.600        20
40.610         7
40.620        13
40.630        13
40.640         0
40.650        13
40.660        27
40.670        27
40.680         0
40.690         7
40.700        40
40.710         7
40.720        40
40.730        13
40.740        20
40.750        13
40.760        27
40.770        13
40.780         7
40.790        20
40.800         7
40.810        20
40.820         7
40.830        13
40.840        40
40.850        27
40.860         0
40.870        47
40.880        13
40.890        13
40.900        13
40.910         7
40.920        20
40.930        27
40.940        13
40.950        13
40.960         7
40.970         0
40.980        13
40.990        27
41.000        20
41.010        13
41.020         0
41.030         7
41.040         7
41.050        13
41.060         7
41.070        20
41.080        20
41.090        33
41.100        20
41.110        13
41.120        13
41.130        33
41.140         7
41.150         7
41.160         0
41.170        13
41.180        13
41.190        13
41.200        13
41.210        27
41.220         0
41.230        13
41.240         7
41.250         0
41.260        47
41.270        13
41.280        40
41.290        20
41.300         7
41.310         7
41.320        20
41.330        20
41.340         7
41.350        33
41.360        20
41.370         7
41.380        27
41.390        20
41.400        47
41.410         7
41.420        13
41.430        20
41.440         7
41.450        13
41.460         7
41.470        13
41.480         7
41.490        20
41.500        20
41.510        27
41.520         7
41.530         0
41.540        20
41.550        20
41.560        13
41.570        33
41.580         7
41.590        13
41.600         0
41.610        13
41.620        13
41.630        33
41.640        20
41.650        33
41.660        13
41.670        13
41.680        27
41.690         7
41.700        20
41.710        13
41.720        13
41.730         7
41.740        13
41.750         7
41.760         7
41.770        27
41.780         7
41.790        33
41.800         7
41.810        13
41.820        20
41.830        13
41.840        27
41.850        20
41.860         0
41.870        13
41.880         0
41.890        13
41.900         7
41.910        33
41.920        20
41.930        40
41.940         7
41.950        20
41.960        13
41.970         7
41.980         0
41.990        27
42.000         7
42.010         7
42.020        20
42.030        40
42.040        27
42.050        20
42.060         7
42.070        20
42.080        13
42.090        13
42.100         7
42.110         7
42.120        27
42.130        33
42.140        47
42.150        20
42.160        27
42.170        20
42.180         7
42.190         7
42.200         7
42.210        27
42.220         0
42.230        20
42.240        13
42.250         0
42.260        40
42.270        27
42.280        20
42.290        13
42.300         7
42.310        13
42.320        13
42.330         0
42.340        20
42.350         7
42.360        27
42.370         0
42.380        20
42.390        13
42.400        20
42.410        13
42.420        13
42.430        20
42.440         7
42.450        27
42.460        27
42.470        20
42.480        20
42.490        20
42.500        47
42.510         0
42.520        13
42.530        20
42.540        40
42.550         0
42.560        20
42.570         7
42.580        33
42.590        20
42.600        13
42.610        13
42.620        33
42.630        40
42.640         7
42.650        13
42.660        27
42.670        27
42.680        13
42.690        40
42.700        20
42.710        20
42.720        20
42.730        27
42.740         7
42.750        33
42.760         0
42.770        13
42.780        27
42.790        20
42.800        27
42.810         7
42.820        20
42.830        13
42.840        20
42.850        27
42.860        27
42.870        27
42.880        20
42.890         7
42.900        13
42.910         7
42.920         7
42.930        20
42.940        20
42.950        27
42.960        13
42.970        20
42.980         0
42.990        20
43.000        20
43.010        33
43.020        20
43.030        27
43.040        27
43.050        27
43.060        27
43.070         7
43.080        33
43.090        13
43.100        13
43.110        13
43.120        33
43.130        27
43.140        20
43.150        20
43.160        20
43.170        13
43.180        13
43.190        47
43.200        20
43.210        13
43.220        33
43.230        13
43.240         7
43.250        20
43.260        13
43.270        40
43.280         7
43.290         7
43.300        13
43.310        27
43.320        13
43.330        13
43.340         7
43.350         7
43.360        13
43.370        20
43.380        33
43.390        13
43.400         7
43.410        20
43.420        20
43.430        27
43.440        13
43.450        27
43.460        27
43.470        13
43.480        27
43.490        33
43.500         7
43.510        33
43.520        13
43.530        13
43.540        20
43.550        27
43.560        13
43.570        40
43.580        27
43.590        27
43.600         7
43.610        13
43.620        13
43.630        13
43.640        33
43.650        20
43.660         7
43.670        13
43.680         7
43.690        20
43.700        13
43.710         0
43.720         7
43.730        13
43.740        13
43.750        20
43.760        20
43.770        20
43.780        27
43.790        13
43.800         0
43.810        20
43.820        40
43.830         7
43.840         7
43.850        13
43.860        33
43.870        20
43.880        33
43.890         0
43.900        13
43.910        27
43.920         0
43.930        27
43.940         7
43.950        27
43.960        13
43.970         7
43.980        13
43.990        20
44.000         7
44.010         7
44.020         7
44.030        13
44.040        27
44.050        20
44.060        20
44.070        27
44.080        13
44.090        27
44.100        20
44.110        13
44.120        13
44.130        13
44.140        13
44.150         7
44.160         7
44.170        33
44.180        13
44.190        27
44.200        27
44.210        27
44.220        27
44.230        33
44.240         7
44.250         7
44.260        13
44.270        20
44.280         0
44.290         0
44.300        40
44.310        20
44.320        27
44.330        13
44.340        27
44.350        33
44.360        27
44.370        20
44.380         7
44.390        20
44.400        20
44.410        20
44.420        27
44.430        40
44.440        40
44.450        60
44.460        40
44.470        60
44.480        27
44.490        20
44.500        33
44.510         7
44.520        40
44.530        47
44.540        73
44.550        73
44.560        73
44.570        40
44.580        40
44.590        80
44.600        40
44.610        53
44.620        73
44.630        67
44.640        53
44.650        60
44.660        87
44.670        80
44.680        53
44.690        47
44.700        87
44.710        73
44.720        80
44.730       107
44.740        60
44.750        87
44.760        40
44.770        73
44.780        53
44.790        33
44.800        53
44.810        60
44.820        27
44.830        53
44.840        20
44.850        27
44.860        60
44.870        13
44.880        40
44.890        40
44.900        33
44.910        40
44.920        47
44.930        33
44.940        27
44.950        20
44.960        20
44.970        27
44.980        20
44.990        47
45.000        27
45.010        40
45.020        27
45.030        13
45.040        27
45.050         7
45.060        47
45.070        27
45.080        40
45.090        27
45.100        20
45.110        13
45.120        20
45.130        13
45.140        20
45.150        33
45.160        20
45.170        27
45.180        20
45.190        13
45.200        20
45.210         7
45.220        20
45.230        33
45.240         7
45.250         7
45.260        20
45.270        33
45.280        27
45.290        20
45.300        13
45.310        33
45.320        33
45.330        20
45.340        53
45.350        13
45.360        13
45.370        53
45.380         0
45.390         7
45.400        13
45.410        13
45.420        20
45.430        20
45.440         7
45.450        13
45.460        13
45.470        13
45.480        13
45.490         0
45.500        33
45.510        13
45.520         0
45.530        13
45.540        20
45.550        53
45.560         7
45.570        13
45.580         0
45.590        13
45.600        20
45.610        33
45.620        20
45.630        33
45.640        27
45.650        13
45.660         7
45.670        13
45.680         7
45.690        33
45.700        27
45.710        13
45.720        13
45.730        47
45.740        33
45.750        13
45.760        27
45.770        13
45.780         0
45.790        13
45.800        27
45.810        13
45.820        47
45.830        13
45.840         7
45.850        20
45.860        27
45.870         7
45.880        33
45.890        20
45.900         7
45.910         7
45.920        20
45.930         7
45.940         7
45.950        27
45.960        20
45.970         0
45.980        33
45.990        20
46.000        20
46.010        47
46.020         7
46.030        20
46.040        20
46.050        27
46.060        27
46.070         7
46.080        13
46.090         7
46.100         7
46.110        27
46.120        20
46.130        13
46.140        13
46.150         0
46.160        27
46.170         7
46.180        13
46.190        27
46.200         7
46.210         7
46.220        13
46.230         7
46.240        33
46.250        33
46.260        47
46.270        27
46.280        13
46.290        27
46.300        13
46.310        53
46.320         7
46.330         7
46.340        13
46.350        20
46.360        20
46.370        20
46.380         0
46.390        13
46.400        20
46.410         7
46.420        13
46.430        13
46.440        13
46.450        27
46.460        27
46.470        13
46.480        27
46.490         0
46.500        27
46.510        13
46.520        13
46.530        53
46.540         0
46.550        20
46.560        20
46.570         7
46.580         7
46.590         0
46.600        20
46.610        27
46.620         7
46.630         7
46.640        27
46.650         7
46.660        27
46.670         7
46.680         7
46.690        20
46.700        27
46.710        13
46.720        13
46.730         0
46.740         7
46.750         7
46.760        13
46.770        13
46.780         7
46.790        13
46.800         7
46.810         0
46.820        13
46.830         0
46.840         7
46.850        27
46.860         7
46.870        13
46.880         7
46.890         7
46.900        13
46.910        13
46.920         7
46.930        33
46.940        20
46.950        20
46.960        13
46.970        20
46.980        13
46.990        40
47.000        27
47.010         7
47.020        13
47.030        20
47.040        13
47.050         7
47.060        20
47.070        20
47.080        33
47.090         7
47.100        27
47.110        27
47.120        13
47.130        20
47.140         7
47.150         0
47.160        33
47.170        27
47.180        47
47.190        20
47.200        33
47.210        13
47.220        33
47.230        13
47.240        13
47.250         7
47.260        33
47.270         7
47.280        20
47.290        20
47.300        13
47.310        13
47.320        13
47.330        33
47.340        20
47.350        13
47.360        40
47.370        20
47.380        27
47.390        53
47.400        27
47.410        13
47.420        33
47.430        27
47.440        20
47.450        20
47.460        27
47.470        13
47.480        27
47.490         7
47.500        13
47.510        13
47.520         0
47.530        27
47.540        20
47.550        13
47.560        27
47.570        33
47.580         0
47.590         7
47.600        13
47.610        27
47.620        13
47.630        20
47.640        33
47.650        13
47.660        27
47.670         7
47.680         7
47.690        13
47.700        13
47.710        27
47.720        13
47.730        47
47.740         7
47.750        13
47.760         7
47.770        13
47.780        27
47.790        33
47.800         7
47.810        20
47.820         0
47.830         7
47.840         7
47.850        27
47.860        20
47.870        13
47.880        13
47.890         7
47.900        27
47.910        20
47.920        27
47.930        20
47.940         7
47.950        20
47.960        27
47.970        40
47.980         7
47.990         7
48.000         0
48.010        20
48.020        20
48.030        13
48.040        20
48.050        20
48.060        27
48.070         0
48.080        20
48.090         7
48.100        13
48.110        27
48.120         7
48.130        33
48.140        20
48.150        40
48.160        60
48.170        20
48.180        20
48.190         7
48.200        20
48.210        13
48.220        20
48.230        13
48.240        13
48.250        27
48.260        20
48.270         7
48.280        20
48.290        40
48.300        13
48.310       160
48.320        20
48.330        20
48.340        27
48.350        13
48.360         7
48.370         7
48.380        27
48.390        20
48.400        20
48.410        40
48.420        53
48.430        27
48.440        13
48.450        20
48.460        20
48.470        13
48.480        20
48.490        27
48.500        13
48.510        13
48.520        20
48.530        27
48.540        13
48.550        20
48.560        53
48.570        27
48.580        33
48.590        20
48.600        20
48.610        20
48.620        20
48.630        27
48.640        20
48.650        20
48.660        20
48.670        20
48.680        27
48.690        27
48.700         7
48.710         7
48.720        20
48.730         0
48.740        27
48.750         0
48.760        20
48.770         7
48.780        40
48.790         7
48.800         0
48.810        20
48.820         7
48.830        13
48.840        33
48.850        27
48.860         7
48.870         7
48.880         7
48.890         7
48.900        27
48.910        27
48.920        13
48.930         7
48.940         7
48.950        40
48.960        20
48.970        13
48.980        13
48.990        13
49.000        13
49.010         0
49.020        20
49.030        27
49.040        13
49.050        13
49.060        27
49.070        20
49.080        13
49.090         7
49.100        27
49.110         0
49.120         7
49.130        13
49.140        20
49.150        13
49.160        27
49.170        27
49.180         7
49.190         7
49.200         7
49.210        13
49.220         7
49.230        13
49.240        20
49.250        13
49.260        13
49.270         7
49.280        13
49.290        13
49.300        33
49.310        33
49.320        13
49.330        33
49.340         7
49.350        27
49.360        40
49.370        20
49.380        13
49.390        13
49.400        20
49.410         7
49.420        20
49.430        13
49.440         0
49.450        20
49.460        27
49.470         0
49.480         7
49.490        20
49.500        33
49.510        20
49.520         7
49.530         7
49.540        13
49.550        33
49.560         7
49.570        20
49.580         7
49.590        27
49.600         7
49.610         7
49.620        20
49.630        13
49.640        13
49.650        47
49.660         7
49.670         7
49.680        27
49.690        33
49.700        13
49.710        20
49.720        27
49.730         0
49.740        13
49.750         0
49.760        13
49.770        20
49.780        33
49.790        20
49.800         0
49.810         7
49.820        27
49.830        13
49.840         7
49.850        13
49.860        33
49.870        27
49.880         7
49.890        20
49.900        20
49.910        20
49.920        13
49.930        27
49.940        13
49.950        20
49.960        47
49.970        40
49.980         7
49.990        27
50.000        27
50.010        13
50.020        33
50.030         7
50.040        13
50.050        33
50.060        20
50.070        20
50.080        27
50.090        20
50.100         7
50.110        20
50.120        40
50.130         0
50.140        20
50.150        60
50.160        13
50.170        20
50.180        13
50.190        27
50.200        20
50.210        33
50.220        27
50.230         0
50.240        33
50.250        27
50.260        53
50.270        53
50.280        33
50.290        27
50.300        20
50.310        33
50.320        47
50.330        27
50.340        20
50.350        33
50.360        67
50.370         7
50.380        27
50.390        20
50.400        33
50.410        20
50.420        27
50.430        20
50.440        13
50.450        13
50.460         7
50.470        13
50.480         7
50.490        13
50.500         7
50.510        13
50.520        33
50.530        47
50.540        27
50.550        27
50.560        40
50.570        27
50.580        13
50.590        27
50.600        27
50.610        13
50.620        13
50.630        27
50.640        13
50.650         7
50.660        27
50.670         7
50.680        20
50.690        13
50.700        13
50.710        20
50.720        13
50.730        20
50.740        13
50.750         7
50.760        13
50.770         0
50.780        27
50.790         0
50.800        27
50.810         7
50.820        13
50.830        20
50.840         7
50.850        33
50.860        13
50.870         7
50.880         7
50.890        20
50.900        13
50.910        13
50.920        27
50.930        20
50.940        20
50.950        27
50.960        20
50.970         7
50.980        33
50.990        13
51.000        20
51.010        40
51.020         7
51.030         7
51.040        13
51.050        13
51.060         0
51.070        20
51.080        13
51.090        47
51.100        13
51.110        13
51.120         7
51.130        20
51.140        27
51.150        27
51.160        20
51.170         7
51.180        20
51.190        20
51.200        33
51.210        20
51.220         7
51.230         7
51.240         7
51.250        20
51.260        27
51.270        20
51.280        13
51.290         7
51.300        20
51.310        27
51.320         7
51.330        40
51.340        20
51.350         0
51.360         7
51.370         7
51.380        20
51.390        27
51.400        13
51.410        53
51.420        33
51.430        33
51.440        13
51.450        13
51.460        13
51.470        13
51.480        33
51.490        27
51.500        20
51.510         7
51.520        20
51.530        13
51.540        47
51.550         0
51.560         7
51.570        20
51.580        33
51.590        27
51.600        27
51.610        13
51.620        47
51.630        13
51.640        20
51.650        27
51.660        40
51.670        13
51.680         0
51.690        20
51.700        40
51.710         0
51.720        27
51.730        27
51.740        20
51.750        27
51.760        20
51.770        13
51.780        20
51.790        33
51.800        27
51.810         0
51.820        40
51.830        20
51.840         0
51.850        27
51.860        33
51.870        40
51.880         7
51.890        13
51.900         0
51.910        27
51.920        13
51.930        13
51.940        53
51.950        20
51.960        33
51.970        27
51.980         0
51.990        40
52.000        27
52.010        33
52.020        47
52.030        20
52.040        20
52.050        27
52.060         0
52.070        13
52.080         7
52.090        27
52.100         7
52.110        40
52.120        13
52.130        40
52.140         0
52.150        33
52.160         7
52.170        20
52.180        27
52.190        47
52.200        27
52.210        13
52.220        20
52.230        33
52.240        13
52.250        27
52.260        20
52.270        33
52.280        33
52.290        27
52.300        33
52.310        33
52.320        20
52.330        33
52.340        33
52.350        40
52.360        27
52.370        27
52.380        27
52.390        40
52.400        20
52.410        13
52.420        33
52.430        27
52.440        20
52.450        67
52.460        40
52.470        93
52.480        40
52.490       107
52.500        53
52.510        87
52.520        53
52.530        73
52.540        73
52.550       100
52.560       107
52.570        93
52.580       127
52.590       127
52.600       120
52.610       100
52.620        87
52.630       120
52.640        80
52.650       107
52.660        53
52.670       113
52.680        73
52.690       107
52.700        87
52.710       120
52.720        73
52.730        60
52.740       113
52.750        87
52.760        27
52.770        60
52.780        73
52.790        27
52.800        60
52.810        47
52.820        33
52.830        40
52.840        13
52.850        27
52.860        27
52.870        27
52.880        27
52.890        20
52.900        20
52.910        13
52.920        27
52.930        67
52.940        40
52.950        13
52.960        13
52.970        20
52.980         7
52.990        20
53.000        27
53.010        40
53.020        27
53.030        13
53.040        13
53.050        13
53.060        47
53.070        13
53.080        27
53.090        33
53.100         7
53.110         7
53.120        27
53.130        40
53.140        27
53.150        20
53.160        27
53.170        20
53.180        20
53.190        27
53.200         7
53.210        13
53.220         7
53.230        33
53.240        33
53.250        27
53.260        20
53.270         7
53.280        33
53.290        13
53.300        27
53.310         7
53.320        13
53.330        27
53.340         7
53.350        13
53.360         7
53.370         7
53.380        13
53.390        27
53.400        60
53.410        53
53.420        33
53.430        20
53.440        20
53.450         0
53.460        33
53.470        33
53.480         7
53.490        27
53.500         0
53.510        33
53.520        40
53.530        27
53.540        20
53.550         7
53.560         0
53.570        27
53.580        20
53.590         7
53.600        13
53.610        27
53.620        47
53.630        20
53.640         7
53.650        13
53.660        13
53.670         0
53.680        13
53.690        13
53.700        13
53.710        13
53.720        27
53.730        13
53.740        20
53.750        33
53.760        20
53.770        13
53.780         7
53.790        27
53.800        20
53.810        33
53.820         7
53.830         0
53.840        40
53.850        20
53.860        13
53.870        27
53.880        40
53.890        13
53.900        13
53.910        47
53.920         7
53.930        13
53.940        27
53.950        20
53.960        13
53.970         7
53.980        33
53.990        33
54.000        20
54.010        13
54.020         7
54.030        33
54.040        40
54.050        40
54.060        13
54.070         7
54.080        20
54.090        20
54.100        40
54.110        13
54.120        13
54.130        13
54.140        27
54.150        20
54.160        13
54.170        13
54.180        27
54.190        13
54.200        20
54.210        20
54.220        20
54.230        27
54.240        13
54.250         0
54.260        33
54.270        20
54.280         7
54.290        33
54.300        27
54.310        27
54.320        13
54.330        27
54.340        13
54.350        13
54.360        33
54.370        20
54.380        13
54.390         7
54.400        33
54.410        20
54.420        20
54.430        27
54.440        27
54.450        13
54.460         0
54.470         7
54.480        13
54.490         7
54.500         7
54.510        13
54.520        40
54.530        27
54.540         7
54.550        40
54.560        33
54.570        13
54.580        13
54.590        20
54.600        13
54.610        13
54.620        20
54.630        13
54.640        13
54.650        20
54.660        13
54.670        27
54.680        20
54.690        13
54.700        13
54.710        20
54.720        13
54.730        27
54.740        33
54.750         7
54.760         7
54.770        33
54.780        27
54.790         0
54.800        13
54.810        47
54.820         7
54.830        13
54.840        13
54.850        33
54.860        33
54.870        27
54.880        13
54.890         7
54.900        13
54.910         0
54.920        27
54.930        33
54.940        13
54.950        33
54.960        27
54.970        27
54.980        40
54.990        27
55.000        13
55.010        20
55.020        33
55.030        20
55.040        27
55.050        13
55.060        13
55.070        27
55.080        33
55.090        27
55.100        47
55.110        60
55.120        20
55.130        47
55.140        13
55.150        20
55.160        33
55.170        27
55.180        40
55.190        27
55.200        53
55.210        47
55.220        40
55.230        80
55.240        27
55.250        73
55.260       100
55.270        93
55.280        80
55.290       107
55.300        60
55.310       167
55.320       120
55.330       127
55.340       133
55.350       220
55.360       220
55.370       273
55.380       193
55.390       240
55.400       233
55.410       267
55.420       193
55.430       280
55.440       293
55.450       313
55.460       380
55.470       300
55.480       327
55.490       313
55.500       433
55.510       353
55.520       347
55.530       373
55.540       213
55.550       260
55.560       253
55.570       300
55.580       307
55.590       293
55.600       267
55.610       287
55.620       207
55.630       240
55.640       207
55.650       187
55.660       187
55.670       160
55.680       233
55.690       100
55.700       193
55.710       113
55.720       147
55.730       120
55.740       100
55.750        67
55.760        93
55.770       120
55.780       113
55.790        87
55.800        47
55.810        60
55.820        60
55.830        80
55.840        20
55.850        80
55.860        47
55.870        20
55.880        73
55.890        60
55.900        13
55.910        33
55.920        27
55.930        40
55.940        13
55.950        20
55.960        33
55.970        27
55.980         7
55.990        33
56.000        27
56.010        13
56.020         7
56.030        13
56.040        33
56.050        27
56.060        13
56.070        13
56.080         7
56.090        13
56.100        27
56.110        47
56.120        47
56.130         7
56.140        47
56.150        13
56.160        13
56.170        40
56.180        20
56.190         0
56.200         7
56.210        20
56.220        27
56.230        53
56.240        13
56.250        20
56.260        13
56.270        13
56.280         7
56.290        13
56.300        13
56.310        13
56.320        27
56.330        20
56.340         7
56.350        20
56.360        20
56.370        27
56.380         7
56.390        33
56.400         0
56.410        33
56.420        27
56.430        20
56.440         7
56.450        20
56.460        13
56.470        13
56.480        13
56.490        20
56.500        13
56.510        13
56.520        27
56.530        13
56.540        13
56.550        13
56.560        20
56.570        40
56.580         7
56.590        13
56.600        13
56.610        20
56.620        20
56.630        60
56.640        33
56.650        27
56.660        13
56.670        13
56.680        27
56.690         0
56.700        33
56.710        20
56.720        20
56.730         7
56.740        20
56.750        20
56.760        33
56.770         7
56.780        27
56.790        27
56.800         7
56.810        20
56.820        13
56.830        13
56.840        27
56.850        20
56.860        20
56.870        20
56.880         0
56.890        13
56.900        20
56.910        13
56.920        13
56.930        33
56.940        20
56.950        13
56.960        20
56.970         0
56.980        13
56.990        27
57.000        40
57.010        20
57.020        13
57.030        13
57.040         7
57.050        13
57.060        33
57.070        13
57.080         7
57.090        27
57.100         7
57.110        20
57.120        27
57.130        27
57.140         7
57.150        27
57.160        40
57.170        27
57.180        20
57.190         7
57.200        27
57.210        13
57.220        20
57.230        40
57.240        27
57.250         0
57.260         7
57.270         7
57.280        27
57.290         7
57.300        13
57.310         7
57.320         7
57.330        13
57.340        20
57.350        13
57.360        33
57.370        27
57.380        13
57.390         0
57.400        20
57.410        27
57.420        13
57.430         7
57.440        20
57.450         0
57.460        13
57.470         7
57.480         7
57.490        27
57.500         7
57.510        20
57.520         7
57.530        27
57.540         7
57.550        47
57.560        20
57.570         7
57.580         7
57.590         7
57.600        13
57.610        27
57.620        27
57.630        13
57.640        33
57.650        13
57.660        27
57.670        20
57.680        13
57.690         7
57.700        13
57.710        27
57.720         0
57.730        13
57.740         7
57.750        20
57.760        40
57.770        13
57.780        27
57.790        20
57.800        27
57.810         0
57.820        13
57.830        13
57.840        27
57.850         7
57.860        40
57.870         7
57.880         7
57.890        20
57.900         7
57.910        13
57.920        20
57.930        13
57.940        13
57.950        20
57.960         7
57.970        20
57.980        20
57.990         7
58.000        13
58.010        20
58.020        13
58.030        33
58.040        33
58.050        13
58.060        13
58.070        13
58.080        13
58.090         0
58.100        13
58.110        20
58.120        13
58.130        20
58.140         7
58.150        13
58.160        13
58.170        13
58.180         7
58.190         0
58.200         7
58.210         7
58.220         7
58.230         7
58.240         7
58.250        20
58.260        20
58.270        20
58.280        13
58.290        27
58.300        20
58.310        13
58.320         0
58.330        13
58.340        20
58.350         7
58.360        20
58.370        13
58.380         7
58.390         7
58.400        20
58.410        20
58.420        40
58.430         7
58.440        13
58.450        27
58.460        33
58.470        20
58.480        13
58.490         7
58.500        13
58.510        13
58.520        13
58.530        27
58.540         7
58.550        27
58.560         7
58.570        20
58.580        13
58.590        13
58.600         0
58.610         7
58.620        20
58.630        13
58.640        13
58.650        13
58.660        27
58.670        20
58.680        13
58.690        13
58.700         7
58.710        27
58.720        33
58.730         0
58.740        20
58.750        13
58.760        13
58.770        20
58.780         7
58.790         7
58.800         7
58.810        20
58.820        20
58.830        13
58.840         7
58.850        13
58.860        27
58.870         7
58.880         7
58.890        20
58.900         7
58.910        20
58.920         0
58.930         7
58.940        20
58.950        20
58.960         7
58.970        13
58.980        27
58.990         7
59.000        13
59.010         7
59.020         7
59.030        27
59.040        13
59.050         0
59.060         7
59.070        13
59.080        13
59.090         7
59.100        13
59.110        33
59.120         7
59.130         0
59.140         7
59.150        13
59.160         7
59.170        20
59.180         7
59.190         7
59.200        13
59.210        13
59.220         0
59.230        13
59.240        13
59.250         7
59.260         7
59.270         7
59.280         7
59.290         7
59.300         0
59.310        20
59.320        27
59.330         7
59.340        13
59.350         7
59.360         7
59.370         7
59.380        33
59.390        13
59.400         7
59.410        13
59.420        13
59.430         0
59.440         0
59.450         7
59.460         0
59.470        13
59.480         7
59.490        13
59.500         0
59.510         7
59.520        27
59.530         7
59.540        13
59.550         7
59.560         7
59.570        20
59.580        27
59.590         7
59.600        13
59.610        20
59.620        13
59.630        13
59.640        20
59.650        13
59.660        20
59.670        27
59.680         0
59.690         7
59.700         0
59.710        20
59.720        20
59.730        20
59.740        13
59.750         7
59.760        13
59.770        20
59.780         7
59.790         7
59.800        13
59.810        13
59.820        20
59.830        13
59.840        20
59.850        20
59.860         7
59.870        33
59.880         0
59.890        13
59.900        33
59.910         7
59.920        27
59.930         7
59.940         7
59.950        27
59.960        20
59.970        13
59.980        13
59.990        20
60.000        20
