20.000       513
20.010       513
20.020       626
20.030       526
20.040       593
20.050       540
20.060       553
20.070       626
20.080       626
20.090       500
20.100       566
20.110       520
20.120       480
20.130       493
20.140       606
20.150       360
20.160       453
20.170       553
20.180       500
20.190       460
20.200       506
20.210       526
20.220       586
20.230       480
20.240       586
20.250       453
20.260       533
20.270       420
20.280       553
20.290       426
20.300       513
20.310       553
20.320       533
20.330       387
20.340       500
20.350       400
20.360       580
20.370       486
20.380       513
20.390       520
20.400       500
20.410       426
20.420       426
20.430       520
20.440       513
20.450       433
20.460       520
20.470       526
20.480       493
20.490       460
20.500       480
20.510       440
20.520       466
20.530       407
20.540       473
20.550       493
20.560       526
20.570       453
20.580       460
20.590       426
20.600       440
20.610       393
20.620       380
20.630       520
20.640       486
20.650       493
20.660       493
20.670       420
20.680       573
20.690       526
20.700       526
20.710       500
20.720       473
20.730       333
20.740       520
20.750       407
20.760       520
20.770       433
20.780       426
20.790       480
20.800       493
20.810       433
20.820       420
20.830       473
20.840       533
20.850       307
20.860       453
20.870       526
20.880       506
20.890       433
20.900       500
20.910       347
20.920       520
20.930       413
20.940       400
20.950       400
20.960       513
20.970       520
20.980       400
20.990       460
21.000       500
21.010       440
21.020       526
21.030       553
21.040       407
21.050       353
21.060       400
21.070       526
21.080       480
21.090       453
21.100       440
21.110       393
21.120       506
21.130       460
21.140       446
21.150       353
21.160       413
21.170       440
21.180       473
21.190       347
21.200       466
21.210       533
21.220       466
21.230       433
21.240       360
21.250       360
21.260       486
21.270       500
21.280       466
21.290       426
21.300       420
21.310       413
21.320       407
21.330       353
21.340       400
21.350       460
21.360       380
21.370       413
21.380       433
21.390       460
21.400       466
21.410       460
21.420       413
21.430       353
21.440       466
21.450       433
21.460       420
21.470       407
21.480       493
21.490       460
21.500       373
21.510       380
21.520       453
21.530       333
21.540       473
21.550       393
21.560       446
21.570       393
21.580       347
21.590       426
21.600       480
21.610       380
21.620       453
21.630       373
21.640       440
21.650       367
21.660       353
21.670       367
21.680       513
21.690       453
21.700       486
21.710       387
21.720       400
21.730       347
21.740       367
21.750       400
21.760       347
21.770       486
21.780       333
21.790       473
21.800       420
21.810       413
21.820       340
21.830       413
21.840       367
21.850       393
21.860       493
21.870       353
21.880       333
21.890       393
21.900       393
21.910       367
21.920       393
21.930       327
21.940       426
21.950       300
21.960       466
21.970       367
21.980       333
21.990       280
22.000       360
22.010       446
22.020       347
22.030       466
22.040       380
22.050       400
22.060       407
22.070       466
22.080       380
22.090       340
22.100       440
22.110       367
22.120       380
22.130       360
22.140       313
22.150       380
22.160       353
22.170       340
22.180       446
22.190       320
22.200       367
22.210       440
22.220       367
22.230       407
22.240       380
22.250       360
22.260       453
22.270       367
22.280       313
22.290       387
22.300       353
22.310       333
22.320       433
22.330       393
22.340       340
22.350       353
22.360       307
22.370       353
22.380       320
22.390       400
22.400       367
22.410       506
22.420       327
22.430       387
22.440       327
22.450       367
22.460       400
22.470       433
22.480       267
22.490       373
22.500       373
22.510       393
22.520       420
22.530       407
22.540       360
22.550       313
22.560       313
22.570       353
22.580       287
22.590       407
22.600       307
22.610       446
22.620       340
22.630       400
22.640       360
22.650       400
22.660       393
22.670       380
22.680       333
22.690       413
22.700       353
22.710       387
22.720       407
22.730       300
22.740       340
22.750       400
22.760       373
22.770       287
22.780       393
22.790       273
22.800       313
22.810       420
22.820       300
22.830       333
22.840       313
22.850       333
22.860       273
22.870       446
22.880       407
22.890       393
22.900       313
22.910       380
22.920       287
22.930       413
22.940       333
22.950       300
22.960       420
22.970       327
22.980       373
22.990       367
23.000       353
23.010       393
23.020       393
23.030       307
23.040       400
23.050       393
23.060       486
23.070       320
23.080       373
23.090       367
23.100       373
23.110       420
23.120       400
23.130       380
23.140       333
23.150       280
23.160       373
23.170       387
23.180       367
23.190       293
23.200       347
23.210       466
23.220       313
23.230       300
23.240       293
23.250       400
23.260       453
23.270       293
23.280       333
23.290       327
23.300       400
23.310       327
23.320       380
23.330       353
23.340       353
23.350       400
23.360       287
23.370       313
23.380       420
23.390       353
23.400       420
23.410       307
23.420       347
23.430       247
23.440       273
23.450       300
23.460       353
23.470       333
23.480       393
23.490       340
23.500       293
23.510       280
23.520       293
23.530       347
23.540       373
23.550       360
23.560       360
23.570       367
23.580       320
23.590       373
23.600       320
23.610       307
23.620       387
23.630       307
23.640       320
23.650       353
23.660       333
23.670       353
23.680       380
23.690       420
23.700       387
23.710       313
23.720       453
23.730       287
23.740       313
23.750       260
23.760       340
23.770       327
23.780       380
23.790       413
23.800       440
23.810       253
23.820       260
23.830       307
23.840       293
23.850       287
23.860       380
23.870       426
23.880       300
23.890       300
23.900       213
23.910       280
23.920       273
23.930       313
23.940       393
23.950       367
23.960       327
23.970       233
23.980       353
23.990       260
24.000       340
24.010       380
24.020       300
24.030       347
24.040       280
24.050       300
24.060       300
24.070       360
24.080       360
24.090       360
24.100       340
24.110       360
24.120       220
24.130       267
24.140       293
24.150       260
24.160       307
24.170       407
24.180       373
24.190       327
24.200       300
24.210       207
24.220       333
24.230       367
24.240       380
24.250       360
24.260       260
24.270       213
24.280       233
24.290       300
24.300       227
24.310       307
24.320       347
24.330       300
24.340       393
24.350       227
24.360       233
24.370       333
24.380       300
24.390       253
24.400       260
24.410       287
24.420       340
24.430       220
24.440       260
24.450       280
24.460       233
24.470       333
24.480       267
24.490       307
24.500       327
24.510       260
24.520       300
24.530       300
24.540       227
24.550       233
24.560       233
24.570       227
24.580       307
24.590       287
24.600       300
24.610       367
24.620       367
24.630       267
24.640       300
24.650       267
24.660       280
24.670       333
24.680       347
24.690       347
24.700       320
24.710       220
24.720       313
24.730       247
24.740       233
24.750       253
24.760       267
24.770       333
24.780       260
24.790       273
24.800       333
24.810       193
24.820       240
24.830       380
24.840       287
24.850       267
24.860       233
24.870       253
24.880       193
24.890       260
24.900       313
24.910       287
24.920       293
24.930       267
24.940       240
24.950       333
24.960       273
24.970       253
24.980       280
24.990       240
25.000       233
25.010       420
25.020       240
25.030       287
25.040       227
25.050       247
25.060       227
25.070       167
25.080       153
25.090       227
25.100       260
25.110       267
25.120       240
25.130       200
25.140       300
25.150       213
25.160       313
25.170       193
25.180       300
25.190       220
25.200       353
25.210       220
25.220       180
25.230       207
25.240       207
25.250       200
25.260       220
25.270       193
25.280       267
25.290       173
25.300       180
25.310       300
25.320       227
25.330       247
25.340       273
25.350       247
25.360       193
25.370       160
25.380       227
25.390       293
25.400       240
25.410       353
25.420       300
25.430       227
25.440       253
25.450       160
25.460       247
25.470       207
25.480       233
25.490       193
25.500       187
25.510       247
25.520       287
25.530       220
25.540       233
25.550       240
25.560       207
25.570       280
25.580       213
25.590       213
25.600       233
25.610       193
25.620       200
25.630       260
25.640       207
25.650       193
25.660       187
25.670       140
25.680       133
25.690       247
25.700       153
25.710       180
25.720       207
25.730       173
25.740       147
25.750       133
25.760       140
25.770       153
25.780       160
25.790        87
25.800       173
25.810       187
25.820       160
25.830       187
25.840       140
25.850       120
25.860       133
25.870       127
25.880       147
25.890        73
25.900       160
25.910       113
25.920        87
25.930       100
25.940       200
25.950       140
25.960       133
25.970       107
25.980       100
25.990       147
26.000       127
26.010       140
26.020       113
26.030       153
26.040       100
26.050       133
26.060       147
26.070       127
26.080       120
26.090       120
26.100       100
26.110       127
26.120       200
26.130       140
26.140       147
26.150       127
26.160       107
26.170       107
26.180       120
26.190       120
26.200       133
26.210       100
26.220        87
26.230       107
26.240       147
26.250        40
26.260       107
26.270        80
26.280       107
26.290       113
26.300        93
26.310       127
26.320        87
26.330        80
26.340        73
26.350       187
26.360       113
26.370        80
26.380        67
26.390       100
26.400       107
26.410       100
26.420       140
26.430        93
26.440       160
26.450       127
26.460       133
26.470       113
26.480        93
26.490       107
26.500       107
26.510        93
26.520       107
26.530       120
26.540       107
26.550       120
26.560       100
26.570       147
26.580       113
26.590       100
26.600        87
26.610       127
26.620       153
26.630       107
26.640       127
26.650        93
26.660       147
26.670       113
26.680       173
26.690       100
26.700       160
26.710       107
26.720       153
26.730       107
26.740        93
26.750       113
26.760        87
26.770       100
26.780       140
26.790        87
26.800       147
26.810       153
26.820       140
26.830        73
26.840       133
26.850       113
26.860       113
26.870       100
26.880       167
26.890       100
26.900       180
26.910        67
26.920       107
26.930        80
26.940       100
26.950       147
26.960       107
26.970       173
26.980       107
26.990       127
27.000        60
27.010       147
27.020        80
27.030       127
27.040       120
27.050       173
27.060       133
27.070       133
27.080       140
27.090        53
27.100        87
27.110       107
27.120       100
27.130       107
27.140       153
27.150        87
27.160       127
27.170        47
27.180        87
27.190        60
27.200        87
27.210       113
27.220       113
27.230       133
27.240        87
27.250       100
27.260        93
27.270        73
27.280        93
27.290        80
27.300       140
27.310        80
27.320        87
27.330       100
27.340       113
27.350        87
27.360       107
27.370        73
27.380       100
27.390       167
27.400       120
27.410        67
27.420       120
27.430        60
27.440       153
27.450       113
27.460       100
27.470        93
27.480       133
27.490        60
27.500       100
27.510        67
27.520        93
27.530       140
27.540        80
27.550       127
27.560        87
27.570       120
27.580        87
27.590        80
27.600        53
27.610       133
27.620        80
27.630       120
27.640       107
27.650        67
27.660        93
27.670        87
27.680        87
27.690        80
27.700        93
27.710        73
27.720       113
27.730        87
27.740        73
27.750       100
27.760        80
27.770        87
27.780        73
27.790       140
27.800       113
27.810        40
27.820        93
27.830        93
27.840        40
27.850        93
27.860        80
27.870        93
27.880        93
27.890        67
27.900       127
27.910       133
27.920        73
27.930        93
27.940        73
27.950        87
27.960       113
27.970       100
27.980       133
27.990       107
28.000        80
28.010       113
28.020       100
28.030        93
28.040        60
28.050        80
28.060        80
28.070        73
28.080       127
28.090        87
28.100       113
28.110        93
28.120        80
28.130        67
28.140       133
28.150       107
28.160        73
28.170       120
28.180        40
28.190        80
28.200       120
28.210       100
28.220       100
28.230       113
28.240        67
28.250        73
28.260        73
28.270        33
28.280        53
28.290       107
28.300       120
28.310        87
28.320        80
28.330        73
28.340       120
28.350        87
28.360        73
28.370        73
28.380        53
28.390       133
28.400        93
28.410        80
28.420        53
28.430        80
28.440       113
28.450        67
28.460        60
28.470       107
28.480        73
28.490        80
28.500        40
28.510        80
28.520        67
28.530        73
28.540       133
28.550        80
28.560        87
28.570       113
28.580        73
28.590        67
28.600        67
28.610        33
28.620        53
28.630        93
28.640       100
28.650       100
28.660        73
28.670        73
28.680       113
28.690        33
28.700       127
28.710       100
28.720        40
28.730        80
28.740        47
28.750        87
28.760        93
28.770        87
28.780        80
28.790       133
28.800        27
28.810        80
28.820        80
28.830       120
28.840        73
28.850        60
28.860        80
28.870        80
28.880        80
28.890        47
28.900        67
28.910       153
28.920        93
28.930       140
28.940        93
28.950       147
28.960        80
28.970       167
28.980       113
28.990       100
29.000       160
29.010       213
29.020       133
29.030       127
29.040       147
29.050       140
29.060        87
29.070       113
29.080       120
29.090       113
29.100       140
29.110       113
29.120       107
29.130       127
29.140        87
29.150       100
29.160       100
29.170        80
29.180        80
29.190       107
29.200       127
29.210        53
29.220        87
29.230       113
29.240        93
29.250        93
29.260       133
29.270       140
29.280        87
29.290       120
29.300       107
29.310       113
29.320        93
29.330       133
29.340        60
29.350        93
29.360        67
29.370       127
29.380       140
29.390       113
29.400       153
29.410       147
29.420       120
29.430       133
29.440       120
29.450       147
29.460       120
29.470        80
29.480       147
29.490        93
29.500        93
29.510       100
29.520        87
29.530       100
29.540       113
29.550       113
29.560       127
29.570        87
29.580       113
29.590       127
29.600       127
29.610        60
29.620        73
29.630       133
29.640       133
29.650        60
29.660       113
29.670       100
29.680       133
29.690        67
29.700       107
29.710        87
29.720       127
29.730        67
29.740        80
29.750       113
29.760        67
29.770        47
29.780        87
29.790        80
29.800        87
29.810       100
29.820        87
29.830        87
29.840        73
29.850        53
29.860        87
29.870       120
29.880        60
29.890       133
29.900        73
29.910       113
29.920       107
29.930        73
29.940       100
29.950       107
29.960       100
29.970        93
29.980        93
29.990       100
30.000        40
30.010       113
30.020       100
30.030        73
30.040       100
30.050        60
30.060        87
30.070        93
30.080        73
30.090       153
30.100        67
30.110        67
30.120       120
30.130       100
30.140       113
30.150        87
30.160        93
30.170        80
30.180        73
30.190        60
30.200        60
30.210       147
30.220        87
30.230        87
30.240       107
30.250        87
30.260        87
30.270       100
30.280        73
30.290       113
30.300        93
30.310       113
30.320        93
30.330       120
30.340        60
30.350       100
30.360        87
30.370        80
30.380        87
30.390       100
30.400        87
30.410        87
30.420       100
30.430       107
30.440        93
30.450        93
30.460       133
30.470       120
30.480       127
30.490       113
30.500        80
30.510        93
30.520       153
30.530       160
30.540       127
30.550        93
30.560        87
30.570        67
30.580       133
30.590        73
30.600       113
30.610       153
30.620        73
30.630        93
30.640        87
30.650        93
30.660        87
30.670       107
30.680       100
30.690       113
30.700        93
30.710       147
30.720        93
30.730       147
30.740       133
30.750        67
30.760       100
30.770        80
30.780       107
30.790       127
30.800       160
30.810        67
30.820       100
30.830        53
30.840       200
30.850       127
30.860        60
30.870       100
30.880        93
30.890       127
30.900       153
30.910       160
30.920       127
30.930        93
30.940       107
30.950        73
30.960        87
30.970        87
30.980       140
30.990       113
31.000       133
31.010       107
31.020       107
31.030       127
31.040        93
31.050       133
31.060       140
31.070       100
31.080        93
31.090        73
31.100        87
31.110        73
31.120        87
31.130       113
31.140       120
31.150       127
31.160       140
31.170       140
31.180       127
31.190       120
31.200       160
31.210       133
31.220       147
31.230       107
31.240        60
31.250       167
31.260       207
31.270       120
31.280       120
31.290       160
31.300       167
31.310       187
31.320       113
31.330       107
31.340       180
31.350       207
31.360       213
31.370       240
31.380       227
31.390       160
31.400       127
31.410       227
31.420       133
31.430       153
31.440       200
31.450       173
31.460       160
31.470       133
31.480       120
31.490       100
31.500       173
31.510       127
31.520       107
31.530       113
31.540       120
31.550       147
31.560       107
31.570        93
31.580        87
31.590       100
31.600       107
31.610       187
31.620       113
31.630       207
31.640       133
31.650       127
31.660       213
31.670       147
31.680       140
31.690       140
31.700       147
31.710       133
31.720       127
31.730       167
31.740       193
31.750       133
31.760       113
31.770       120
31.780       153
31.790       113
31.800       173
31.810       167
31.820       153
31.830       187
31.840       173
31.850       167
31.860       160
31.870       187
31.880       160
31.890       227
31.900       253
31.910       160
31.920       120
31.930       160
31.940       167
31.950       147
31.960       247
31.970       227
31.980       167
31.990       233
32.000       187
32.010       193
32.020       227
32.030       200
32.040       280
32.050       273
32.060       387
32.070       666
32.080       940
32.090      1226
32.100      1899
32.110      2053
32.120      2152
32.130      2053
32.140      2059
32.150      2053
32.160      1526
32.170      1186
32.180       746
32.190       693
32.200       440
32.210       373
32.220       280
32.230       373
32.240       347
32.250       280
32.260       260
32.270       220
32.280       247
32.290       213
32.300       160
32.310       180
32.320       160
32.330       207
32.340       167
32.350       133
32.360       200
32.370       220
32.380       160
32.390       180
32.400       187
32.410       213
32.420       100
32.430       113
32.440       253
32.450       153
32.460       140
32.470       100
32.480       133
32.490       187
32.500       173
32.510       133
32.520       107
32.530       193
32.540       120
32.550       200
32.560       207
32.570       173
32.580       153
32.590       147
32.600       180
32.610       167
32.620       113
32.630       133
32.640       160
32.650       133
32.660       140
32.670       133
32.680        87
32.690       140
32.700       167
32.710       147
32.720       153
32.730       153
32.740       140
32.750       120
32.760       160
32.770       180
32.780        93
32.790       180
32.800       113
32.810       113
32.820       160
32.830       207
32.840       193
32.850       133
32.860       140
32.870       100
32.880       113
32.890       133
32.900       140
32.910       167
32.920       173
32.930       140
32.940       153
32.950       113
32.960       127
32.970       173
32.980       127
32.990       180
33.000       180
33.010       127
33.020       140
33.030       133
33.040       147
33.050       167
33.060       113
33.070       207
33.080       167
33.090       173
33.100       127
33.110       107
33.120       187
33.130       167
33.140       153
33.150       140
33.160       193
33.170       200
33.180       173
33.190       233
33.200       133
33.210       127
33.220        93
33.230       180
33.240       180
33.250       167
33.260       173
33.270       160
33.280       180
33.290       120
33.300       153
33.310       173
33.320       167
33.330       140
33.340       153
33.350       140
33.360       120
33.370        93
33.380       107
33.390       160
33.400       153
33.410       227
33.420       153
33.430       140
33.440       160
33.450       167
33.460       147
33.470       180
33.480        80
33.490       160
33.500       167
33.510       113
33.520       173
33.530       160
33.540       153
33.550       167
33.560       153
33.570       127
33.580       180
33.590       120
33.600       147
33.610       187
33.620       173
33.630       127
33.640       107
33.650       127
33.660       120
33.670       160
33.680       113
33.690        93
33.700       133
33.710       113
33.720       147
33.730       147
33.740       113
33.750       120
33.760        87
33.770       107
33.780       207
33.790       107
33.800       187
33.810       120
33.820       133
33.830       140
33.840       153
33.850       173
33.860       133
33.870       133
33.880       107
33.890       173
33.900       113
33.910       153
33.920       160
33.930       147
33.940       113
33.950       160
33.960       147
33.970       127
33.980       173
33.990       153
34.000       140
34.010       127
34.020       100
34.030       133
34.040       160
34.050       127
34.060       207
34.070       160
34.080       133
34.090       153
34.100       173
34.110       173
34.120       120
34.130       133
34.140       127
34.150       127
34.160       160
34.170       120
34.180       133
34.190        80
34.200        87
34.210       153
34.220        80
34.230       120
34.240       147
34.250       180
34.260        87
34.270       140
34.280       133
34.290       167
34.300       167
34.310       173
34.320       173
34.330       127
34.340       227
34.350       200
34.360       280
34.370       240
34.380       273
34.390       440
34.400       513
34.410       553
34.420       586
34.430       693
34.440       760
34.450       780
34.460       773
34.470       726
34.480       760
34.490       740
34.500       613
34.510       680
34.520       746
34.530       673
34.540       853
34.550       806
34.560       706
34.570       780
34.580       640
34.590       713
34.600       713
34.610       593
34.620       693
34.630       806
34.640       726
34.650       800
34.660       720
34.670       766
34.680       760
34.690       786
34.700       633
34.710       753
34.720       646
34.730       666
34.740       766
34.750       833
34.760       720
34.770       860
34.780       800
34.790       766
34.800       720
34.810       720
34.820       693
34.830       693
34.840       793
34.850       673
34.860       753
34.870       746
34.880       693
34.890       673
34.900       860
34.910       733
34.920       813
34.930       773
34.940       813
34.950       766
34.960       766
34.970       753
34.980       673
34.990       893
35.000       720
35.010       866
35.020       666
35.030       753
35.040       853
35.050       806
35.060       726
35.070       826
35.080       726
35.090       866
35.100       773
35.110       773
35.120       880
35.130       893
35.140       913
35.150       813
35.160       793
35.170       920
35.180       880
35.190       760
35.200       913
35.210       913
35.220       866
35.230      1006
35.240       926
35.250       953
35.260       906
35.270       986
35.280       960
35.290      1166
35.300       986
35.310      1106
35.320      1313
35.330      1120
35.340      1200
35.350      1426
35.360      1279
35.370      1339
35.380      1439
35.390      1513
35.400      1393
35.410      1859
35.420      2246
35.430      2419
35.440      2872
35.450      3565
35.460      4492
35.470      5098
35.480      6238
35.490      7230
35.500      7804
35.510      8457
35.520      9483
35.530     10009
35.540     10902
35.550     12128
35.560     13315
35.570     16287
35.580     21225
35.590     34246
35.600     57917
35.610     96968
35.620    141743
35.630    173957
35.640    191423
35.650    196575
35.660    197634
35.670    187692
35.680    169206
35.690    140797
35.700    115920
35.710    108377
35.720    114747
35.730    121938
35.740    124843
35.750    123711
35.760    119126
35.770    106038
35.780     82554
35.790     58830
35.800     36959
35.810     24024
35.820     18139
35.830     13928
35.840     11655
35.850     10296
35.860      8750
35.870      8370
35.880      7177
35.890      6531
35.900      5784
35.910      4811
35.920      3992
35.930      3559
35.940      2799
35.950      2073
35.960      1953
35.970      1719
35.980      1813
35.990      1639
36.000      1533
36.010      1339
36.020      1299
36.030      1626
36.040      1339
36.050      1133
36.060      1206
36.070      1313
36.080      1233
36.090      1120
36.100      1120
36.110      1113
36.120      1193
36.130      1180
36.140       966
36.150      1046
36.160       940
36.170      1046
36.180       960
36.190       940
36.200       846
36.210       826
36.220       840
36.230       926
36.240       826
36.250       973
36.260       920
36.270       840
36.280       773
36.290       760
36.300       813
36.310       720
36.320       706
36.330       780
36.340       800
36.350       760
36.360       640
36.370       640
36.380       666
36.390       653
36.400       740
36.410       613
36.420       713
36.430       680
36.440       633
36.450       600
36.460       720
36.470       673
36.480       680
36.490       706
36.500       573
36.510       613
36.520       800
36.530       646
36.540       666
36.550       646
36.560       633
36.570       540
36.580       606
36.590       593
36.600       613
36.610       586
36.620       560
36.630       413
36.640       540
36.650       533
36.660       566
36.670       540
36.680       600
36.690       560
36.700       486
36.710       540
36.720       620
36.730       413
36.740       486
36.750       573
36.760       446
36.770       460
36.780       553
36.790       653
36.800       453
36.810       546
36.820       446
36.830       573
36.840       453
36.850       440
36.860       540
36.870       586
36.880       500
36.890       560
36.900       560
36.910       613
36.920       466
36.930       480
36.940       500
36.950       640
36.960       453
36.970       566
36.980       560
36.990       440
37.000       653
37.010       460
37.020       473
37.030       446
37.040       606
37.050       440
37.060       473
37.070       506
37.080       620
37.090       580
37.100       533
37.110       466
37.120       440
37.130       560
37.140       367
37.150       493
37.160       486
37.170       473
37.180       413
37.190       480
37.200       540
37.210       426
37.220       533
37.230       400
37.240       500
37.250       460
37.260       493
37.270       446
37.280       500
37.290       506
37.300       453
37.310       393
37.320       433
37.330       573
37.340       400
37.350       486
37.360       407
37.370       533
37.380       506
37.390       407
37.400       486
37.410       367
37.420       420
37.430       493
37.440       546
37.450       453
37.460       466
37.470       540
37.480       440
37.490       446
37.500       413
37.510       413
37.520       407
37.530       493
37.540       446
37.550       420
37.560       446
37.570       433
37.580       453
37.590       493
37.600       420
37.610       420
37.620       333
37.630       500
37.640       347
37.650       426
37.660       380
37.670       520
37.680       533
37.690       453
37.700       493
37.710       466
37.720       293
37.730       353
37.740       387
37.750       320
37.760       353
37.770       480
37.780       393
37.790       393
37.800       307
37.810       287
37.820       393
37.830       466
37.840       533
37.850       353
37.860       380
37.870       360
37.880       466
37.890       327
37.900       433
37.910       400
37.920       453
37.930       460
37.940       426
37.950       460
37.960       307
37.970       506
37.980       387
37.990       400
38.000       433
38.010       327
38.020       453
38.030       446
38.040       393
38.050       360
38.060       380
38.070       320
38.080       387
38.090       380
38.100       327
38.110       360
38.120       340
38.130       433
38.140       367
38.150       426
38.160       340
38.170       407
38.180       367
38.190       393
38.200       393
38.210       320
38.220       506
38.230       460
38.240       393
38.250       407
38.260       353
38.270       327
38.280       440
38.290       313
38.300       413
38.310       373
38.320       393
38.330       393
38.340       327
38.350       273
38.360       300
38.370       300
38.380       360
38.390       380
38.400       320
38.410       393
38.420       313
38.430       367
38.440       460
38.450       367
38.460       373
38.470       360
38.480       267
38.490       353
38.500       307
38.510       373
38.520       367
38.530       287
38.540       380
38.550       313
38.560       533
38.570       407
38.580       387
38.590       333
38.600       340
38.610       320
38.620       433
38.630       347
38.640       313
38.650       373
38.660       313
38.670       327
38.680       387
38.690       440
38.700       367
38.710       446
38.720       273
38.730       340
38.740       347
38.750       340
38.760       360
38.770       347
38.780       320
38.790       340
38.800       273
38.810       380
38.820       293
38.830       393
38.840       353
38.850       353
38.860       300
38.870       327
38.880       307
38.890       300
38.900       353
38.910       367
38.920       400
38.930       260
38.940       380
38.950       327
38.960       353
38.970       407
38.980       267
38.990       393
39.000       260
39.010       387
39.020       367
39.030       300
39.040       320
39.050       247
39.060       340
39.070       400
39.080       300
39.090       340
39.100       320
39.110       300
39.120       333
39.130       347
39.140       320
39.150       360
39.160       247
39.170       333
39.180       320
39.190       340
39.200       273
39.210       347
39.220       293
39.230       320
39.240       327
39.250       313
39.260       380
39.270       313
39.280       373
39.290       260
39.300       320
39.310       320
39.320       313
39.330       333
39.340       300
39.350       433
39.360       267
39.370       327
39.380       233
39.390       320
39.400       307
39.410       293
39.420       253
39.430       367
39.440       347
39.450       267
39.460       320
39.470       307
39.480       407
39.490       340
39.500       293
39.510       353
39.520       353
39.530       300
39.540       220
39.550       240
39.560       367
39.570       247
39.580       320
39.590       293
39.600       313
39.610       267
39.620       347
39.630       233
39.640       260
39.650       233
39.660       353
39.670       327
39.680       287
39.690       387
39.700       247
39.710       280
39.720       340
39.730       280
39.740       320
39.750       240
39.760       280
39.770       300
39.780       353
39.790       293
39.800       173
39.810       253
39.820       253
39.830       293
39.840       300
39.850       300
39.860       280
39.870       353
39.880       247
39.890       360
39.900       260
39.910       333
39.920       267
39.930       280
39.940       300
39.950       280
39.960       227
39.970       287
39.980       220
39.990       287
40.000       247
40.010       287
40.020       300
40.030       320
40.040       360
40.050       353
40.060       220
40.070       320
40.080       293
40.090       293
40.100       307
40.110       247
40.120       287
40.130       293
40.140       260
40.150       300
40.160       267
40.170       213
40.180       293
40.190       267
40.200       213
40.210       200
40.220       273
40.230       253
40.240       207
40.250       240
40.260       273
40.270       200
40.280       320
40.290       273
40.300       267
40.310       267
40.320       213
40.330       233
40.340       240
40.350       273
40.360       253
40.370       213
40.380       247
40.390       227
40.400       267
40.410       307
40.420       187
40.430       233
40.440       300
40.450       247
40.460       280
40.470       280
40.480       253
40.490       260
40.500       293
40.510       207
40.520       227
40.530       353
40.540       247
40.550       267
40.560       260
40.570       233
40.580       200
40.590       207
40.600       207
40.610       307
40.620       313
40.630       213
40.640       233
40.650       193
40.660       233
40.670       247
40.680       307
40.690       313
40.700       193
40.710       253
40.720       220
40.730       293
40.740       260
40.750       260
40.760       253
40.770       280
40.780       280
40.790       227
40.800       200
40.810       173
40.820       293
40.830       253
40.840       207
40.850       233
40.860       300
40.870       240
40.880       307
40.890       213
40.900       160
40.910       187
40.920       233
40.930       193
40.940       233
40.950       220
40.960       213
40.970       247
40.980       280
40.990       280
41.000       253
41.010       253
41.020       267
41.030       247
41.040       307
41.050       220
41.060       233
41.070       207
41.080       233
41.090       280
41.100       267
41.110       273
41.120       247
41.130       247
41.140       267
41.150       260
41.160       267
41.170       280
41.180       193
41.190       307
41.200       200
41.210       260
41.220       213
41.230       213
41.240       200
41.250       213
41.260       173
41.270       260
41.280       233
41.290       300
41.300       220
41.310       220
41.320       173
41.330       213
41.340       260
41.350       287
41.360       253
41.370       287
41.380       180
41.390       227
41.400       327
41.410       260
41.420       207
41.430       200
41.440       153
41.450       247
41.460       127
41.470       220
41.480       227
41.490       200
41.500       213
41.510       320
41.520       213
41.530       280
41.540       273
41.550       267
41.560       227
41.570       260
41.580       227
41.590       247
41.600       247
41.610       287
41.620       200
41.630       253
41.640       220
41.650       293
41.660       300
41.670       227
41.680       153
41.690       147
41.700       180
41.710       247
41.720       193
41.730       207
41.740       200
41.750       180
41.760       187
41.770       187
41.780       300
41.790       300
41.800       247
41.810       307
41.820       280
41.830       187
41.840       233
41.850       173
41.860       227
41.870       140
41.880       227
41.890       140
41.900       200
41.910       320
41.920       167
41.930       287
41.940       220
41.950       280
41.960       167
41.970       280
41.980       300
41.990       220
42.000       193
42.010       207
42.020       233
42.030       233
42.040       233
42.050       233
42.060       220
42.070       200
42.080       220
42.090       173
42.100       187
42.110       207
42.120       180
42.130       227
42.140       193
42.150       187
42.160       187
42.170       253
42.180       287
42.190       173
42.200       267
42.210       227
42.220       160
42.230       127
42.240       167
42.250       200
42.260       180
42.270       213
42.280       220
42.290       200
42.300       220
42.310       167
42.320       227
42.330       173
42.340       180
42.350       187
42.360       200
42.370       187
42.380       173
42.390       213
42.400       173
42.410       153
42.420       207
42.430       220
42.440       127
42.450       240
42.460       113
42.470       160
42.480       220
42.490       200
42.500       167
42.510       247
42.520       187
42.530       187
42.540       173
42.550       247
42.560       200
42.570       293
42.580       140
42.590       227
42.600       233
42.610       200
42.620       200
42.630       233
42.640       153
42.650       187
42.660       187
42.670       173
42.680       160
42.690       147
42.700       220
42.710       213
42.720       207
42.730       167
42.740       180
42.750       227
42.760       200
42.770       220
42.780       220
42.790       187
42.800       213
42.810       233
42.820       173
42.830       147
42.840       207
42.850       193
42.860       147
42.870       267
42.880       127
42.890       173
42.900       180
42.910       180
42.920       207
42.930       160
42.940       240
42.950       240
42.960       147
42.970       193
42.980       187
42.990       173
43.000       227
43.010       200
43.020       213
43.030       240
43.040       213
43.050       207
43.060       173
43.070       213
43.080       273
43.090       213
43.100       213
43.110       207
43.120       193
43.130       253
43.140       127
43.150       200
43.160       200
43.170       213
43.180       200
43.190       213
43.200       167
43.210       167
43.220       180
43.230       180
43.240       200
43.250       133
43.260       187
43.270       200
43.280       213
43.290       207
43.300       173
43.310       213
43.320       213
43.330       167
43.340       187
43.350       167
43.360       153
43.370       173
43.380       173
43.390       173
43.400       187
43.410       153
43.420       173
43.430       180
43.440       153
43.450       127
43.460       153
43.470       173
43.480       140
43.490       107
43.500       227
43.510       153
43.520       133
43.530       167
43.540       147
43.550       173
43.560       147
43.570       227
43.580       153
43.590        80
43.600       200
43.610       247
43.620       147
43.630       133
43.640       153
43.650       187
43.660       207
43.670       140
43.680       147
43.690       180
43.700       167
43.710       127
43.720       167
43.730       113
43.740       147
43.750       167
43.760       260
43.770       133
43.780       127
43.790       133
43.800       180
43.810       147
43.820       200
43.830       140
43.840       133
43.850       187
43.860       153
43.870        93
43.880       147
43.890       120
43.900        80
43.910       113
43.920       180
43.930       160
43.940       140
43.950       167
43.960       113
43.970       167
43.980       127
43.990       113
44.000       140
44.010       133
44.020       173
44.030       153
44.040       153
44.050       133
44.060       140
44.070       140
44.080       227
44.090       227
44.100       140
44.110       140
44.120       140
44.130       140
44.140       133
44.150       160
44.160       193
44.170        93
44.180       113
44.190        93
44.200       120
44.210       193
44.220       167
44.230       200
44.240       140
44.250       147
44.260       153
44.270       207
44.280       180
44.290       107
44.300       147
44.310       187
44.320       133
44.330       140
44.340       140
44.350       120
44.360       193
44.370       140
44.380       127
44.390        93
44.400       127
44.410       133
44.420       167
44.430       133
44.440       133
44.450       133
44.460       147
44.470       127
44.480       140
44.490       200
44.500       147
44.510       147
44.520       133
44.530       133
44.540       127
44.550       167
44.560       153
44.570       187
44.580       113
44.590       113
44.600       133
44.610       200
44.620       120
44.630        93
44.640       180
44.650       127
44.660       233
44.670       193
44.680       187
44.690       113
44.700       160
44.710       140
44.720       113
44.730       127
44.740       160
44.750       153
44.760       113
44.770       120
44.780       120
44.790       160
44.800       220
44.810       107
44.820       153
44.830       147
44.840       113
44.850       180
44.860       167
44.870       187
44.880       173
44.890       133
44.900       120
44.910       107
44.920       153
44.930       167
44.940        93
44.950       107
44.960       167
44.970       160
44.980       147
44.990       153
45.000       133
45.010       127
45.020       160
45.030       240
45.040       127
45.050       220
45.060       167
45.070       127
45.080       140
45.090       140
45.100       173
45.110       180
45.120       140
45.130       173
45.140       193
45.150       173
45.160       180
45.170       100
45.180       120
45.190       180
45.200       113
45.210       173
45.220       160
45.230       133
45.240       207
45.250       160
45.260       193
45.270       133
45.280       127
45.290       160
45.300       100
45.310        93
45.320       127
45.330       180
45.340       133
45.350        80
45.360       173
45.370        80
45.380       160
45.390       153
45.400        87
45.410       153
45.420       173
45.430        87
45.440       127
45.450       120
45.460       140
45.470       100
45.480       100
45.490       147
45.500       133
45.510       173
45.520       133
45.530       173
45.540       107
45.550       113
45.560       113
45.570       120
45.580       173
45.590       140
45.600       120
45.610       213
45.620        87
45.630       133
45.640       140
45.650       100
45.660       180
45.670       167
45.680       127
45.690       127
45.700       193
45.710       127
45.720       133
45.730       133
45.740       100
45.750       120
45.760       193
45.770       147
45.780       133
45.790       120
45.800       107
45.810       120
45.820       140
45.830        93
45.840       133
45.850       107
45.860       107
45.870       147
45.880       113
45.890       153
45.900       167
45.910       107
45.920        73
45.930       107
45.940       100
45.950       153
45.960       180
45.970       153
45.980       100
45.990        93
46.000       140
46.010        60
46.020       100
46.030       147
46.040       100
46.050       113
46.060       140
46.070        73
46.080       147
46.090       127
46.100       160
46.110       120
46.120        93
46.130       120
46.140        80
46.150        87
46.160        80
46.170       133
46.180        93
46.190        93
46.200       107
46.210        87
46.220       133
46.230       153
46.240       113
46.250       127
46.260        73
46.270       147
46.280       120
46.290       133
46.300       107
46.310       167
46.320        93
46.330        87
46.340       120
46.350        87
46.360        87
46.370       133
46.380        87
46.390       147
46.400        93
46.410       153
46.420        87
46.430       127
46.440        87
46.450        93
46.460       147
46.470       167
46.480        80
46.490       147
46.500        80
46.510        67
46.520       107
46.530       100
46.540       100
46.550       160
46.560        73
46.570        93
46.580        60
46.590       127
46.600       107
46.610       167
46.620        93
46.630        93
46.640       153
46.650        87
46.660        73
46.670       147
46.680       153
46.690        87
46.700       120
46.710        80
46.720       120
46.730       127
46.740       140
46.750       120
46.760       127
46.770        87
46.780       127
46.790       127
46.800       127
46.810       107
46.820        73
46.830        67
46.840       113
46.850        80
46.860       187
46.870        67
46.880        87
46.890       100
46.900        73
46.910        73
46.920       133
46.930       140
46.940       100
46.950       120
46.960       147
46.970       133
46.980        73
46.990        87
47.000       100
47.010       140
47.020       100
47.030       140
47.040       113
47.050       133
47.060       147
47.070       133
47.080        60
47.090        80
47.100       113
47.110        87
47.120        87
47.130       133
47.140        80
47.150       100
47.160       100
47.170       160
47.180       187
47.190        93
47.200       120
47.210       100
47.220       187
47.230       167
47.240       120
47.250       107
47.260       127
47.270       160
47.280       180
47.290       153
47.300       107
47.310       160
47.320       127
47.330       120
47.340       127
47.350       147
47.360        93
47.370       180
47.380       147
47.390        87
47.400        93
47.410       113
47.420       127
47.430       213
47.440       173
47.450       153
47.460       187
47.470        93
47.480       127
47.490       133
47.500       187
47.510       133
47.520       107
47.530       113
47.540       173
47.550       120
47.560       167
47.570       107
47.580       147
47.590       113
47.600       120
47.610       140
47.620       120
47.630       107
47.640       147
47.650       127
47.660       113
47.670       140
47.680       153
47.690        87
47.700       107
47.710       107
47.720       100
47.730       107
47.740       113
47.750        80
47.760       147
47.770        93
47.780        73
47.790       127
47.800        80
47.810        87
47.820       153
47.830       100
47.840        87
47.850       113
47.860        73
47.870       113
47.880        60
47.890       113
47.900        93
47.910       120
47.920       100
47.930       100
47.940        73
47.950        67
47.960        93
47.970       100
47.980        80
47.990       100
48.000       100
48.010       120
48.020        67
48.030       100
48.040        93
48.050       113
48.060       147
48.070       127
48.080       113
48.090       113
48.100        73
48.110        80
48.120        93
48.130       107
48.140        93
48.150       127
48.160       113
48.170       100
48.180        73
48.190       120
48.200        80
48.210       120
48.220        53
48.230        93
48.240       113
48.250       113
48.260        67
48.270       133
48.280       147
48.290        60
48.300        67
48.310       153
48.320       127
48.330       133
48.340       100
48.350       107
48.360       113
48.370        87
48.380       127
48.390       100
48.400        67
48.410       167
48.420       127
48.430        67
48.440        93
48.450       147
48.460       113
48.470       120
48.480        87
48.490       127
48.500       113
48.510       113
48.520       100
48.530       127
48.540        80
48.550       120
48.560        93
48.570       107
48.580       133
48.590       153
48.600       127
48.610       107
48.620        80
48.630       107
48.640       160
48.650       140
48.660       100
48.670        80
48.680        80
48.690        87
48.700       107
48.710       100
48.720       147
48.730       100
48.740        87
48.750       113
48.760       100
48.770        73
48.780        67
48.790        93
48.800       127
48.810       113
48.820       107
48.830       120
48.840       107
48.850       120
48.860       120
48.870        87
48.880       113
48.890        87
48.900        67
48.910       107
48.920        80
48.930        93
48.940        40
48.950        73
48.960       120
48.970        80
48.980        53
48.990       113
49.000        87
49.010       113
49.020        80
49.030        93
49.040       127
49.050        67
49.060       120
49.070        73
49.080       113
49.090        80
49.100       100
49.110        40
49.120        80
49.130       120
49.140        80
49.150       107
49.160       120
49.170        87
49.180       133
49.190        87
49.200        73
49.210        73
49.220       107
49.230        93
49.240       140
49.250        80
49.260       100
49.270       133
49.280       100
49.290        93
49.300        80
49.310        60
49.320        60
49.330        60
49.340       107
49.350        53
49.360        60
49.370        67
49.380        80
49.390        80
49.400       120
49.410       133
49.420       100
49.430       127
49.440        87
49.450        80
49.460       100
49.470       113
49.480        67
49.490        67
49.500       113
49.510        60
49.520        87
49.530        60
49.540        67
49.550        80
49.560        93
49.570        73
49.580        33
49.590        80
49.600        73
49.610        87
49.620        53
49.630        93
49.640        93
49.650       107
49.660        67
49.670       113
49.680       127
49.690        87
49.700        93
49.710        80
49.720       120
49.730        73
49.740        73
49.750       107
49.760        67
49.770        53
49.780        73
49.790        73
49.800        87
49.810        80
49.820        47
49.830        53
49.840        73
49.850        73
49.860       120
49.870       113
49.880        67
49.890        67
49.900       127
49.910       107
49.920       100
49.930       100
49.940        60
49.950        80
49.960        93
49.970        47
49.980       140
49.990       100
50.000       120
50.010        93
50.020       113
50.030        47
50.040        87
50.050       120
50.060        67
50.070        67
50.080        67
50.090        73
50.100        73
50.110        67
50.120        53
50.130        67
50.140        93
50.150        87
50.160        93
50.170        93
50.180        67
50.190       107
50.200       100
50.210       113
50.220        87
50.230        87
50.240       100
50.250        67
50.260       120
50.270        80
50.280        67
50.290       100
50.300        80
50.310        60
50.320        60
50.330       107
50.340       127
50.350        53
50.360        73
50.370        80
50.380       120
50.390        60
50.400        67
50.410        67
50.420        73
50.430        60
50.440        53
50.450       100
50.460        80
50.470        80
50.480        60
50.490       113
50.500       127
50.510        87
50.520        60
50.530        93
50.540        60
50.550        60
50.560        60
50.570       113
50.580        80
50.590        73
50.600        93
50.610        47
50.620        53
50.630        67
50.640        80
50.650        40
50.660        67
50.670        80
50.680        47
50.690        93
50.700        87
50.710        93
50.720        93
50.730       133
50.740       120
50.750       100
50.760        80
50.770        73
50.780       107
50.790        87
50.800        93
50.810       107
50.820        40
50.830        67
50.840        47
50.850        93
50.860        60
50.870        87
50.880        93
50.890        93
50.900        47
50.910        93
50.920        67
50.930        73
50.940        67
50.950        60
50.960       113
50.970        67
50.980        87
50.990        73
51.000        67
51.010        53
51.020       100
51.030        60
51.040        60
51.050        60
51.060        87
51.070        80
51.080        53
51.090        80
51.100        87
51.110        53
51.120        73
51.130        73
51.140       107
51.150       100
51.160        67
51.170       107
51.180        73
51.190        93
51.200        87
51.210        73
51.220       107
51.230       120
51.240        87
51.250        33
51.260        93
51.270       100
51.280        80
51.290        87
51.300       107
51.310       120
51.320        67
51.330        87
51.340        80
51.350        80
51.360        60
51.370        87
51.380        73
51.390        73
51.400        40
51.410        47
51.420        67
51.430       100
51.440        93
51.450        80
51.460        93
51.470        53
51.480        73
51.490       127
51.500        80
51.510        73
51.520        53
51.530        67
51.540        67
51.550       100
51.560        47
51.570       113
51.580       107
51.590        87
51.600        80
51.610        60
51.620        47
51.630        67
51.640        87
51.650        80
51.660        80
51.670        87
51.680        93
51.690        87
51.700       127
51.710       100
51.720        33
51.730        53
51.740        87
51.750        73
51.760        53
51.770       107
51.780        60
51.790        53
51.800       120
51.810        87
51.820        73
51.830        87
51.840        80
51.850        93
51.860        87
51.870        93
51.880       100
51.890        80
51.900       100
51.910        73
51.920       100
51.930       107
51.940        60
51.950        67
51.960        47
51.970        80
51.980       107
51.990        60
52.000        87
52.010        80
52.020        73
52.030       100
52.040        93
52.050        73
52.060        47
52.070        53
52.080        73
52.090        73
52.100       107
52.110        27
52.120        73
52.130        93
52.140        87
52.150       100
52.160        47
52.170       107
52.180        73
52.190        73
52.200        60
52.210        40
52.220        73
52.230        60
52.240        53
52.250        67
52.260        87
52.270        87
52.280        93
52.290       107
52.300        67
52.310       107
52.320        53
52.330        67
52.340       127
52.350        67
52.360        60
52.370        60
52.380        53
52.390        60
52.400        53
52.410        40
52.420        67
52.430        53
52.440        87
52.450        73
52.460        60
52.470        33
52.480        60
52.490        53
52.500        53
52.510        53
52.520        80
52.530        87
52.540        53
52.550        60
52.560        67
52.570        93
52.580        73
52.590        87
52.600        53
52.610       120
52.620        33
52.630        60
52.640        60
52.650        53
52.660        87
52.670        73
52.680        93
52.690        80
52.700        60
52.710        80
52.720        93
52.730        53
52.740        80
52.750        93
52.760        60
52.770       107
52.780        67
52.790        33
52.800        60
52.810       100
52.820       120
52.830        67
52.840        73
52.850        53
52.860        87
52.870        47
52.880        87
52.890        53
52.900        73
52.910       120
52.920        33
52.930        80
52.940        80
52.950        93
52.960        67
52.970        60
52.980        67
52.990        73
53.000        40
53.010        67
53.020        87
53.030        73
53.040        67
53.050        73
53.060       140
53.070        87
53.080       100
53.090        73
53.100        40
53.110        87
53.120        53
53.130        73
53.140        93
53.150        87
53.160        47
53.170       100
53.180        67
53.190        67
53.200        67
53.210        67
53.220        67
53.230        67
53.240        47
53.250        67
53.260        67
53.270        60
53.280        87
53.290        47
53.300        87
53.310       100
53.320        33
53.330        87
53.340        80
53.350        67
53.360        73
53.370        80
53.380       127
53.390        40
53.400        67
53.410        20
53.420        53
53.430       100
53.440        93
53.450        80
53.460        93
53.470        93
53.480        60
53.490        67
53.500        80
53.510        20
53.520        87
53.530        93
53.540        73
53.550        33
53.560        73
53.570        60
53.580        73
53.590        67
53.600        53
53.610        93
53.620        80
53.630        87
53.640        47
53.650        73
53.660        67
53.670        67
53.680        60
53.690        53
53.700        67
53.710        47
53.720       100
53.730        67
53.740       107
53.750        80
53.760        93
53.770        67
53.780        80
53.790        87
53.800        67
53.810        87
53.820        53
53.830        87
53.840       100
53.850        80
53.860        67
53.870        47
53.880        53
53.890        87
53.900        67
53.910        80
53.920        47
53.930        80
53.940       100
53.950        53
53.960       107
53.970        93
53.980        80
53.990        80
54.000        60
54.010        60
54.020        73
54.030        33
54.040        60
54.050        73
54.060        73
54.070        73
54.080       100
54.090       100
54.100        33
54.110        27
54.120        73
54.130        53
54.140        87
54.150        47
54.160        73
54.170        67
54.180        73
54.190        73
54.200        33
54.210        33
54.220        47
54.230        67
54.240        80
54.250        80
54.260        80
54.270        87
54.280        93
54.290        53
54.300       100
54.310        93
54.320        87
54.330        73
54.340        53
54.350        67
54.360        87
54.370        27
54.380        93
54.390        60
54.400        87
54.410        60
54.420        67
54.430        80
54.440        67
54.450        73
54.460        80
54.470        80
54.480        40
54.490        67
54.500        53
54.510        60
54.520        73
54.530        80
54.540        73
54.550        93
54.560        47
54.570        60
54.580        80
54.590        93
54.600       120
54.610        53
54.620        60
54.630       107
54.640        67
54.650        80
54.660        80
54.670       107
54.680        73
54.690       100
54.700        80
54.710        93
54.720        93
54.730        60
54.740        73
54.750       133
54.760        93
54.770        53
54.780        80
54.790        87
54.800        33
54.810        80
54.820        20
54.830        73
54.840       100
54.850        73
54.860        67
54.870        60
54.880        33
54.890       100
54.900        73
54.910        73
54.920        53
54.930        60
54.940       120
54.950        47
54.960        80
54.970        87
54.980        87
54.990        40
55.000        87
55.010       100
55.020        67
55.030        47
55.040        60
55.050        93
55.060        47
55.070        40
55.080        73
55.090        47
55.100        80
55.110       107
55.120        87
55.130        60
55.140       113
55.150        87
55.160        60
55.170        40
55.180        80
55.190        60
55.200       107
55.210        40
55.220        67
55.230        47
55.240        67
55.250        27
55.260        67
55.270        73
55.280        60
55.290       107
55.300        80
55.310       120
55.320        67
55.330        67
55.340        87
55.350       107
55.360        67
55.370        67
55.380        40
55.390        60
55.400        60
55.410        60
55.420        67
55.430        60
55.440        33
55.450        73
55.460       107
55.470        40
55.480        47
55.490        40
55.500        53
55.510        73
55.520        73
55.530       113
55.540        80
55.550        73
55.560        87
55.570        67
55.580        87
55.590        67
55.600        80
55.610        67
55.620        73
55.630        73
55.640        73
55.650        73
55.660        53
55.670        73
55.680       100
55.690       107
55.700       120
55.710       107
55.720        93
55.730       107
55.740        53
55.750       107
55.760        80
55.770       100
55.780       100
55.790       120
55.800       100
55.810       107
55.820       160
55.830       140
55.840        73
55.850        73
55.860       100
55.870       127
55.880        60
55.890       133
55.900        60
55.910        87
55.920        93
55.930        80
55.940       113
55.950        87
55.960        53
55.970       127
55.980        73
55.990       120
56.000        93
56.010        93
56.020        80
56.030        93
56.040        53
56.050        73
56.060        67
56.070       107
56.080        60
56.090       120
56.100       107
56.110        93
56.120        47
56.130        67
56.140        67
56.150        67
56.160        80
56.170       107
56.180        67
56.190        80
56.200       107
56.210        93
56.220        93
56.230        73
56.240        93
56.250        60
56.260        60
56.270       100
56.280        80
56.290        53
56.300        60
56.310        40
56.320        20
56.330       120
56.340        60
56.350        53
56.360       107
56.370        67
56.380        93
56.390        67
56.400        40
56.410        67
56.420        73
56.430       120
56.440        80
56.450        93
56.460        73
56.470        80
56.480        73
56.490        47
56.500        53
56.510        73
56.520        47
56.530        73
56.540        47
56.550        60
56.560        47
56.570        80
56.580        67
56.590        80
56.600        67
56.610        80
56.620        73
56.630        93
56.640        47
56.650        67
56.660        67
56.670        67
56.680        60
56.690        80
56.700        67
56.710        60
56.720        60
56.730        80
56.740        20
56.750       100
56.760        60
56.770       100
56.780        93
56.790        53
56.800        87
56.810        93
56.820        73
56.830        73
56.840        40
56.850        73
56.860        33
56.870       100
56.880        60
56.890        73
56.900        73
56.910        80
56.920        73
56.930        93
56.940        60
56.950        53
56.960       113
56.970       107
56.980        80
56.990        93
57.000        80
57.010        53
57.020       113
57.030        73
57.040       100
57.050        73
57.060       100
57.070        27
57.080        47
57.090        73
57.100        47
57.110        53
57.120        87
57.130        67
57.140        67
57.150        47
57.160        53
57.170        53
57.180        53
57.190        60
57.200        47
57.210        47
57.220        67
57.230        73
57.240        73
57.250        27
57.260        47
57.270        40
57.280       140
57.290        93
57.300        60
57.310        80
57.320       107
57.330        87
57.340        73
57.350        40
57.360        53
57.370        40
57.380        60
57.390        80
57.400        73
57.410        40
57.420        80
57.430        67
57.440       127
57.450        87
57.460        53
57.470        53
57.480        60
57.490        80
57.500        80
57.510        87
57.520        80
57.530        53
57.540        80
57.550        73
57.560        87
57.570        80
57.580        73
57.590       100
57.600        60
57.610       127
57.620        47
57.630        80
57.640        87
57.650        93
57.660        80
57.670        93
57.680        60
57.690        47
57.700        67
57.710        53
57.720        40
57.730        80
57.740        27
57.750        67
57.760        80
57.770        47
57.780        73
57.790        60
57.800        47
57.810        60
57.820        67
57.830        67
57.840        80
57.850        67
57.860        87
57.870        93
57.880        67
57.890        40
57.900        67
57.910        80
57.920        93
57.930        73
57.940        87
57.950        67
57.960        40
57.970        87
57.980        40
57.990       107
58.000        60
58.010        53
58.020        40
58.030        40
58.040       107
58.050       113
58.060        60
58.070        73
58.080        73
58.090        47
58.100        60
58.110        67
58.120        87
58.130        60
58.140        60
58.150        80
58.160       100
58.170        87
58.180        93
58.190        67
58.200        53
58.210        67
58.220        67
58.230        93
58.240        40
58.250        60
58.260        87
58.270        87
58.280        47
58.290        20
58.300        60
58.310        53
58.320        67
58.330       113
58.340       133
58.350        67
58.360        87
58.370        67
58.380        80
58.390       107
58.400        47
58.410        67
58.420        93
58.430        73
58.440        67
58.450        47
58.460        47
58.470        87
58.480        80
58.490        47
58.500       127
58.510        73
58.520        53
58.530       120
58.540        53
58.550        93
58.560        33
58.570        53
58.580        93
58.590        93
58.600        60
58.610        47
58.620        47
58.630        67
58.640        93
58.650        60
58.660        53
58.670        40
58.680        53
58.690        33
58.700        60
58.710        60
58.720        67
58.730        53
58.740        60
58.750        93
58.760        93
58.770        67
58.780        33
58.790       113
58.800        40
58.810        67
58.820        93
58.830        73
58.840        53
58.850        53
58.860        53
58.870        47
58.880       107
58.890        60
58.900        73
58.910        87
58.920        60
58.930        33
58.940        60
58.950        53
58.960        80
58.970       127
58.980        67
58.990        40
59.000        53
59.010        40
59.020        73
59.030        73
59.040        53
59.050        73
59.060        47
59.070        73
59.080        47
59.090        53
59.100        33
59.110        67
59.120        60
59.130        53
59.140        67
59.150        40
59.160        47
59.170        87
59.180        53
59.190        87
59.200        67
59.210        53
59.220       100
59.230        53
59.240        53
59.250        73
59.260        67
59.270        53
59.280        53
59.290        40
59.300        47
59.310        73
59.320        60
59.330        73
59.340       127
59.350        73
59.360        73
59.370        73
59.380        53
59.390        60
59.400        47
59.410        80
59.420        73
59.430        47
59.440        67
59.450        73
59.460        40
59.470        60
59.480        53
59.490        40
59.500        27
59.510        53
59.520        53
59.530        47
59.540        80
59.550        53
59.560        53
59.570       113
59.580        40
59.590        47
59.600        27
59.610        33
59.620        33
59.630        87
59.640        47
59.650        67
59.660       100
59.670        67
59.680        87
59.690        80
59.700        33
59.710        53
59.720        60
59.730        40
59.740        47
59.750        93
59.760        87
59.770        73
59.780        53
59.790        60
59.800        67
59.810        67
59.820        93
59.830        60
59.840        40
59.850        87
59.860        40
59.870        53
59.880        80
59.890        33
59.900        40
59.910        80
59.920        80
59.930        47
59.940        60
59.950        60
59.960        60
59.970        60
59.980        67
59.990        20
60.000        40
