20.000         7
20.010         7
20.020        33
20.030        27
20.040        47
20.050        33
20.060        40
20.070        27
20.080        47
20.090        40
20.100        40
20.110        27
20.120        33
20.130        67
20.140        47
20.150        40
20.160        33
20.170        80
20.180        40
20.190        27
20.200        47
20.210        60
20.220        20
20.230        60
20.240        40
20.250        40
20.260        80
20.270        53
20.280        80
20.290        20
20.300        40
20.310        40
20.320        40
20.330        53
20.340        47
20.350        40
20.360        40
20.370        67
20.380        73
20.390        53
20.400        33
20.410        60
20.420        47
20.430        27
20.440        47
20.450        13
20.460        33
20.470        40
20.480        53
20.490        47
20.500        67
20.510        40
20.520        60
20.530        67
20.540        47
20.550        40
20.560        53
20.570        40
20.580        47
20.590        20
20.600        53
20.610         7
20.620        33
20.630        33
20.640        27
20.650        33
20.660        27
20.670        47
20.680        33
20.690        27
20.700        53
20.710        27
20.720        40
20.730        33
20.740        40
20.750        47
20.760        40
20.770        20
20.780        27
20.790        40
20.800        33
20.810        53
20.820        40
20.830        27
20.840        53
20.850        33
20.860        27
20.870        27
20.880        53
20.890        53
20.900        60
20.910        60
20.920        40
20.930        33
20.940        53
20.950        33
20.960        20
20.970        60
20.980        47
20.990        40
21.000        20
21.010        27
21.020        47
21.030        20
21.040        40
21.050        53
21.060        40
21.070        60
21.080        40
21.090        33
21.100        33
21.110        40
21.120        40
21.130        20
21.140        47
21.150        40
21.160        20
21.170        40
21.180        53
21.190        80
21.200        67
21.210        53
21.220        40
21.230        53
21.240        27
21.250        13
21.260        20
21.270        40
21.280         7
21.290        40
21.300        87
21.310        47
21.320        27
21.330        27
21.340        33
21.350        53
21.360        67
21.370        47
21.380        33
21.390        60
21.400        40
21.410        53
21.420        27
21.430        20
21.440        20
21.450        60
21.460        33
21.470        53
21.480        33
21.490        13
21.500        40
21.510        47
21.520        67
21.530        20
21.540        20
21.550        47
21.560        53
21.570        33
21.580        20
21.590        67
21.600        53
21.610        53
21.620        47
21.630        27
21.640        33
21.650        20
21.660        33
21.670        60
21.680        53
21.690        33
21.700        33
21.710        60
21.720        47
21.730        53
21.740        60
21.750        33
21.760        60
21.770        27
21.780        53
21.790        47
21.800        53
21.810        60
21.820        53
21.830        73
21.840        60
21.850        33
21.860        53
21.870        27
21.880        40
21.890        60
21.900        60
21.910        93
21.920        47
21.930        53
21.940        80
21.950        60
21.960        67
21.970        40
21.980        20
21.990        27
22.000        47
22.010        33
22.020        47
22.030        33
22.040        47
22.050        27
22.060        33
22.070        67
22.080        47
22.090        27
22.100        20
22.110        47
22.120         7
22.130        60
22.140        53
22.150       100
22.160        80
22.170        47
22.180        27
22.190        20
22.200        27
22.210        27
22.220        27
22.230        60
22.240        33
22.250        13
22.260        20
22.270         7
22.280        20
22.290        20
22.300        47
22.310        27
22.320        40
22.330        20
22.340        47
22.350        40
22.360        33
22.370        13
22.380        73
22.390        40
22.400        40
22.410        40
22.420        60
22.430        40
22.440        40
22.450        20
22.460        27
22.470        47
22.480        47
22.490        33
22.500        47
22.510        20
22.520        47
22.530        27
22.540        33
22.550        13
22.560        33
22.570        47
22.580        60
22.590        33
22.600        27
22.610         7
22.620        53
22.630        33
22.640        27
22.650        40
22.660        20
22.670        40
22.680        27
22.690        47
22.700        40
22.710        40
22.720        40
22.730        40
22.740        53
22.750        27
22.760        73
22.770        27
22.780        40
22.790        20
22.800        20
22.810        73
22.820        47
22.830        20
22.840        40
22.850        33
22.860        53
22.870        80
22.880        20
22.890        40
22.900        40
22.910        20
22.920        40
22.930        33
22.940        40
22.950        33
22.960        20
22.970        33
22.980        80
22.990        60
23.000        60
23.010        47
23.020        33
23.030        40
23.040        47
23.050        40
23.060        80
23.070        33
23.080        27
23.090        13
23.100        47
23.110        40
23.120        60
23.130        53
23.140        27
23.150        40
23.160        33
23.170        47
23.180        27
23.190        33
23.200        40
23.210        47
23.220        33
23.230        27
23.240        40
23.250        20
23.260        27
23.270        40
23.280        20
23.290        33
23.300        27
23.310        53
23.320        33
23.330        27
23.340        40
23.350        53
23.360        60
23.370        33
23.380         7
23.390        40
23.400        27
23.410        40
23.420        40
23.430        20
23.440         0
23.450        40
23.460        20
23.470        40
23.480        27
23.490        40
23.500        47
23.510        60
23.520        40
23.530        33
23.540        33
23.550        20
23.560        27
23.570        60
23.580        33
23.590        33
23.600        60
23.610        20
23.620        33
23.630        47
23.640        40
23.650        40
23.660        13
23.670        27
23.680        40
23.690        40
23.700        20
23.710        33
23.720        60
23.730        13
23.740        67
23.750        33
23.760        47
23.770        40
23.780        27
23.790        33
23.800        47
23.810        27
23.820        53
23.830        27
23.840        47
23.850        47
23.860        27
23.870        27
23.880        53
23.890        40
23.900        13
23.910        27
23.920        13
23.930        20
23.940        13
23.950        20
23.960        67
23.970        40
23.980        27
23.990        27
24.000        27
24.010        33
24.020        47
24.030        47
24.040        20
24.050        27
24.060        33
24.070        33
24.080        13
24.090        27
24.100        67
24.110        20
24.120        40
24.130        20
24.140        13
24.150        27
24.160        67
24.170        13
24.180        33
24.190        20
24.200        40
24.210        13
24.220        27
24.230        13
24.240        33
24.250        47
24.260        33
24.270        20
24.280         7
24.290        40
24.300        27
24.310        13
24.320        27
24.330        27
24.340        47
24.350        27
24.360        20
24.370        60
24.380        27
24.390        20
24.400        53
24.410        33
24.420        20
24.430        40
24.440        20
24.450        40
24.460        13
24.470        40
24.480        13
24.490        20
24.500        33
24.510        20
24.520        40
24.530        20
24.540        13
24.550        13
24.560        33
24.570        20
24.580        40
24.590        33
24.600        13
24.610        47
24.620        27
24.630        47
24.640        47
24.650        20
24.660        27
24.670        33
24.680        20
24.690        13
24.700        47
24.710        33
24.720        27
24.730        20
24.740        47
24.750        33
24.760        53
24.770        73
24.780        13
24.790        20
24.800        27
24.810        47
24.820        40
24.830        80
24.840        53
24.850        40
24.860        53
24.870        67
24.880        53
24.890        60
24.900        40
24.910        33
24.920        73
24.930        27
24.940        33
24.950        47
24.960        27
24.970        47
24.980        33
24.990        73
25.000        67
25.010        27
25.020        47
25.030        67
25.040        47
25.050        60
25.060        53
25.070        40
25.080        20
25.090        40
25.100        53
25.110        47
25.120        40
25.130        73
25.140        40
25.150        20
25.160        40
25.170        20
25.180        27
25.190        27
25.200        27
25.210        53
25.220        27
25.230        27
25.240        33
25.250        13
25.260        20
25.270        53
25.280        20
25.290        33
25.300        27
25.310        33
25.320        27
25.330        60
25.340        33
25.350        33
25.360        40
25.370        33
25.380        33
25.390        27
25.400        40
25.410        33
25.420        47
25.430        47
25.440        40
25.450        20
25.460        20
25.470        87
25.480        73
25.490        60
25.500        27
25.510        47
25.520        73
25.530        67
25.540       107
25.550       140
25.560       253
25.570       267
25.580       180
25.590       193
25.600       333
25.610       360
25.620       313
25.630       260
25.640       260
25.650       260
25.660       213
25.670       193
25.680       240
25.690       247
25.700       233
25.710       273
25.720       320
25.730       260
25.740       200
25.750       147
25.760       147
25.770       240
25.780       153
25.790       167
25.800       113
25.810        80
25.820        93
25.830        53
25.840        40
25.850        33
25.860        47
25.870        60
25.880        20
25.890        13
25.900        27
25.910        60
25.920        20
25.930        13
25.940        20
25.950        20
25.960        13
25.970        40
25.980        20
25.990        33
26.000        27
26.010        33
26.020        27
26.030        33
26.040        40
26.050        33
26.060        60
26.070        27
26.080        27
26.090        13
26.100        27
26.110        20
26.120        33
26.130        47
26.140        53
26.150        20
26.160        20
26.170        53
26.180        13
26.190        13
26.200        20
26.210        20
26.220        27
26.230        47
26.240        33
26.250        20
26.260        40
26.270        13
26.280         7
26.290        67
26.300        27
26.310        47
26.320        33
26.330        40
26.340        40
26.350        73
26.360        27
26.370        47
26.380        53
26.390        13
26.400        33
26.410        13
26.420        27
26.430        60
26.440        27
26.450        27
26.460        33
26.470        60
26.480        40
26.490        33
26.500        13
26.510        33
26.520        60
26.530        47
26.540        27
26.550        20
26.560        33
26.570         7
26.580        20
26.590        27
26.600         7
26.610        27
26.620        33
26.630        67
26.640        40
26.650        27
26.660        40
26.670        20
26.680        40
26.690        20
26.700        33
26.710        20
26.720        40
26.730        67
26.740        60
26.750        40
26.760        27
26.770        20
26.780        47
26.790        20
26.800        33
26.810        27
26.820        20
26.830        60
26.840        33
26.850        27
26.860        47
26.870        13
26.880        40
26.890        20
26.900        13
26.910        33
26.920        13
26.930        40
26.940        20
26.950        47
26.960        20
26.970        53
26.980        27
26.990        33
27.000        40
27.010        33
27.020        27
27.030        27
27.040        33
27.050        53
27.060        20
27.070        33
27.080        40
27.090        33
27.100        20
27.110         0
27.120        40
27.130        13
27.140        33
27.150        27
27.160        47
27.170        33
27.180        27
27.190        20
27.200        20
27.210        27
27.220        33
27.230         7
27.240        20
27.250        33
27.260        13
27.270        40
27.280        13
27.290        27
27.300        33
27.310         7
27.320        33
27.330        20
27.340        47
27.350        40
27.360         0
27.370        40
27.380        20
27.390        33
27.400        47
27.410        13
27.420        20
27.430        47
27.440        40
27.450        33
27.460        27
27.470        20
27.480        27
27.490        33
27.500        40
27.510        53
27.520        20
27.530        27
27.540        27
27.550        47
27.560        33
27.570        13
27.580        27
27.590        27
27.600        33
27.610        40
27.620        20
27.630        40
27.640        13
27.650        33
27.660        40
27.670         7
27.680        27
27.690        13
27.700        20
27.710        27
27.720        20
27.730        53
27.740        20
27.750        40
27.760        40
27.770        20
27.780        40
27.790        20
27.800        20
27.810        13
27.820        40
27.830        33
27.840        20
27.850        33
27.860        47
27.870        20
27.880        20
27.890        47
27.900         7
27.910        27
27.920        40
27.930        20
27.940        53
27.950        13
27.960        33
27.970        40
27.980         7
27.990        33
28.000        40
28.010        20
28.020        33
28.030        47
28.040        13
28.050        33
28.060        27
28.070        40
28.080        27
28.090        27
28.100        27
28.110        47
28.120        40
28.130        13
28.140        33
28.150        20
28.160        53
28.170        47
28.180        27
28.190        27
28.200        20
28.210        20
28.220        40
28.230         7
28.240        33
28.250        20
28.260        27
28.270        33
28.280        13
28.290        33
28.300        20
28.310        33
28.320        20
28.330        27
28.340        33
28.350        40
28.360        33
28.370        20
28.380        27
28.390        27
28.400        47
28.410        13
28.420        40
28.430        13
28.440        27
28.450        40
28.460        60
28.470        47
28.480        27
28.490        47
28.500        33
28.510        20
28.520        40
28.530        33
28.540        40
28.550        40
28.560        20
28.570        40
28.580        27
28.590        33
28.600         7
28.610        13
28.620        27
28.630        33
28.640        60
28.650        40
28.660        33
28.670        27
28.680        13
28.690        47
28.700        27
28.710        40
28.720        60
28.730        13
28.740        40
28.750        60
28.760        27
28.770        33
28.780        47
28.790        40
28.800        40
28.810        47
28.820        40
28.830        33
28.840        33
28.850        40
28.860        20
28.870        53
28.880        40
28.890        33
28.900        27
28.910        33
28.920        20
28.930        33
28.940        47
28.950        13
28.960        53
28.970        40
28.980        47
28.990        67
29.000        27
29.010        67
29.020        33
29.030        27
29.040        33
29.050        27
29.060        27
29.070        20
29.080        47
29.090        33
29.100        40
29.110        33
29.120        73
29.130        53
29.140        53
29.150        53
29.160        27
29.170        33
29.180        87
29.190        60
29.200        33
29.210        40
29.220        47
29.230        33
29.240        87
29.250        27
29.260        33
29.270        47
29.280        53
29.290        27
29.300        87
29.310        47
29.320       120
29.330        67
29.340        47
29.350        40
29.360        20
29.370        47
29.380        53
29.390        87
29.400        93
29.410        60
29.420        53
29.430        27
29.440        40
29.450        47
29.460        53
29.470        53
29.480        27
29.490        40
29.500        67
29.510        60
29.520        53
29.530        33
29.540        13
29.550        20
29.560        13
29.570        80
29.580        60
29.590        80
29.600        13
29.610        53
29.620        60
29.630        40
29.640        53
29.650        13
29.660        73
29.670        47
29.680        27
29.690        20
29.700        40
29.710        27
29.720        33
29.730        13
29.740        20
29.750        27
29.760        20
29.770        33
29.780        27
29.790        20
29.800        27
29.810        20
29.820        33
29.830        13
29.840        40
29.850        13
29.860        53
29.870        27
29.880        53
29.890        20
29.900        20
29.910        53
29.920        47
29.930        27
29.940        20
29.950        47
29.960        40
29.970        27
29.980        20
29.990        33
30.000        40
30.010        60
30.020        27
30.030        33
30.040        40
30.050        60
30.060        27
30.070        53
30.080        13
30.090        47
30.100        53
30.110        27
30.120        13
30.130        53
30.140        20
30.150        80
30.160        20
30.170        13
30.180        13
30.190        33
30.200        20
30.210        20
30.220        47
30.230        33
30.240        20
30.250         7
30.260        33
30.270        53
30.280        47
30.290        53
30.300        27
30.310        33
30.320        47
30.330        60
30.340        33
30.350        27
30.360        47
30.370        47
30.380        47
30.390        13
30.400        13
30.410        40
30.420        20
30.430        27
30.440        27
30.450        27
30.460        27
30.470        53
30.480        40
30.490        20
30.500        53
30.510        33
30.520        20
30.530        33
30.540        60
30.550        13
30.560        27
30.570        27
30.580        53
30.590        20
30.600         7
30.610        20
30.620        47
30.630        47
30.640        27
30.650        13
30.660        20
30.670        40
30.680        53
30.690        33
30.700        67
30.710        47
30.720        47
30.730        27
30.740        27
30.750        60
30.760        47
30.770        33
30.780        40
30.790        33
30.800        47
30.810        27
30.820        20
30.830        80
30.840        67
30.850       133
30.860        80
30.870        47
30.880       107
30.890       120
30.900        93
30.910        93
30.920       113
30.930       120
30.940       140
30.950       207
30.960       140
30.970       173
30.980       113
30.990       247
31.000       253
31.010       327
31.020       287
31.030       433
31.040       500
31.050       460
31.060       593
31.070       473
31.080       546
31.090       746
31.100       780
31.110       713
31.120       773
31.130       626
31.140       726
31.150       713
31.160       646
31.170       700
31.180       440
31.190       580
31.200       553
31.210       466
31.220       387
31.230       193
31.240       307
31.250       227
31.260       160
31.270       153
31.280       227
31.290       153
31.300       100
31.310        93
31.320        73
31.330        60
31.340        60
31.350        73
31.360        60
31.370        73
31.380        73
31.390        27
31.400        27
31.410        53
31.420        47
31.430        40
31.440        33
31.450        33
31.460        60
31.470        33
31.480        40
31.490        40
31.500         7
31.510        60
31.520        60
31.530        60
31.540        27
31.550        87
31.560        47
31.570        53
31.580        40
31.590        27
31.600        73
31.610        67
31.620         7
31.630        27
31.640        47
31.650        40
31.660        27
31.670        40
31.680        33
31.690        27
31.700        40
31.710        27
31.720        33
31.730        27
31.740        20
31.750        20
31.760        47
31.770        20
31.780        53
31.790        27
31.800        40
31.810        27
31.820        33
31.830        27
31.840        40
31.850        67
31.860        27
31.870        47
31.880        67
31.890         7
31.900        33
31.910        33
31.920        40
31.930         7
31.940        33
31.950        53
31.960        13
31.970        40
31.980        47
31.990        20
32.000        47
32.010        27
32.020        33
32.030        53
32.040        27
32.050        60
32.060        27
32.070        40
32.080        53
32.090        27
32.100        20
32.110        20
32.120        27
32.130        27
32.140        33
32.150         7
32.160        60
32.170        33
32.180         7
32.190        13
32.200        20
32.210        13
32.220        20
32.230        33
32.240        53
32.250        53
32.260        47
32.270        40
32.280        47
32.290        33
32.300        53
32.310        27
32.320        60
32.330        53
32.340        27
32.350        20
32.360        20
32.370        47
32.380        40
32.390        20
32.400        27
32.410        13
32.420        20
32.430        33
32.440        40
32.450        33
32.460        20
32.470        13
32.480        20
32.490        40
32.500        20
32.510        27
32.520        13
32.530        20
32.540        40
32.550        47
32.560        20
32.570        47
32.580        27
32.590        53
32.600        20
32.610        27
32.620        60
32.630        13
32.640        13
32.650        27
32.660        27
32.670        20
32.680        13
32.690        67
32.700        27
32.710        20
32.720        53
32.730        20
32.740        33
32.750        27
32.760        27
32.770        40
32.780        47
32.790        53
32.800        67
32.810        20
32.820        60
32.830        40
32.840        47
32.850        33
32.860        13
32.870        47
32.880        33
32.890        27
32.900        27
32.910        27
32.920        47
32.930        80
32.940        40
32.950        47
32.960        60
32.970        33
32.980        13
32.990        20
33.000        40
33.010        33
33.020        33
33.030        47
33.040         7
33.050        47
33.060        53
33.070        53
33.080        40
33.090        40
33.100        40
33.110        40
33.120        20
33.130        60
33.140        20
33.150        47
33.160        47
33.170         7
33.180        53
33.190        20
33.200        60
33.210        27
33.220        40
33.230        53
33.240        40
33.250        27
33.260        47
33.270        47
33.280        60
33.290        67
33.300        33
33.310        87
33.320        53
33.330        20
33.340        47
33.350        27
33.360        13
33.370        67
33.380        67
33.390        40
33.400        67
33.410        67
33.420        80
33.430        40
33.440        60
33.450        73
33.460        33
33.470        80
33.480        33
33.490        40
33.500        80
33.510        20
33.520        40
33.530        33
33.540        73
33.550        73
33.560        67
33.570        20
33.580        60
33.590        40
33.600        67
33.610        60
33.620        40
33.630        67
33.640        47
33.650        67
33.660        47
33.670        20
33.680        53
33.690        73
33.700        33
33.710        73
33.720        20
33.730        27
33.740        27
33.750        40
33.760        33
33.770        47
33.780        40
33.790        73
33.800        27
33.810        47
33.820        53
33.830        60
33.840        40
33.850        73
33.860        60
33.870        33
33.880        53
33.890        53
33.900        60
33.910        40
33.920        67
33.930        40
33.940        20
33.950        27
33.960        27
33.970        20
33.980        27
33.990        27
34.000        60
34.010        27
34.020        53
34.030        27
34.040        60
34.050        47
34.060        53
34.070        47
34.080        53
34.090        40
34.100        80
34.110        47
34.120        47
34.130        33
34.140        33
34.150        33
34.160        67
34.170        93
34.180        53
34.190        80
34.200        67
34.210        60
34.220        60
34.230        40
34.240        27
34.250        47
34.260        47
34.270        40
34.280        67
34.290        53
34.300        47
34.310        53
34.320        47
34.330        47
34.340        40
34.350        53
34.360        53
34.370        20
34.380        40
34.390        53
34.400        53
34.410        73
34.420        67
34.430        47
34.440        47
34.450        40
34.460        40
34.470        60
34.480        47
34.490        33
34.500       107
34.510        20
34.520        47
34.530        40
34.540        47
34.550        60
34.560        33
34.570        53
34.580        47
34.590        33
34.600        73
34.610        13
34.620        60
34.630        33
34.640        73
34.650        40
34.660        47
34.670        67
34.680        53
34.690        33
34.700        67
34.710        53
34.720        47
34.730        47
34.740        47
34.750        67
34.760        20
34.770        40
34.780        27
34.790        47
34.800        27
34.810        33
34.820        47
34.830        40
34.840        47
34.850        60
34.860        53
34.870        47
34.880        27
34.890        53
34.900       100
34.910        53
34.920        67
34.930        33
34.940        60
34.950        67
34.960        60
34.970        67
34.980        67
34.990        40
35.000        40
35.010        73
35.020        67
35.030        67
35.040        53
35.050        53
35.060       113
35.070        87
35.080        67
35.090        27
35.100        40
35.110        60
35.120        60
35.130        73
35.140        87
35.150        67
35.160        73
35.170        33
35.180        53
35.190        53
35.200        27
35.210        60
35.220        60
35.230        27
35.240        80
35.250        73
35.260        47
35.270        60
35.280        67
35.290        47
35.300        47
35.310        53
35.320        67
35.330        67
35.340        87
35.350        40
35.360        53
35.370        67
35.380        60
35.390        40
35.400        20
35.410        20
35.420        80
35.430        33
35.440        47
35.450        53
35.460        53
35.470        53
35.480        40
35.490        53
35.500        67
35.510        53
35.520        53
35.530        60
35.540        73
35.550        47
35.560        67
35.570        33
35.580        40
35.590        53
35.600        33
35.610        73
35.620        40
35.630        27
35.640        67
35.650        87
35.660        40
35.670        87
35.680        47
35.690        87
35.700        40
35.710        53
35.720        67
35.730        53
35.740        80
35.750        40
35.760        73
35.770        67
35.780        40
35.790        80
35.800        40
35.810        80
35.820        40
35.830        53
35.840        33
35.850        27
35.860        40
35.870        73
35.880        73
35.890        67
35.900        60
35.910        60
35.920        47
35.930        67
35.940        73
35.950        60
35.960        93
35.970        93
35.980        60
35.990        40
36.000        27
36.010        33
36.020        73
36.030       100
36.040        47
36.050        67
36.060        53
36.070        53
36.080        87
36.090        73
36.100        47
36.110        40
36.120        53
36.130        47
36.140        73
36.150        80
36.160        20
36.170        73
36.180        33
36.190        67
36.200        60
36.210        53
36.220        60
36.230        47
36.240        80
36.250        60
36.260       107
36.270        47
36.280        47
36.290        73
36.300        67
36.310        53
36.320        93
36.330        73
36.340        60
36.350        60
36.360        53
36.370        87
36.380        80
36.390        47
36.400        40
36.410        47
36.420        47
36.430        87
36.440        73
36.450        47
36.460        80
36.470        33
36.480        87
36.490        60
36.500        60
36.510        47
36.520       100
36.530        40
36.540       107
36.550        53
36.560        40
36.570        40
36.580        60
36.590        73
36.600        40
36.610        60
36.620        73
36.630        53
36.640        20
36.650        60
36.660        40
36.670        73
36.680        73
36.690        47
36.700        40
36.710        67
36.720        27
36.730        40
36.740        47
36.750        40
36.760        33
36.770       100
36.780        93
36.790        67
36.800        47
36.810        33
36.820        60
36.830        47
36.840        47
36.850        40
36.860        53
36.870        60
36.880        53
36.890        60
36.900        33
36.910        47
36.920        80
36.930        93
36.940        53
36.950        60
36.960        60
36.970        73
36.980        20
36.990        67
37.000        33
37.010        53
37.020        53
37.030        67
37.040        53
37.050        67
37.060        60
37.070        47
37.080        53
37.090        53
37.100        33
37.110        80
37.120        47
37.130        60
37.140        60
37.150        40
37.160        73
37.170        40
37.180        60
37.190        93
37.200        20
37.210        73
37.220        73
37.230       113
37.240        40
37.250        20
37.260        60
37.270        47
37.280        67
37.290        80
37.300        40
37.310        67
37.320        53
37.330        47
37.340        33
37.350        60
37.360        40
37.370        47
37.380        53
37.390        80
37.400        53
37.410        53
37.420        53
37.430        60
37.440        47
37.450        60
37.460        53
37.470        60
37.480        53
37.490        80
37.500        33
37.510       107
37.520        87
37.530        80
37.540        40
37.550        33
37.560        20
37.570        53
37.580        80
37.590        20
37.600        80
37.610        33
37.620        53
37.630        60
37.640        60
37.650        47
37.660        93
37.670        40
37.680        47
37.690        67
37.700        60
37.710        53
37.720        73
37.730        53
37.740        60
37.750        53
37.760        80
37.770        60
37.780       113
37.790        60
37.800        60
37.810        80
37.820        60
37.830        73
37.840        53
37.850        80
37.860        47
37.870        33
37.880        67
37.890        47
37.900        47
37.910        80
37.920        53
37.930        47
37.940        40
37.950        40
37.960        60
37.970        60
37.980        33
37.990       100
38.000        40
38.010        67
38.020        67
38.030        67
38.040        53
38.050        60
38.060        67
38.070        87
38.080        40
38.090        67
38.100        80
38.110        53
38.120        80
38.130        20
38.140        53
38.150        73
38.160        47
38.170        13
38.180        73
38.190        67
38.200        80
38.210        33
38.220        60
38.230        67
38.240        67
38.250        80
38.260        47
38.270        53
38.280        73
38.290       100
38.300        67
38.310        60
38.320        80
38.330        47
38.340        53
38.350        80
38.360        80
38.370       127
38.380        60
38.390       113
38.400       120
38.410       100
38.420        93
38.430        87
38.440        80
38.450       100
38.460        73
38.470        47
38.480        93
38.490       120
38.500        93
38.510       113
38.520        87
38.530        73
38.540        93
38.550        87
38.560        60
38.570        40
38.580        60
38.590        47
38.600        53
38.610        53
38.620        33
38.630        87
38.640        53
38.650        67
38.660        53
38.670        60
38.680        73
38.690        47
38.700        67
38.710        47
38.720        87
38.730        67
38.740        80
38.750        33
38.760        20
38.770        67
38.780       140
38.790        60
38.800        27
38.810        60
38.820        73
38.830        53
38.840        80
38.850        27
38.860        47
38.870        40
38.880        33
38.890        67
38.900        47
38.910        47
38.920        40
38.930        60
38.940        53
38.950        80
38.960       100
38.970        60
38.980        60
38.990        53
39.000        27
39.010        93
39.020        67
39.030        47
39.040        40
39.050        40
39.060        60
39.070        60
39.080        87
39.090        87
39.100        40
39.110        53
39.120        33
39.130        80
39.140        27
39.150        60
39.160        73
39.170        20
39.180        60
39.190        53
39.200        80
39.210        47
39.220        47
39.230        67
39.240        40
39.250        60
39.260        87
39.270        60
39.280        80
39.290        53
39.300        80
39.310        40
39.320        73
39.330        47
39.340        80
39.350        53
39.360        87
39.370        60
39.380        40
39.390        60
39.400        73
39.410        53
39.420        33
39.430       120
39.440        60
39.450        67
39.460        53
39.470        60
39.480        67
39.490        33
39.500        53
39.510        47
39.520        33
39.530        20
39.540        60
39.550        80
39.560        53
39.570        80
39.580        73
39.590        53
39.600        67
39.610        60
39.620        33
39.630        40
39.640        53
39.650        40
39.660        40
39.670        47
39.680        27
39.690        67
39.700        60
39.710        33
39.720        60
39.730        80
39.740        67
39.750        87
39.760        67
39.770        33
39.780        40
39.790        93
39.800        67
39.810        27
39.820        80
39.830        53
39.840        80
39.850        47
39.860        13
39.870        60
39.880        47
39.890        73
39.900        47
39.910        53
39.920        93
39.930        20
39.940        47
39.950        27
39.960        60
39.970        20
39.980        27
39.990        27
40.000        53
40.010        67
40.020        80
40.030        33
40.040        67
40.050        27
40.060        40
40.070        40
40.080        40
40.090        60
40.100        47
40.110        53
40.120        60
40.130        87
40.140        60
40.150        47
40.160        53
40.170        87
40.180        47
40.190        40
40.200        40
40.210        27
40.220        67
40.230        60
40.240        47
40.250        87
40.260        47
40.270        33
40.280        53
40.290        47
40.300        47
40.310        20
40.320         0
40.330        53
40.340        47
40.350        67
40.360        33
40.370        33
40.380        93
40.390        27
40.400       100
40.410        40
40.420        67
40.430        60
40.440        60
40.450        40
40.460        53
40.470        80
40.480        93
40.490        80
40.500        27
40.510        60
40.520        27
40.530        27
40.540        67
40.550        20
40.560        53
40.570        33
40.580        40
40.590        67
40.600       100
40.610        67
40.620        67
40.630        53
40.640        60
40.650         7
40.660        60
40.670        47
40.680        53
40.690        13
40.700        20
40.710        53
40.720        47
40.730        40
40.740        53
40.750        80
40.760        33
40.770        13
40.780        47
40.790        40
40.800        47
40.810        27
40.820        73
40.830        60
40.840        73
40.850        20
40.860        67
40.870        33
40.880        53
40.890        73
40.900        40
40.910        40
40.920        80
40.930        40
40.940        47
40.950        13
40.960        40
40.970        33
40.980        47
40.990        67
41.000        33
41.010        20
41.020        47
41.030        80
41.040        67
41.050        53
41.060        47
41.070        60
41.080        53
41.090        53
41.100        60
41.110        53
41.120        40
41.130        27
41.140        67
41.150        67
41.160        33
41.170        53
41.180        60
41.190        47
41.200        53
41.210        40
41.220        33
41.230        80
41.240        60
41.250        33
41.260        60
41.270        53
41.280        33
41.290        53
41.300        80
41.310        53
41.320        33
41.330        33
41.340        60
41.350        67
41.360        67
41.370        47
41.380        80
41.390        47
41.400        67
41.410        27
41.420        33
41.430        67
41.440        40
41.450        53
41.460        53
41.470        53
41.480       107
41.490        53
41.500        40
41.510        33
41.520        67
41.530        27
41.540        53
41.550        40
41.560        80
41.570        73
41.580        73
41.590        67
41.600        53
41.610        67
41.620        20
41.630        53
41.640        33
41.650        33
41.660        33
41.670        20
41.680        67
41.690        33
41.700        47
41.710        60
41.720        60
41.730        53
41.740        60
41.750        27
41.760        27
41.770        47
41.780        47
41.790        67
41.800        47
41.810        33
41.820        47
41.830        53
41.840        93
41.850        53
41.860        33
41.870        27
41.880        40
41.890        73
41.900        40
41.910        67
41.920        47
41.930        27
41.940        53
41.950        60
41.960         7
41.970        40
41.980        27
41.990        13
42.000        67
42.010        60
42.020        73
42.030        53
42.040        67
42.050        27
42.060        27
42.070        27
42.080        27
42.090        47
42.100        67
42.110        33
42.120        60
42.130        53
42.140        33
42.150        53
42.160        47
42.170        27
42.180        33
42.190        47
42.200        27
42.210        40
42.220        27
42.230        87
42.240        53
42.250        20
42.260        53
42.270        73
42.280        67
42.290        40
42.300        33
42.310        73
42.320        53
42.330        27
42.340        33
42.350        47
42.360        27
42.370        20
42.380        40
42.390        47
42.400        67
42.410        40
42.420        40
42.430        53
42.440        40
42.450        60
42.460        53
42.470        80
42.480        40
42.490        47
42.500        47
42.510        67
42.520        67
42.530        47
42.540        53
42.550        80
42.560        40
42.570        33
42.580        87
42.590        27
42.600        13
42.610        27
42.620        60
42.630        53
42.640        53
42.650        47
42.660        53
42.670        27
42.680        67
42.690        53
42.700        47
42.710        20
42.720        47
42.730        67
42.740        73
42.750        40
42.760        47
42.770        67
42.780        73
42.790        40
42.800        27
42.810        53
42.820        40
42.830         7
42.840       100
42.850        33
42.860        53
42.870        53
42.880        40
42.890        33
42.900        40
42.910        40
42.920        53
42.930        73
42.940         7
42.950        73
42.960        93
42.970        33
42.980        87
42.990        87
43.000        53
43.010        27
43.020        87
43.030        60
43.040        47
43.050        80
43.060        20
43.070        73
43.080        40
43.090        93
43.100        67
43.110        13
43.120        47
43.130        80
43.140        67
43.150        87
43.160        20
43.170       100
43.180        73
43.190        40
43.200        40
43.210        93
43.220        40
43.230        73
43.240        40
43.250        60
43.260        67
43.270        40
43.280        53
43.290        60
43.300        67
43.310        53
43.320        53
43.330        73
43.340        67
43.350        60
43.360        40
43.370        33
43.380        60
43.390        27
43.400        20
43.410        33
43.420        53
43.430        20
43.440        80
43.450        53
43.460        80
43.470        53
43.480        33
43.490        40
43.500        40
43.510        60
43.520        33
43.530        47
43.540        53
43.550        40
43.560        33
43.570        47
43.580        40
43.590        33
43.600        33
43.610        47
43.620        47
43.630        60
43.640        33
43.650        53
43.660        27
43.670        67
43.680        67
43.690        60
43.700        33
43.710        27
43.720        40
43.730        20
43.740        67
43.750        40
43.760        40
43.770        67
43.780        40
43.790        27
43.800        33
43.810        60
43.820        60
43.830        60
43.840        33
43.850        53
43.860        20
43.870        60
43.880        67
43.890        33
43.900        20
43.910        60
43.920        20
43.930        40
43.940        67
43.950        40
43.960        27
43.970        60
43.980        47
43.990        53
44.000        80
44.010        60
44.020        40
44.030        60
44.040        60
44.050        40
44.060        60
44.070        47
44.080        60
44.090        60
44.100        33
44.110        40
44.120        60
44.130        53
44.140        67
44.150        47
44.160         7
44.170        73
44.180        27
44.190        53
44.200        20
44.210        60
44.220        40
44.230        40
44.240        33
44.250        40
44.260        40
44.270        33
44.280        60
44.290        73
44.300        33
44.310        40
44.320        53
44.330        20
44.340        93
44.350        33
44.360        40
44.370        80
44.380        33
44.390        47
44.400        80
44.410       100
44.420        60
44.430        73
44.440        47
44.450        67
44.460        40
44.470        80
44.480        60
44.490        93
44.500        53
44.510        87
44.520       120
44.530       113
44.540        93
44.550        80
44.560        67
44.570        80
44.580       140
44.590        93
44.600       133
44.610       120
44.620       113
44.630       113
44.640        73
44.650        87
44.660       167
44.670       107
44.680       127
44.690       167
44.700        67
44.710       120
44.720       107
44.730       120
44.740       107
44.750       100
44.760        93
44.770        33
44.780        87
44.790        80
44.800        87
44.810       120
44.820        67
44.830        33
44.840        60
44.850        27
44.860        73
44.870        33
44.880        53
44.890        40
44.900        53
44.910        67
44.920        20
44.930        67
44.940        53
44.950        40
44.960        73
44.970        53
44.980        60
44.990        67
45.000        47
45.010        47
45.020        47
45.030        47
45.040        27
45.050        53
45.060        33
45.070        40
45.080        40
45.090        53
45.100        47
45.110        73
45.120        33
45.130        60
45.140        20
45.150        27
45.160        73
45.170        60
45.180        40
45.190        67
45.200        40
45.210        47
45.220        47
45.230        53
45.240        33
45.250        60
45.260        47
45.270        53
45.280        40
45.290        67
45.300        33
45.310        73
45.320        47
45.330        47
45.340        40
45.350        53
45.360        60
45.370        27
45.380        47
45.390        53
45.400        67
45.410        33
45.420        60
45.430        60
45.440        13
45.450        87
45.460        60
45.470        33
45.480        40
45.490        67
45.500        60
45.510        47
45.520        67
45.530        60
45.540        47
45.550        80
45.560        47
45.570        47
45.580        67
45.590        60
45.600        27
45.610        67
45.620        27
45.630        40
45.640        47
45.650        27
45.660        47
45.670        47
45.680        13
45.690        47
45.700        73
45.710        67
45.720        27
45.730        67
45.740        47
45.750        27
45.760        20
45.770        40
45.780        47
45.790        40
45.800        67
45.810        53
45.820        47
45.830        47
45.840        60
45.850        67
45.860        47
45.870        53
45.880        40
45.890        13
45.900        53
45.910        53
45.920        40
45.930        40
45.940        60
45.950        73
45.960        40
45.970        60
45.980        33
45.990        53
46.000        60
46.010       100
46.020        60
46.030        47
46.040        40
46.050        73
46.060        33
46.070        40
46.080        40
46.090        60
46.100        33
46.110        80
46.120        67
46.130        53
46.140        47
46.150        47
46.160        53
46.170        53
46.180        40
46.190        33
46.200        47
46.210        60
46.220        40
46.230        47
46.240        80
46.250        40
46.260        60
46.270        27
46.280        40
46.290        60
46.300        40
46.310        33
46.320        60
46.330        47
46.340        47
46.350        40
46.360        60
46.370        93
46.380        73
46.390        60
46.400        53
46.410        33
46.420        60
46.430        73
46.440        33
46.450        73
46.460        67
46.470        33
46.480        27
46.490        73
46.500        53
46.510        53
46.520        40
46.530        47
46.540        27
46.550        40
46.560        67
46.570        60
46.580        47
46.590        33
46.600        53
46.610        73
46.620        60
46.630        60
46.640        80
46.650        33
46.660        53
46.670        47
46.680        67
46.690        33
46.700        33
46.710        47
46.720        60
46.730        53
46.740       100
46.750        67
46.760        87
46.770        73
46.780       107
46.790       100
46.800        60
46.810        93
46.820        87
46.830        53
46.840        80
46.850        73
46.860        80
46.870        60
46.880        60
46.890       147
46.900       120
46.910       100
46.920        87
46.930        73
46.940        60
46.950        80
46.960       107
46.970       107
46.980        93
46.990       153
47.000        80
47.010       107
47.020        93
47.030       113
47.040       120
47.050       113
47.060       107
47.070       107
47.080       147
47.090       207
47.100       240
47.110       327
47.120       267
47.130       407
47.140       640
47.150       820
47.160      1153
47.170      1206
47.180      1439
47.190      1626
47.200      1539
47.210      1333
47.220      1246
47.230       806
47.240       840
47.250       573
47.260       373
47.270       280
47.280       293
47.290       267
47.300       207
47.310       140
47.320       180
47.330       167
47.340        93
47.350       160
47.360       100
47.370       113
47.380       127
47.390       113
47.400        87
47.410       113
47.420       113
47.430       120
47.440        93
47.450        60
47.460       140
47.470        93
47.480        80
47.490        93
47.500        67
47.510        60
47.520       100
47.530        93
47.540        47
47.550       113
47.560        73
47.570        53
47.580        53
47.590        53
47.600        87
47.610        53
47.620        47
47.630        40
47.640        53
47.650        67
47.660        60
47.670        60
47.680        53
47.690        33
47.700        73
47.710        47
47.720        73
47.730        73
47.740        87
47.750        87
47.760        60
47.770        47
47.780        80
47.790        67
47.800        20
47.810        27
47.820       120
47.830        93
47.840        93
47.850        67
47.860        47
47.870        67
47.880        60
47.890        67
47.900        27
47.910        27
47.920        73
47.930        67
47.940        73
47.950        80
47.960        47
47.970        27
47.980        53
47.990        87
48.000        40
48.010        53
48.020        47
48.030        73
48.040        60
48.050        73
48.060        40
48.070        47
48.080        80
48.090        33
48.100        53
48.110        53
48.120        60
48.130        33
48.140        27
48.150        80
48.160        47
48.170        87
48.180       100
48.190        93
48.200        27
48.210        53
48.220        13
48.230        33
48.240        53
48.250        33
48.260        73
48.270        53
48.280        80
48.290        27
48.300        67
48.310        93
48.320        47
48.330        80
48.340        80
48.350        47
48.360        47
48.370        27
48.380        33
48.390        47
48.400        67
48.410        47
48.420        60
48.430        47
48.440        93
48.450        27
48.460        33
48.470        20
48.480        73
48.490        40
48.500        67
48.510        67
48.520        60
48.530        60
48.540        40
48.550        47
48.560        87
48.570        67
48.580        47
48.590        47
48.600        80
48.610        47
48.620        53
48.630        80
48.640        60
48.650        53
48.660        33
48.670        73
48.680        33
48.690        67
48.700        47
48.710        80
48.720        47
48.730        80
48.740        73
48.750        60
48.760        67
48.770        53
48.780        73
48.790        27
48.800        33
48.810        73
48.820        33
48.830        40
48.840        87
48.850        60
48.860        47
48.870        47
48.880        33
48.890        60
48.900        47
48.910        47
48.920        67
48.930        40
48.940        47
48.950        47
48.960        20
48.970        53
48.980        27
48.990        73
49.000        27
49.010        60
49.020        40
49.030        60
49.040        20
49.050        60
49.060        53
49.070        53
49.080        40
49.090        40
49.100        47
49.110        53
49.120        53
49.130        60
49.140        60
49.150        33
49.160        33
49.170         7
49.180       100
49.190        47
49.200        27
49.210        67
49.220        87
49.230        33
49.240        47
49.250        73
49.260        47
49.270        47
49.280        53
49.290        93
49.300        67
49.310        20
49.320        33
49.330        67
49.340        27
49.350        20
49.360        33
49.370        53
49.380        53
49.390        60
49.400        60
49.410        60
49.420        40
49.430        47
49.440        40
49.450        47
49.460        40
49.470        47
49.480        80
49.490        33
49.500        47
49.510        27
49.520        53
49.530        60
49.540        53
49.550        47
49.560        40
49.570        53
49.580        73
49.590        33
49.600        33
49.610        67
49.620        53
49.630        60
49.640        60
49.650        53
49.660        60
49.670        60
49.680        67
49.690        47
49.700       107
49.710        60
49.720        47
49.730        53
49.740        47
49.750        53
49.760        73
49.770        33
49.780        93
49.790        40
49.800        27
49.810        67
49.820        60
49.830        33
49.840        40
49.850        60
49.860        93
49.870        87
49.880        60
49.890        60
49.900        47
49.910        80
49.920        67
49.930        87
49.940        40
49.950        80
49.960        53
49.970        60
49.980        20
49.990        60
50.000        40
50.010        60
50.020        87
50.030        47
50.040        53
50.050        53
50.060        60
50.070        47
50.080        47
50.090        67
50.100        53
50.110        53
50.120       107
50.130        53
50.140        60
50.150       120
50.160        80
50.170        47
50.180        80
50.190        33
50.200        87
50.210        67
50.220        60
50.230       113
50.240        40
50.250        67
50.260        60
50.270        53
50.280        47
50.290        53
50.300        33
50.310        40
50.320        27
50.330        33
50.340        67
50.350        20
50.360        60
50.370        73
50.380        60
50.390        47
50.400        33
50.410        73
50.420        73
50.430        13
50.440        60
50.450        33
50.460        60
50.470        40
50.480        47
50.490        67
50.500        27
50.510        80
50.520        87
50.530        93
50.540        20
50.550        67
50.560        40
50.570        80
50.580        67
50.590        53
50.600       107
50.610        80
50.620       153
50.630       107
50.640       113
50.650       227
50.660       140
50.670       147
50.680       273
50.690       273
50.700       307
50.710       360
50.720       387
50.730       293
50.740       360
50.750       320
50.760       300
50.770       340
50.780       433
50.790       360
50.800       413
50.810       466
50.820       407
50.830       533
50.840       400
50.850       433
50.860       393
50.870       453
50.880       440
50.890       307
50.900       367
50.910       360
50.920       393
50.930       526
50.940       380
50.950       460
50.960       313
50.970       387
50.980       393
50.990       347
51.000       426
51.010       380
51.020       333
51.030       353
51.040       360
51.050       300
51.060       373
51.070       420
51.080       367
51.090       307
51.100       400
51.110       333
51.120       446
51.130       300
51.140       387
51.150       380
51.160       387
51.170       313
51.180       400
51.190       347
51.200       313
51.210       380
51.220       387
51.230       360
51.240       347
51.250       307
51.260       466
51.270       380
51.280       433
51.290       340
51.300       393
51.310       387
51.320       380
51.330       360
51.340       420
51.350       307
51.360       407
51.370       360
51.380       380
51.390       380
51.400       340
51.410       440
51.420       353
51.430       333
51.440       373
51.450       340
51.460       313
51.470       353
51.480       340
51.490       387
51.500       400
51.510       420
51.520       453
51.530       446
51.540       393
51.550       446
51.560       327
51.570       380
51.580       373
51.590       413
51.600       420
51.610       307
51.620       393
51.630       426
51.640       440
51.650       433
51.660       400
51.670       426
51.680       333
51.690       360
51.700       453
51.710       393
51.720       506
51.730       453
51.740       480
51.750       493
51.760       440
51.770       480
51.780       500
51.790       433
51.800       526
51.810       420
51.820       367
51.830       360
51.840       407
51.850       420
51.860       420
51.870       540
51.880       407
51.890       493
51.900       407
51.910       407
51.920       400
51.930       500
51.940       393
51.950       387
51.960       506
51.970       646
51.980       586
51.990       500
52.000       520
52.010       500
52.020       546
52.030       573
52.040       680
52.050       506
52.060       653
52.070       660
52.080       593
52.090       520
52.100       686
52.110       626
52.120       600
52.130       620
52.140       640
52.150       613
52.160       686
52.170       686
52.180       586
52.190       780
52.200       846
52.210       853
52.220       813
52.230       953
52.240       926
52.250      1106
52.260      1133
52.270      1386
52.280      1573
52.290      1706
52.300      1653
52.310      2126
52.320      2479
52.330      2679
52.340      2799
52.350      2792
52.360      3252
52.370      3079
52.380      2952
52.390      3105
52.400      3032
52.410      3025
52.420      3159
52.430      3519
52.440      3838
52.450      4298
52.460      5238
52.470      6271
52.480      7497
52.490      9163
52.500     12082
52.510     16087
52.520     21778
52.530     32960
52.540     56138
52.550     89118
52.560    121078
52.570    145389
52.580    158057
52.590    165107
52.600    161942
52.610    149527
52.620    126789
52.630     92870
52.640     61615
52.650     41703
52.660     33700
52.670     33040
52.680     41817
52.690     56384
52.700     72584
52.710     86725
52.720     95029
52.730     96341
52.740     95628
52.750     85772
52.760     71431
52.770     50613
52.780     33333
52.790     21418
52.800     14114
52.810     10116
52.820      9083
52.830      7584
52.840      7397
52.850      6297
52.860      6011
52.870      4978
52.880      4725
52.890      3778
52.900      3092
52.910      2746
52.920      2266
52.930      1946
52.940      1646
52.950      1553
52.960      1439
52.970      1346
52.980      1493
52.990      1393
53.000      1206
53.010      1040
53.020       986
53.030      1133
53.040       966
53.050       920
53.060       900
53.070       953
53.080       966
53.090       880
53.100       813
53.110       760
53.120       600
53.130       746
53.140       700
53.150       720
53.160       606
53.170       666
53.180       580
53.190       653
53.200       693
53.210       660
53.220       580
53.230       513
53.240       606
53.250       513
53.260       520
53.270       473
53.280       566
53.290       500
53.300       520
53.310       420
53.320       493
53.330       606
53.340       533
53.350       520
53.360       586
53.370       446
53.380       486
53.390       526
53.400       440
53.410       500
53.420       446
53.430       426
53.440       526
53.450       433
53.460       426
53.470       373
53.480       446
53.490       387
53.500       373
53.510       347
53.520       493
53.530       520
53.540       380
53.550       466
53.560       400
53.570       480
53.580       353
53.590       453
53.600       380
53.610       373
53.620       440
53.630       367
53.640       486
53.650       307
53.660       313
53.670       387
53.680       367
53.690       327
53.700       327
53.710       333
53.720       440
53.730       347
53.740       260
53.750       400
53.760       313
53.770       293
53.780       360
53.790       347
53.800       313
53.810       393
53.820       280
53.830       260
53.840       293
53.850       313
53.860       367
53.870       280
53.880       387
53.890       287
53.900       313
53.910       307
53.920       446
53.930       360
53.940       273
53.950       287
53.960       293
53.970       273
53.980       420
53.990       333
54.000       287
54.010       247
54.020       360
54.030       280
54.040       287
54.050       300
54.060       200
54.070       233
54.080       293
54.090       253
54.100       300
54.110       280
54.120       313
54.130       300
54.140       247
54.150       280
54.160       267
54.170       200
54.180       333
54.190       313
54.200       200
54.210       327
54.220       287
54.230       260
54.240       340
54.250       280
54.260       300
54.270       213
54.280       267
54.290       247
54.300       313
54.310       280
54.320       267
54.330       260
54.340       207
54.350       247
54.360       260
54.370       287
54.380       240
54.390       253
54.400       287
54.410       273
54.420       227
54.430       300
54.440       240
54.450       307
54.460       187
54.470       307
54.480       300
54.490       220
54.500       293
54.510       280
54.520       327
54.530       200
54.540       253
54.550       267
54.560       307
54.570       260
54.580       193
54.590       220
54.600       260
54.610       220
54.620       247
54.630       193
54.640       300
54.650       200
54.660       247
54.670       247
54.680       260
54.690       180
54.700       260
54.710       267
54.720       200
54.730       240
54.740       207
54.750       287
54.760       233
54.770       227
54.780       253
54.790       267
54.800       327
54.810       307
54.820       240
54.830       267
54.840       180
54.850       193
54.860       233
54.870       253
54.880       260
54.890       213
54.900       227
54.910       273
54.920       213
54.930       253
54.940       220
54.950       180
54.960       160
54.970       227
54.980       200
54.990       220
55.000       173
55.010       260
55.020       200
55.030       280
55.040       213
55.050       273
55.060       280
55.070       240
55.080       227
55.090       320
55.100       200
55.110       300
55.120       213
55.130       253
55.140       187
55.150       200
55.160       220
55.170       200
55.180       233
55.190       200
55.200       280
55.210       260
55.220       207
55.230       213
55.240       200
55.250       247
55.260       313
55.270       367
55.280       347
55.290       293
55.300       327
55.310       320
55.320       267
55.330       247
55.340       347
55.350       307
55.360       247
55.370       300
55.380       360
55.390       313
55.400       347
55.410       300
55.420       373
55.430       367
55.440       307
55.450       320
55.460       287
55.470       333
55.480       287
55.490       260
55.500       313
55.510       340
55.520       227
55.530       287
55.540       300
55.550       333
55.560       353
55.570       313
55.580       267
55.590       267
55.600       187
55.610       300
55.620       227
55.630       187
55.640       220
55.650       193
55.660       173
55.670       220
55.680       260
55.690       227
55.700       227
55.710       167
55.720       180
55.730       233
55.740       187
55.750       193
55.760       193
55.770       147
55.780       147
55.790       180
55.800       233
55.810       193
55.820       173
55.830       260
55.840       240
55.850       167
55.860       180
55.870       167
55.880       207
55.890       193
55.900       187
55.910       227
55.920       213
55.930       220
55.940       213
55.950       240
55.960       173
55.970       140
55.980       200
55.990       187
56.000       200
56.010       140
56.020       247
56.030       153
56.040       193
56.050       167
56.060       220
56.070       173
56.080       200
56.090       153
56.100       260
56.110       187
56.120       187
56.130       213
56.140       227
56.150       193
56.160       267
56.170       187
56.180       173
56.190       180
56.200       180
56.210       193
56.220       167
56.230       147
56.240       193
56.250       127
56.260       227
56.270       120
56.280       287
56.290       140
56.300       153
56.310       133
56.320       193
56.330        93
56.340       127
56.350       160
56.360       153
56.370       167
56.380       233
56.390       207
56.400       207
56.410       147
56.420       180
56.430       140
56.440       147
56.450       173
56.460       180
56.470       187
56.480        80
56.490       213
56.500       187
56.510       173
56.520       160
56.530       173
56.540       153
56.550       173
56.560       133
56.570       187
56.580       133
56.590       193
56.600       153
56.610       207
56.620       180
56.630       167
56.640       167
56.650       127
56.660       173
56.670       140
56.680       180
56.690       153
56.700       133
56.710       193
56.720       107
56.730       133
56.740       173
56.750       153
56.760       133
56.770       180
56.780       193
56.790       147
56.800       127
56.810       133
56.820       147
56.830       173
56.840       153
56.850       153
56.860       167
56.870       187
56.880       200
56.890       120
56.900       213
56.910       113
56.920       180
56.930       200
56.940       227
56.950       120
56.960       187
56.970       193
56.980       147
56.990       167
57.000       187
57.010       147
57.020       187
57.030       120
57.040       193
57.050       127
57.060       147
57.070       133
57.080       133
57.090       107
57.100       140
57.110       140
57.120       107
57.130       193
57.140       167
57.150       153
57.160       160
57.170       100
57.180       167
57.190       167
57.200       113
57.210       187
57.220       173
57.230       193
57.240       100
57.250       147
57.260       140
57.270       113
57.280       153
57.290       120
57.300       147
57.310       160
57.320       167
57.330       147
57.340       180
57.350       180
57.360       227
57.370       180
57.380       173
57.390       187
57.400       180
57.410       227
57.420       213
57.430       140
57.440       180
57.450       180
57.460       180
57.470       167
57.480       133
57.490       107
57.500       133
57.510       227
57.520       153
57.530       127
57.540       153
57.550       153
57.560       193
57.570       127
57.580       160
57.590       107
57.600       140
57.610        87
57.620       173
57.630       107
57.640       107
57.650       113
57.660       120
57.670       133
57.680       153
57.690       173
57.700       167
57.710       127
57.720       113
57.730       133
57.740       100
57.750       160
57.760       180
57.770       147
57.780       147
57.790       167
57.800       120
57.810       100
57.820       140
57.830       173
57.840       120
57.850       120
57.860       113
57.870       147
57.880       107
57.890       107
57.900       180
57.910       140
57.920       147
57.930       100
57.940        93
57.950       207
57.960       140
57.970       153
57.980       167
57.990       167
58.000       120
58.010       133
58.020       133
58.030       133
58.040       127
58.050       127
58.060       147
58.070       227
58.080       180
58.090       120
58.100       160
58.110       200
58.120       120
58.130       160
58.140       180
58.150       173
58.160       153
58.170       180
58.180       147
58.190        67
58.200       153
58.210       100
58.220       113
58.230       127
58.240       120
58.250       140
58.260       127
58.270       160
58.280       127
58.290       120
58.300        93
58.310       167
58.320       180
58.330       147
58.340       133
58.350       140
58.360       107
58.370       140
58.380        80
58.390       167
58.400       173
58.410       127
58.420       113
58.430       133
58.440       167
58.450       127
58.460       127
58.470       140
58.480       120
58.490       107
58.500        87
58.510       140
58.520       167
58.530       153
58.540       147
58.550       133
58.560        93
58.570       133
58.580       187
58.590       153
58.600       140
58.610       147
58.620       113
58.630       120
58.640       113
58.650       120
58.660       113
58.670       140
58.680       127
58.690       113
58.700       167
58.710       140
58.720        80
58.730       127
58.740       127
58.750       167
58.760       140
58.770       140
58.780       187
58.790       153
58.800       140
58.810       160
58.820        93
58.830       140
58.840        87
58.850       147
58.860       140
58.870        93
58.880       153
58.890       147
58.900       133
58.910       167
58.920       133
58.930       153
58.940       140
58.950        93
58.960       140
58.970       107
58.980       147
58.990       113
59.000       153
59.010        47
59.020       147
59.030        93
59.040       120
59.050       147
59.060       133
59.070       100
59.080       153
59.090       133
59.100       147
59.110       127
59.120       127
59.130       100
59.140       167
59.150       140
59.160       153
59.170        67
59.180       133
59.190        80
59.200        60
59.210       120
59.220       120
59.230       100
59.240       120
59.250       113
59.260       140
59.270        80
59.280        80
59.290       113
59.300       127
59.310       120
59.320       140
59.330        67
59.340       107
59.350       140
59.360        80
59.370       140
59.380       113
59.390       173
59.400       127
59.410       167
59.420        87
59.430       107
59.440       113
59.450       120
59.460       140
59.470        93
59.480       147
59.490        73
59.500       113
59.510       113
59.520        87
59.530       113
59.540        87
59.550        60
59.560        87
59.570       100
59.580       113
59.590       147
59.600        93
59.610       153
59.620       120
59.630       160
59.640       120
59.650       160
59.660       120
59.670       173
59.680       113
59.690       147
59.700        53
59.710       113
59.720       100
59.730       100
59.740       167
59.750        67
59.760       107
59.770       133
59.780       133
59.790       133
59.800       113
59.810       147
59.820       107
59.830        80
59.840       153
59.850       133
59.860       100
59.870       113
59.880       120
59.890        80
59.900       113
59.910       113
59.920       113
59.930       133
59.940       127
59.950       133
59.960       100
59.970       100
59.980       160
59.990       120
60.000        87
