20.000        53
20.010        53
20.020        27
20.030        27
20.040        47
20.050        33
20.060        40
20.070        40
20.080        33
20.090        60
20.100        33
20.110        40
20.120        47
20.130        40
20.140        40
20.150        33
20.160        60
20.170        53
20.180        60
20.190        33
20.200        33
20.210        27
20.220        40
20.230        27
20.240        40
20.250        47
20.260        53
20.270        47
20.280        13
20.290        53
20.300        60
20.310        47
20.320        27
20.330        60
20.340        33
20.350        53
20.360        40
20.370        27
20.380        47
20.390        33
20.400        13
20.410        60
20.420        13
20.430        33
20.440        27
20.450        40
20.460        67
20.470        33
20.480        40
20.490        33
20.500        20
20.510        13
20.520        27
20.530        47
20.540        47
20.550        40
20.560        20
20.570        40
20.580        33
20.590        40
20.600        33
20.610        20
20.620        73
20.630        33
20.640        13
20.650        47
20.660        40
20.670        47
20.680        53
20.690        40
20.700        27
20.710        40
20.720        33
20.730        27
20.740        60
20.750        33
20.760        33
20.770        47
20.780        27
20.790        33
20.800         7
20.810        27
20.820        53
20.830        27
20.840        40
20.850        33
20.860        40
20.870        20
20.880        20
20.890        27
20.900        20
20.910        27
20.920        80
20.930        40
20.940        27
20.950        40
20.960        60
20.970        40
20.980        40
20.990        47
21.000        40
21.010        60
21.020        33
21.030        40
21.040        20
21.050        33
21.060        40
21.070        13
21.080        53
21.090        53
21.100        33
21.110        47
21.120        40
21.130        47
21.140        60
21.150        40
21.160        27
21.170        20
21.180        60
21.190        67
21.200        33
21.210        27
21.220        47
21.230        40
21.240        60
21.250        40
21.260        47
21.270        20
21.280        33
21.290        33
21.300        53
21.310        53
21.320         7
21.330        33
21.340        47
21.350        67
21.360        53
21.370        53
21.380        60
21.390        47
21.400        67
21.410        47
21.420        33
21.430        60
21.440        47
21.450        40
21.460        20
21.470        27
21.480        53
21.490        53
21.500        33
21.510        33
21.520        40
21.530        27
21.540        60
21.550        47
21.560        47
21.570        60
21.580        40
21.590        73
21.600        47
21.610        20
21.620        33
21.630        13
21.640        20
21.650        33
21.660        60
21.670        33
21.680        20
21.690        80
21.700        20
21.710        27
21.720        40
21.730        67
21.740        53
21.750        27
21.760        60
21.770        33
21.780        53
21.790        53
21.800        67
21.810       100
21.820        20
21.830        33
21.840        67
21.850       100
21.860        80
21.870        73
21.880        53
21.890        60
21.900        67
21.910        60
21.920        67
21.930        53
21.940       127
21.950        53
21.960        33
21.970        73
21.980        33
21.990        13
22.000        93
22.010        60
22.020        47
22.030        60
22.040        40
22.050        33
22.060        47
22.070        67
22.080        40
22.090        53
22.100        33
22.110        13
22.120        53
22.130        33
22.140        13
22.150        27
22.160        33
22.170        27
22.180        53
22.190        53
22.200        13
22.210        47
22.220        60
22.230        27
22.240        47
22.250        33
22.260        33
22.270        40
22.280        33
22.290        27
22.300        40
22.310        47
22.320        20
22.330        53
22.340        33
22.350        27
22.360        40
22.370        20
22.380        40
22.390        33
22.400        47
22.410        27
22.420        20
22.430        53
22.440        13
22.450        13
22.460        47
22.470        27
22.480        80
22.490        27
22.500        27
22.510        53
22.520        60
22.530         7
22.540        40
22.550        53
22.560        60
22.570        33
22.580        20
22.590        53
22.600        20
22.610        40
22.620        20
22.630        53
22.640        47
22.650        13
22.660        27
22.670        53
22.680        33
22.690        20
22.700        13
22.710        27
22.720        20
22.730        20
22.740        60
22.750        60
22.760        33
22.770        60
22.780        33
22.790        47
22.800        40
22.810        47
22.820        40
22.830        60
22.840        53
22.850        47
22.860        47
22.870        13
22.880        13
22.890        53
22.900        60
22.910        33
22.920        40
22.930        33
22.940        47
22.950        40
22.960        47
22.970        20
22.980        27
22.990        33
23.000        33
23.010        27
23.020        40
23.030        40
23.040        20
23.050        33
23.060        60
23.070        33
23.080        33
23.090        67
23.100        40
23.110        27
23.120        60
23.130        47
23.140         7
23.150        40
23.160        33
23.170        20
23.180        20
23.190        67
23.200        40
23.210        40
23.220        40
23.230        40
23.240        20
23.250        53
23.260        20
23.270        67
23.280        13
23.290        60
23.300         7
23.310         7
23.320        47
23.330        40
23.340        47
23.350        40
23.360        47
23.370        33
23.380        33
23.390        53
23.400        13
23.410        40
23.420        40
23.430        40
23.440         0
23.450        27
23.460        33
23.470        27
23.480         7
23.490        27
23.500        20
23.510        27
23.520        40
23.530        47
23.540        20
23.550        13
23.560        40
23.570        40
23.580        40
23.590        13
23.600        33
23.610        20
23.620        33
23.630        13
23.640        27
23.650        53
23.660        20
23.670        47
23.680        27
23.690        13
23.700        13
23.710        27
23.720        53
23.730        33
23.740        47
23.750        40
23.760        33
23.770        53
23.780         7
23.790        20
23.800        27
23.810        47
23.820        27
23.830        33
23.840        47
23.850        33
23.860        33
23.870        20
23.880        33
23.890        20
23.900        53
23.910        27
23.920        40
23.930        13
23.940        33
23.950        20
23.960        27
23.970        27
23.980        20
23.990        53
24.000         0
24.010        40
24.020        33
24.030        47
24.040        33
24.050        33
24.060        33
24.070        27
24.080        27
24.090        27
24.100        20
24.110        33
24.120         0
24.130        40
24.140        20
24.150        20
24.160        40
24.170        27
24.180         7
24.190        33
24.200        60
24.210        53
24.220        40
24.230        40
24.240        27
24.250        27
24.260        60
24.270        27
24.280        33
24.290        40
24.300        53
24.310         7
24.320        33
24.330        53
24.340        27
24.350        40
24.360        20
24.370        27
24.380        40
24.390        20
24.400        33
24.410        27
24.420        20
24.430        27
24.440        33
24.450        33
24.460        27
24.470        33
24.480        33
24.490        27
24.500        13
24.510        47
24.520         7
24.530        33
24.540        13
24.550        40
24.560        13
24.570        33
24.580        27
24.590        13
24.600        53
24.610        47
24.620        33
24.630        13
24.640        67
24.650        20
24.660        33
24.670        80
24.680        20
24.690        27
24.700        20
24.710        27
24.720        27
24.730        33
24.740        47
24.750        53
24.760        33
24.770        53
24.780        20
24.790        13
24.800        40
24.810        53
24.820        47
24.830        20
24.840        67
24.850        33
24.860        47
24.870        20
24.880         7
24.890        40
24.900         7
24.910        13
24.920        47
24.930        27
24.940        33
24.950        33
24.960        40
24.970        33
24.980        27
24.990        27
25.000        27
25.010        40
25.020        20
25.030        20
25.040        20
25.050        20
25.060         7
25.070        33
25.080        53
25.090        53
25.100        13
25.110        40
25.120        40
25.130        20
25.140        40
25.150        27
25.160        53
25.170        33
25.180        33
25.190        60
25.200        53
25.210        40
25.220        20
25.230        27
25.240        27
25.250        93
25.260        53
25.270        40
25.280        20
25.290        20
25.300        60
25.310        40
25.320        47
25.330        27
25.340        67
25.350        20
25.360        40
25.370         7
25.380        13
25.390        40
25.400        27
25.410        53
25.420        53
25.430        20
25.440        27
25.450        20
25.460        53
25.470        60
25.480        20
25.490        60
25.500        27
25.510        27
25.520        27
25.530        27
25.540        40
25.550        53
25.560        40
25.570        27
25.580        47
25.590        53
25.600        73
25.610       107
25.620        67
25.630       107
25.640        67
25.650        67
25.660        27
25.670        33
25.680        60
25.690        53
25.700        33
25.710        47
25.720        40
25.730        20
25.740         7
25.750        27
25.760        20
25.770        13
25.780        33
25.790        13
25.800        20
25.810        20
25.820        13
25.830        20
25.840        40
25.850        40
25.860        33
25.870        40
25.880        33
25.890        33
25.900        13
25.910        33
25.920        33
25.930        47
25.940        40
25.950        13
25.960        47
25.970        27
25.980        33
25.990        27
26.000        33
26.010        27
26.020        27
26.030        13
26.040        27
26.050        53
26.060        13
26.070        27
26.080        33
26.090        13
26.100        13
26.110        27
26.120        40
26.130        27
26.140         7
26.150        20
26.160        40
26.170        33
26.180        47
26.190        33
26.200        47
26.210        33
26.220        40
26.230        27
26.240        40
26.250        40
26.260        40
26.270        53
26.280        47
26.290        33
26.300        33
26.310        20
26.320        60
26.330        27
26.340        33
26.350        20
26.360        20
26.370        13
26.380        40
26.390        73
26.400        40
26.410        20
26.420        20
26.430        40
26.440         0
26.450        20
26.460        20
26.470        53
26.480        13
26.490        13
26.500        47
26.510        40
26.520        33
26.530        27
26.540        27
26.550        27
26.560        20
26.570         7
26.580        40
26.590        27
26.600        33
26.610        20
26.620        13
26.630        27
26.640        33
26.650        13
26.660        13
26.670        27
26.680        20
26.690         7
26.700        40
26.710        27
26.720        13
26.730        20
26.740        13
26.750        20
26.760        53
26.770        47
26.780        13
26.790        20
26.800        40
26.810        20
26.820        13
26.830        20
26.840        27
26.850        20
26.860        27
26.870        27
26.880        40
26.890         0
26.900        20
26.910         7
26.920        20
26.930        13
26.940        33
26.950        20
26.960        53
26.970        33
26.980        13
26.990        20
27.000        33
27.010        67
27.020        27
27.030        40
27.040        27
27.050        40
27.060        20
27.070        13
27.080        13
27.090         7
27.100        47
27.110         0
27.120         7
27.130        27
27.140        40
27.150         7
27.160         7
27.170        40
27.180        40
27.190        13
27.200         7
27.210        27
27.220        20
27.230        33
27.240        20
27.250        13
27.260        40
27.270        47
27.280        20
27.290        20
27.300        20
27.310        47
27.320        27
27.330        13
27.340        20
27.350         7
27.360        13
27.370         7
27.380        40
27.390        40
27.400        20
27.410        20
27.420        13
27.430         7
27.440        20
27.450         7
27.460        47
27.470        40
27.480        33
27.490        20
27.500        13
27.510        33
27.520        47
27.530        27
27.540        33
27.550        20
27.560        13
27.570        13
27.580        27
27.590        27
27.600        13
27.610        40
27.620        33
27.630         7
27.640        13
27.650        13
27.660        27
27.670        27
27.680        67
27.690        53
27.700        13
27.710        27
27.720        20
27.730        20
27.740        27
27.750        13
27.760        33
27.770        60
27.780        40
27.790         7
27.800        33
27.810        47
27.820        27
27.830        27
27.840        13
27.850        20
27.860        20
27.870        40
27.880        13
27.890        20
27.900        27
27.910        40
27.920        20
27.930        33
27.940        47
27.950        13
27.960        33
27.970        33
27.980        53
27.990        40
28.000        33
28.010        40
28.020        33
28.030        20
28.040        27
28.050        27
28.060        33
28.070        20
28.080        33
28.090        33
28.100        27
28.110        20
28.120        33
28.130        27
28.140        40
28.150        13
28.160         7
28.170        33
28.180        27
28.190        47
28.200        27
28.210        20
28.220        40
28.230        33
28.240        20
28.250        53
28.260        40
28.270        33
28.280        20
28.290        13
28.300        13
28.310        20
28.320        20
28.330        27
28.340        13
28.350        20
28.360        20
28.370        27
28.380        33
28.390         0
28.400        13
28.410        33
28.420        13
28.430        33
28.440        33
28.450        33
28.460        20
28.470        20
28.480         7
28.490        40
28.500        40
28.510        33
28.520        47
28.530        13
28.540        33
28.550        20
28.560        27
28.570        13
28.580        20
28.590        40
28.600        33
28.610        27
28.620        27
28.630        40
28.640        20
28.650        20
28.660        20
28.670        20
28.680        33
28.690        33
28.700        27
28.710        33
28.720        40
28.730        27
28.740        27
28.750         7
28.760        20
28.770        33
28.780         7
28.790        20
28.800        40
28.810         7
28.820        60
28.830        33
28.840        20
28.850        13
28.860        20
28.870        13
28.880         7
28.890        27
28.900        13
28.910        33
28.920        20
28.930        20
28.940        13
28.950         7
28.960        13
28.970        67
28.980        53
28.990        53
29.000        20
29.010         0
29.020        13
29.030        27
29.040        20
29.050        27
29.060        27
29.070         0
29.080        73
29.090        13
29.100        20
29.110        13
29.120        27
29.130        13
29.140        40
29.150        33
29.160        27
29.170         0
29.180        13
29.190        20
29.200        13
29.210        20
29.220        40
29.230        47
29.240        40
29.250        67
29.260         7
29.270        27
29.280        20
29.290        20
29.300        20
29.310        40
29.320        33
29.330        13
29.340        27
29.350        33
29.360        13
29.370        13
29.380        13
29.390        20
29.400        20
29.410        20
29.420        27
29.430        13
29.440        27
29.450        13
29.460        40
29.470        27
29.480        33
29.490        13
29.500        40
29.510        33
29.520        33
29.530        33
29.540        13
29.550        27
29.560        13
29.570        40
29.580        13
29.590        13
29.600        13
29.610        27
29.620        13
29.630        27
29.640        27
29.650        20
29.660        33
29.670        20
29.680        33
29.690        20
29.700        40
29.710        27
29.720        33
29.730        27
29.740        13
29.750        33
29.760        13
29.770        13
29.780        27
29.790         0
29.800        40
29.810        67
29.820        13
29.830        27
29.840        13
29.850        13
29.860        33
29.870        47
29.880         0
29.890        13
29.900        33
29.910        33
29.920         7
29.930        20
29.940        20
29.950        27
29.960        13
29.970        27
29.980        40
29.990         7
30.000        47
30.010        20
30.020        60
30.030        53
30.040        33
30.050        73
30.060        20
30.070        27
30.080        40
30.090        20
30.100        33
30.110        33
30.120        47
30.130        20
30.140        53
30.150        20
30.160        33
30.170        13
30.180        20
30.190        27
30.200         0
30.210        20
30.220        53
30.230        13
30.240        33
30.250        27
30.260        40
30.270        13
30.280        13
30.290        27
30.300        33
30.310        47
30.320        33
30.330        33
30.340        27
30.350        20
30.360        33
30.370        13
30.380        53
30.390        13
30.400        27
30.410        27
30.420        33
30.430        13
30.440        47
30.450        53
30.460        53
30.470        20
30.480        87
30.490        13
30.500        40
30.510        47
30.520        20
30.530        27
30.540        47
30.550        27
30.560        53
30.570        40
30.580        40
30.590        20
30.600        33
30.610        47
30.620        40
30.630        33
30.640        47
30.650        40
30.660        27
30.670        47
30.680        13
30.690        33
30.700        53
30.710        33
30.720        40
30.730        47
30.740        67
30.750        60
30.760        27
30.770        47
30.780        40
30.790        33
30.800        73
30.810        87
30.820        80
30.830        53
30.840       120
30.850        87
30.860       140
30.870       127
30.880       100
30.890       100
30.900       127
30.910       187
30.920       200
30.930       240
30.940       280
30.950       273
30.960       426
30.970       413
30.980       513
30.990       606
31.000       566
31.010       733
31.020       733
31.030       833
31.040       900
31.050      1133
31.060      1453
31.070      1279
31.080      1286
31.090      1339
31.100      1306
31.110      1246
31.120      1386
31.130      1286
31.140      1286
31.150      1080
31.160      1033
31.170       913
31.180       860
31.190       773
31.200       633
31.210       693
31.220       426
31.230       340
31.240       240
31.250       313
31.260       193
31.270       233
31.280       173
31.290       180
31.300       127
31.310       133
31.320       100
31.330       100
31.340        93
31.350        67
31.360        33
31.370        80
31.380        80
31.390        67
31.400        33
31.410        33
31.420        27
31.430        13
31.440        33
31.450        40
31.460        13
31.470        53
31.480        33
31.490        27
31.500        47
31.510        13
31.520        33
31.530        33
31.540        60
31.550        27
31.560        47
31.570        27
31.580        40
31.590        40
31.600        47
31.610        53
31.620        47
31.630        60
31.640        27
31.650        40
31.660         7
31.670        20
31.680        40
31.690        33
31.700        40
31.710        80
31.720        40
31.730        27
31.740        27
31.750        13
31.760        20
31.770        47
31.780        33
31.790        13
31.800        27
31.810        20
31.820        20
31.830        40
31.840        40
31.850        40
31.860        20
31.870        47
31.880        20
31.890        27
31.900        67
31.910        27
31.920        53
31.930        20
31.940        47
31.950        13
31.960        33
31.970        33
31.980        27
31.990        27
32.000        20
32.010        13
32.020        27
32.030        40
32.040        40
32.050        60
32.060        20
32.070        60
32.080        47
32.090        40
32.100        47
32.110        20
32.120        27
32.130        13
32.140        47
32.150        13
32.160        20
32.170        27
32.180        27
32.190        33
32.200        27
32.210        20
32.220        40
32.230        20
32.240        20
32.250        13
32.260        33
32.270        27
32.280         7
32.290        27
32.300        20
32.310         7
32.320        20
32.330        27
32.340        53
32.350        27
32.360         7
32.370        27
32.380        13
32.390        20
32.400         0
32.410        13
32.420        33
32.430        53
32.440        53
32.450        13
32.460        47
32.470        13
32.480        13
32.490        40
32.500        40
32.510        20
32.520        20
32.530        20
32.540        40
32.550        13
32.560        27
32.570        53
32.580        53
32.590        20
32.600        27
32.610         7
32.620         7
32.630        47
32.640        13
32.650        27
32.660        33
32.670        13
32.680        27
32.690        13
32.700        53
32.710        33
32.720        13
32.730        27
32.740         7
32.750        20
32.760        13
32.770         0
32.780        40
32.790        53
32.800        13
32.810        47
32.820        27
32.830        20
32.840        20
32.850        33
32.860        47
32.870        33
32.880        33
32.890        20
32.900         7
32.910        13
32.920        40
32.930        33
32.940        33
32.950        13
32.960        33
32.970        13
32.980        13
32.990        27
33.000        20
33.010        67
33.020        33
33.030        33
33.040        13
33.050        13
33.060        33
33.070        33
33.080        20
33.090        13
33.100        20
33.110        20
33.120        40
33.130        20
33.140        27
33.150        27
33.160        20
33.170         7
33.180        13
33.190        27
33.200        27
33.210        33
33.220        13
33.230        20
33.240        13
33.250        20
33.260        53
33.270         7
33.280        13
33.290        13
33.300        13
33.310        27
33.320        20
33.330        60
33.340        20
33.350        13
33.360        33
33.370        20
33.380        60
33.390        20
33.400        27
33.410        40
33.420        27
33.430         7
33.440        33
33.450         7
33.460         0
33.470        40
33.480        47
33.490        20
33.500        33
33.510         7
33.520         7
33.530        27
33.540        13
33.550        13
33.560        40
33.570        27
33.580        20
33.590        53
33.600         0
33.610         7
33.620        40
33.630        20
33.640        33
33.650        13
33.660        27
33.670        40
33.680        13
33.690        20
33.700         7
33.710        33
33.720        40
33.730        20
33.740        20
33.750        40
33.760        13
33.770        20
33.780        27
33.790        27
33.800        27
33.810         7
33.820        27
33.830        27
33.840        40
33.850        13
33.860        20
33.870        20
33.880        20
33.890        33
33.900        13
33.910        13
33.920        13
33.930        20
33.940        40
33.950        20
33.960         0
33.970        20
33.980        27
33.990        13
34.000        27
34.010        13
34.020        47
34.030        20
34.040        27
34.050        20
34.060        33
34.070         7
34.080        40
34.090        47
34.100         7
34.110        33
34.120        20
34.130        20
34.140         7
34.150        27
34.160        13
34.170        13
34.180        33
34.190        27
34.200         7
34.210        20
34.220        20
34.230        40
34.240        20
34.250        47
34.260        20
34.270        13
34.280        27
34.290        33
34.300        20
34.310        33
34.320         7
34.330        20
34.340        27
34.350        27
34.360        27
34.370        20
34.380        13
34.390        40
34.400        20
34.410        27
34.420        20
34.430        27
34.440        27
34.450        20
34.460        20
34.470        33
34.480        33
34.490        47
34.500        27
34.510        27
34.520        20
34.530        13
34.540        13
34.550        33
34.560        20
34.570        33
34.580        20
34.590         7
34.600        20
34.610        27
34.620        27
34.630        33
34.640        47
34.650        13
34.660        13
34.670         7
34.680        33
34.690        13
34.700        27
34.710        13
34.720        13
34.730         0
34.740        20
34.750         7
34.760        27
34.770        33
34.780        40
34.790        13
34.800        13
34.810        27
34.820        27
34.830        33
34.840        13
34.850         0
34.860        33
34.870         7
34.880        27
34.890        47
34.900        47
34.910        20
34.920        27
34.930        40
34.940        40
34.950        33
34.960        73
34.970        20
34.980        20
34.990        53
35.000        13
35.010        40
35.020        67
35.030        20
35.040        33
35.050        20
35.060        33
35.070        40
35.080        67
35.090        60
35.100       120
35.110        67
35.120        93
35.130       120
35.140       127
35.150       127
35.160       100
35.170       140
35.180       147
35.190        87
35.200        73
35.210        73
35.220       133
35.230       100
35.240        67
35.250        47
35.260        73
35.270        67
35.280        47
35.290        33
35.300        47
35.310        13
35.320        27
35.330        20
35.340        13
35.350        27
35.360        20
35.370        27
35.380        33
35.390        27
35.400        40
35.410        20
35.420        33
35.430        33
35.440        13
35.450         7
35.460        27
35.470        13
35.480        20
35.490        40
35.500        20
35.510         7
35.520         7
35.530        20
35.540        27
35.550        13
35.560        20
35.570        40
35.580        27
35.590         0
35.600        13
35.610         7
35.620        13
35.630        20
35.640        13
35.650        13
35.660         7
35.670        20
35.680        13
35.690        20
35.700        33
35.710        40
35.720         7
35.730        20
35.740        33
35.750        27
35.760        27
35.770        40
35.780        27
35.790        33
35.800        27
35.810        20
35.820        33
35.830        13
35.840        20
35.850        33
35.860        27
35.870        33
35.880        13
35.890        27
35.900        13
35.910        33
35.920        13
35.930        40
35.940        27
35.950        20
35.960        27
35.970        20
35.980        20
35.990         7
36.000        20
36.010        60
36.020        33
36.030        27
36.040        27
36.050        27
36.060        27
36.070        13
36.080        33
36.090         0
36.100        27
36.110        13
36.120        40
36.130        27
36.140        13
36.150        33
36.160        20
36.170        27
36.180         7
36.190        13
36.200        40
36.210        33
36.220         7
36.230        20
36.240        33
36.250        13
36.260        27
36.270         7
36.280        13
36.290        13
36.300        53
36.310        20
36.320        13
36.330        33
36.340         0
36.350        20
36.360        20
36.370        13
36.380         0
36.390        27
36.400        33
36.410        27
36.420         7
36.430        33
36.440        20
36.450         7
36.460        27
36.470        33
36.480        20
36.490        20
36.500        13
36.510        33
36.520        33
36.530         0
36.540        20
36.550        13
36.560        20
36.570        40
36.580        33
36.590        13
36.600        33
36.610         7
36.620        20
36.630        27
36.640         7
36.650        20
36.660        33
36.670        27
36.680        13
36.690        47
36.700        13
36.710        13
36.720        33
36.730         7
36.740         7
36.750        27
36.760         7
36.770        40
36.780        33
36.790        13
36.800        33
36.810        53
36.820         0
36.830        47
36.840        53
36.850        40
36.860        40
36.870        13
36.880        27
36.890        40
36.900        33
36.910        20
36.920        47
36.930        53
36.940        27
36.950        20
36.960        40
36.970        33
36.980        20
36.990        53
37.000        13
37.010         7
37.020        27
37.030        13
37.040        40
37.050        20
37.060        13
37.070        33
37.080        13
37.090        13
37.100        13
37.110        13
37.120        27
37.130        47
37.140        27
37.150         7
37.160        20
37.170        40
37.180        13
37.190        20
37.200        27
37.210        40
37.220        40
37.230        20
37.240         7
37.250        20
37.260        20
37.270         0
37.280        20
37.290         0
37.300        40
37.310        13
37.320        27
37.330        27
37.340        13
37.350         0
37.360         7
37.370        20
37.380        27
37.390        33
37.400        20
37.410        47
37.420        33
37.430         7
37.440        53
37.450        33
37.460        27
37.470        13
37.480        67
37.490        27
37.500        13
37.510        27
37.520         7
37.530        20
37.540        20
37.550        13
37.560        13
37.570         7
37.580        27
37.590        13
37.600        27
37.610        47
37.620         7
37.630        20
37.640        40
37.650        20
37.660        13
37.670        27
37.680        20
37.690         7
37.700        47
37.710        20
37.720        60
37.730         0
37.740        20
37.750         7
37.760        53
37.770        13
37.780        27
37.790        53
37.800        13
37.810        47
37.820        33
37.830        27
37.840        40
37.850        27
37.860        13
37.870        20
37.880        33
37.890        13
37.900        33
37.910        27
37.920        13
37.930        27
37.940        53
37.950        20
37.960        20
37.970         7
37.980        20
37.990        13
38.000        27
38.010         0
38.020         7
38.030        13
38.040         7
38.050        27
38.060        20
38.070        33
38.080        20
38.090        47
38.100        33
38.110        27
38.120        27
38.130        27
38.140         7
38.150        47
38.160        27
38.170        47
38.180        27
38.190        27
38.200         7
38.210        27
38.220        20
38.230        27
38.240        33
38.250        33
38.260        33
38.270        27
38.280        67
38.290        47
38.300        40
38.310        47
38.320        33
38.330        93
38.340        80
38.350       100
38.360        67
38.370        87
38.380        53
38.390        60
38.400        47
38.410        87
38.420        73
38.430        60
38.440        67
38.450        67
38.460        60
38.470        40
38.480        53
38.490        93
38.500        53
38.510        20
38.520        47
38.530        33
38.540        53
38.550        20
38.560        20
38.570        20
38.580        60
38.590        47
38.600        20
38.610        13
38.620        53
38.630        40
38.640        13
38.650        20
38.660        40
38.670        47
38.680        13
38.690        27
38.700        20
38.710        13
38.720        27
38.730         7
38.740        33
38.750        20
38.760         7
38.770        27
38.780        40
38.790        20
38.800        27
38.810        13
38.820         7
38.830        20
38.840        27
38.850        27
38.860        13
38.870        40
38.880        33
38.890        13
38.900         7
38.910        27
38.920        20
38.930        33
38.940         7
38.950        13
38.960        33
38.970         7
38.980        13
38.990         7
39.000        27
39.010        13
39.020        20
39.030         7
39.040         7
39.050        13
39.060        20
39.070        40
39.080         7
39.090        13
39.100        13
39.110        33
39.120        27
39.130         7
39.140        20
39.150        27
39.160        27
39.170        20
39.180        40
39.190        20
39.200         7
39.210        33
39.220        27
39.230        13
39.240        27
39.250        20
39.260        33
39.270        20
39.280        13
39.290        33
39.300        47
39.310        33
39.320         7
39.330        20
39.340         7
39.350        13
39.360         7
39.370        33
39.380        20
39.390        27
39.400        27
39.410        20
39.420        20
39.430        27
39.440        67
39.450         7
39.460        33
39.470        33
39.480        27
39.490        20
39.500        40
39.510        20
39.520        13
39.530         0
39.540         7
39.550        13
39.560         0
39.570        20
39.580         0
39.590        13
39.600        20
39.610         7
39.620        27
39.630        13
39.640        13
39.650        47
39.660        20
39.670        13
39.680        20
39.690        13
39.700        13
39.710         0
39.720         0
39.730         7
39.740        13
39.750        20
39.760        13
39.770         7
39.780        13
39.790        40
39.800        40
39.810        27
39.820        33
39.830        33
39.840        27
39.850        20
39.860        27
39.870        27
39.880         0
39.890        13
39.900         7
39.910        20
39.920        27
39.930        13
39.940        27
39.950         0
39.960        40
39.970         7
39.980        47
39.990        20
40.000         7
40.010        33
40.020        40
40.030         7
40.040         7
40.050        20
40.060         0
40.070        13
40.080        33
40.090        13
40.100        20
40.110         7
40.120        13
40.130        13
40.140         7
40.150        33
40.160        13
40.170        27
40.180        20
40.190        47
40.200        20
40.210        20
40.220        40
40.230        20
40.240        27
40.250        20
40.260        33
40.270         7
40.280        13
40.290        20
40.300         7
40.310        27
40.320        27
40.330        27
40.340         7
40.350        40
40.360        13
40.370        33
40.380         7
40.390        33
40.400        27
40.410        20
40.420        33
40.430        20
40.440        20
40.450        33
40.460        13
40.470         7
40.480        27
40.490        27
40.500        40
40.510         7
40.520         7
40.530        27
40.540        27
40.550        27
40.560         7
40.570        20
40.580         0
40.590        13
40.600        13
40.610        27
40.620        13
40.630        13
40.640         0
40.650         0
40.660        40
40.670        13
40.680        33
40.690        20
40.700        47
40.710        13
40.720         7
40.730        13
40.740         7
40.750        13
40.760         7
40.770         7
40.780        20
40.790        33
40.800        27
40.810        13
40.820        20
40.830        33
40.840        13
40.850        20
40.860        20
40.870        13
40.880        53
40.890        20
40.900         7
40.910        13
40.920        33
40.930         7
40.940        40
40.950         7
40.960        27
40.970        13
40.980        33
40.990         7
41.000        20
41.010        13
41.020         0
41.030         7
41.040        13
41.050        13
41.060        27
41.070        27
41.080        20
41.090        20
41.100        27
41.110        27
41.120        13
41.130        20
41.140        13
41.150        27
41.160        20
41.170        13
41.180        13
41.190        13
41.200        20
41.210        13
41.220        13
41.230        20
41.240         7
41.250         7
41.260         0
41.270        13
41.280        13
41.290        27
41.300        20
41.310        13
41.320         0
41.330        27
41.340        33
41.350        13
41.360        40
41.370        13
41.380        13
41.390        33
41.400        13
41.410         7
41.420        27
41.430        13
41.440        27
41.450         7
41.460        20
41.470        13
41.480        20
41.490        27
41.500        20
41.510        20
41.520        20
41.530        27
41.540        33
41.550        20
41.560        13
41.570        20
41.580        60
41.590        33
41.600        20
41.610        33
41.620        47
41.630        20
41.640        53
41.650        47
41.660        40
41.670        80
41.680        20
41.690        60
41.700        53
41.710        73
41.720        47
41.730        40
41.740        93
41.750        27
41.760        47
41.770        40
41.780        53
41.790        27
41.800        40
41.810        40
41.820        40
41.830        13
41.840         0
41.850        27
41.860        33
41.870        47
41.880        27
41.890        20
41.900         7
41.910        40
41.920         7
41.930        13
41.940        20
41.950        27
41.960        13
41.970        20
41.980        47
41.990        13
42.000        33
42.010        40
42.020        20
42.030        27
42.040        33
42.050        13
42.060        33
42.070         7
42.080        33
42.090        27
42.100        40
42.110         7
42.120        13
42.130        33
42.140        27
42.150         7
42.160        27
42.170        27
42.180        33
42.190        20
42.200         0
42.210        20
42.220        27
42.230        20
42.240        20
42.250         7
42.260         0
42.270        13
42.280        13
42.290        27
42.300        13
42.310        13
42.320         7
42.330        13
42.340        13
42.350        27
42.360        33
42.370        33
42.380        20
42.390        13
42.400         7
42.410         7
42.420        13
42.430        13
42.440         7
42.450        40
42.460        20
42.470        13
42.480        13
42.490         7
42.500         7
42.510        20
42.520        20
42.530         7
42.540         7
42.550        20
42.560         7
42.570        20
42.580        33
42.590         7
42.600        13
42.610         7
42.620        27
42.630        33
42.640         0
42.650        20
42.660         7
42.670         0
42.680        20
42.690        27
42.700        13
42.710        33
42.720         7
42.730        33
42.740        13
42.750        27
42.760        13
42.770        27
42.780         0
42.790        13
42.800        20
42.810        27
42.820         0
42.830         7
42.840        27
42.850        33
42.860         7
42.870        13
42.880        20
42.890        33
42.900        27
42.910         7
42.920        27
42.930        33
42.940         7
42.950        20
42.960        40
42.970         0
42.980        33
42.990        27
43.000        27
43.010        27
43.020        13
43.030        20
43.040        27
43.050        13
43.060        13
43.070        33
43.080        33
43.090        13
43.100        13
43.110        20
43.120        20
43.130         7
43.140        33
43.150        13
43.160        27
43.170        20
43.180        13
43.190        13
43.200         7
43.210        33
43.220         7
43.230        33
43.240        40
43.250        40
43.260        53
43.270        47
43.280        27
43.290        13
43.300        33
43.310        53
43.320        73
43.330        73
43.340        93
43.350       113
43.360       113
43.370       160
43.380       127
43.390        87
43.400       120
43.410        87
43.420        93
43.430        73
43.440        67
43.450        47
43.460        53
43.470        60
43.480        47
43.490        40
43.500        47
43.510        60
43.520        33
43.530        27
43.540        53
43.550        33
43.560        33
43.570        20
43.580         7
43.590        20
43.600        33
43.610        20
43.620         0
43.630        27
43.640        20
43.650        20
43.660        40
43.670        20
43.680         7
43.690        33
43.700        20
43.710        13
43.720        13
43.730        27
43.740        13
43.750        27
43.760        40
43.770        20
43.780        20
43.790        20
43.800         7
43.810         7
43.820        20
43.830         7
43.840        27
43.850        33
43.860         7
43.870        20
43.880        27
43.890        33
43.900        33
43.910        13
43.920        20
43.930        40
43.940        13
43.950        13
43.960        20
43.970        13
43.980         7
43.990         7
44.000        13
44.010        13
44.020        13
44.030        27
44.040        40
44.050        13
44.060        20
44.070         7
44.080        20
44.090        20
44.100        13
44.110        27
44.120        27
44.130        27
44.140        27
44.150        13
44.160        33
44.170        13
44.180        27
44.190        13
44.200        20
44.210        13
44.220        27
44.230        40
44.240        13
44.250        47
44.260        40
44.270        40
44.280        20
44.290        27
44.300        40
44.310        40
44.320        20
44.330        60
44.340        47
44.350        27
44.360        40
44.370        13
44.380        27
44.390        40
44.400        80
44.410        67
44.420       100
44.430        67
44.440        80
44.450        73
44.460        67
44.470       173
44.480       120
44.490        67
44.500       127
44.510       127
44.520       133
44.530       100
44.540       160
44.550       133
44.560       120
44.570       173
44.580       153
44.590       147
44.600       107
44.610       153
44.620        80
44.630       100
44.640       140
44.650       167
44.660       180
44.670        87
44.680       113
44.690       160
44.700        67
44.710        67
44.720        87
44.730       120
44.740       107
44.750        53
44.760        67
44.770        67
44.780        33
44.790        60
44.800        47
44.810        27
44.820        47
44.830        47
44.840        20
44.850        40
44.860        60
44.870        47
44.880        67
44.890        20
44.900        20
44.910        13
44.920        53
44.930        20
44.940        47
44.950        33
44.960        20
44.970        53
44.980         7
44.990        27
45.000        40
45.010        27
45.020        27
45.030        27
45.040        13
45.050        40
45.060         0
45.070         0
45.080        20
45.090         7
45.100        33
45.110        20
45.120        40
45.130        20
45.140        20
45.150        13
45.160         7
45.170        27
45.180        20
45.190        33
45.200        13
45.210         7
45.220        20
45.230        13
45.240         0
45.250        13
45.260         7
45.270        40
45.280        20
45.290        13
45.300        33
45.310        20
45.320         7
45.330        13
45.340        20
45.350         7
45.360        33
45.370        40
45.380        33
45.390        13
45.400        40
45.410        13
45.420        13
45.430         0
45.440        20
45.450        27
45.460        27
45.470         7
45.480        27
45.490        20
45.500        67
45.510        20
45.520        13
45.530        20
45.540        27
45.550        20
45.560        20
45.570        33
45.580        13
45.590        20
45.600        20
45.610        20
45.620        27
45.630        13
45.640         7
45.650        40
45.660         7
45.670        13
45.680         7
45.690        27
45.700        13
45.710         7
45.720        20
45.730        13
45.740        20
45.750        27
45.760        13
45.770        20
45.780        13
45.790        20
45.800        40
45.810        20
45.820        13
45.830        13
45.840        13
45.850         0
45.860        13
45.870        33
45.880        13
45.890        13
45.900        20
45.910        20
45.920        33
45.930        33
45.940        40
45.950        27
45.960        33
45.970        40
45.980        13
45.990        40
46.000        20
46.010         7
46.020        20
46.030        20
46.040        13
46.050         7
46.060         7
46.070         7
46.080        27
46.090         0
46.100        13
46.110        13
46.120        27
46.130        13
46.140        33
46.150        27
46.160         7
46.170        27
46.180        27
46.190        40
46.200        33
46.210        33
46.220         7
46.230        40
46.240        13
46.250        20
46.260        27
46.270        20
46.280        13
46.290         7
46.300         0
46.310        27
46.320        27
46.330        13
46.340        33
46.350        13
46.360         7
46.370        40
46.380        20
46.390        13
46.400        20
46.410        20
46.420         0
46.430         7
46.440        13
46.450        13
46.460         0
46.470         7
46.480         7
46.490        47
46.500        13
46.510        27
46.520         0
46.530         7
46.540        13
46.550        27
46.560        20
46.570         0
46.580        13
46.590        27
46.600        20
46.610        27
46.620        13
46.630        20
46.640        33
46.650         7
46.660         7
46.670        13
46.680        13
46.690        20
46.700         0
46.710        27
46.720         7
46.730        13
46.740        27
46.750        27
46.760         0
46.770         7
46.780        13
46.790        33
46.800         7
46.810         7
46.820         7
46.830         7
46.840        13
46.850        27
46.860        13
46.870        13
46.880        13
46.890         7
46.900         7
46.910         7
46.920        13
46.930        20
46.940        60
46.950         7
46.960         7
46.970        20
46.980        20
46.990        27
47.000        27
47.010        20
47.020        47
47.030         7
47.040        27
47.050        13
47.060         7
47.070        13
47.080        27
47.090        27
47.100         7
47.110        13
47.120        13
47.130        20
47.140        20
47.150        27
47.160        20
47.170         7
47.180         7
47.190         7
47.200        27
47.210        27
47.220        27
47.230        33
47.240        20
47.250        20
47.260        13
47.270        20
47.280        20
47.290        40
47.300        13
47.310        27
47.320        20
47.330        27
47.340        20
47.350        27
47.360        13
47.370        20
47.380         7
47.390        27
47.400        33
47.410        27
47.420        20
47.430        20
47.440        47
47.450        40
47.460        20
47.470        53
47.480        20
47.490        13
47.500        33
47.510        13
47.520        13
47.530        27
47.540        20
47.550        13
47.560         7
47.570        27
47.580        40
47.590        33
47.600        33
47.610        27
47.620        27
47.630         7
47.640        13
47.650        20
47.660        13
47.670        33
47.680         7
47.690        13
47.700         7
47.710        13
47.720        53
47.730        27
47.740         0
47.750         7
47.760        33
47.770        20
47.780         0
47.790         7
47.800        20
47.810        20
47.820         7
47.830         0
47.840         7
47.850        13
47.860        27
47.870        13
47.880         7
47.890        13
47.900        27
47.910        27
47.920         7
47.930        20
47.940        13
47.950        33
47.960         7
47.970        13
47.980         7
47.990        27
48.000         7
48.010        27
48.020        27
48.030         7
48.040        13
48.050        13
48.060        27
48.070        27
48.080        20
48.090        20
48.100        20
48.110         0
48.120        20
48.130        20
48.140        33
48.150        13
48.160        13
48.170         7
48.180         7
48.190        33
48.200        20
48.210        27
48.220        20
48.230        13
48.240        13
48.250        40
48.260        20
48.270        20
48.280        20
48.290        20
48.300         0
48.310        33
48.320        40
48.330        27
48.340        27
48.350        13
48.360         0
48.370        13
48.380        27
48.390        40
48.400        27
48.410         7
48.420         0
48.430        20
48.440         0
48.450        40
48.460        27
48.470        13
48.480        33
48.490         7
48.500        27
48.510         7
48.520         7
48.530         0
48.540        13
48.550        20
48.560        33
48.570        20
48.580        13
48.590         7
48.600         7
48.610        13
48.620        27
48.630        27
48.640        13
48.650        33
48.660        13
48.670        13
48.680         7
48.690        13
48.700        20
48.710        13
48.720         7
48.730        27
48.740         0
48.750        13
48.760        20
48.770        20
48.780        20
48.790        13
48.800         0
48.810        13
48.820        20
48.830        20
48.840        20
48.850         7
48.860        20
48.870        20
48.880         7
48.890         7
48.900        20
48.910        13
48.920         0
48.930        27
48.940         7
48.950        20
48.960        20
48.970        33
48.980        13
48.990        13
49.000        13
49.010         7
49.020        13
49.030         7
49.040         7
49.050        20
49.060        13
49.070        27
49.080         0
49.090        27
49.100        13
49.110        27
49.120        40
49.130         0
49.140        13
49.150        13
49.160        27
49.170         7
49.180        47
49.190        20
49.200        33
49.210        20
49.220         7
49.230        20
49.240        13
49.250        33
49.260        27
49.270        13
49.280        20
49.290        13
49.300        40
49.310         7
49.320        13
49.330         7
49.340        20
49.350         7
49.360        20
49.370        13
49.380         0
49.390        20
49.400        20
49.410        27
49.420         7
49.430        13
49.440        13
49.450        33
49.460        20
49.470         7
49.480        13
49.490        27
49.500         0
49.510        13
49.520        27
49.530        47
49.540         7
49.550        33
49.560        33
49.570        40
49.580         7
49.590        20
49.600        27
49.610        13
49.620        13
49.630        13
49.640        13
49.650        40
49.660        33
49.670        13
49.680        20
49.690        27
49.700        13
49.710        47
49.720        20
49.730        13
49.740        20
49.750        13
49.760        13
49.770        20
49.780        13
49.790        13
49.800        13
49.810        20
49.820         7
49.830        13
49.840         0
49.850         7
49.860        40
49.870        13
49.880         7
49.890         7
49.900        20
49.910        20
49.920        13
49.930        20
49.940        20
49.950        13
49.960        33
49.970        27
49.980        20
49.990        53
50.000        13
50.010         0
50.020        20
50.030        20
50.040        20
50.050        20
50.060        40
50.070        33
50.080        13
50.090        40
50.100        13
50.110        60
50.120        33
50.130        53
50.140        40
50.150        40
50.160        27
50.170        27
50.180        53
50.190        53
50.200        20
50.210        33
50.220        67
50.230        27
50.240        27
50.250        53
50.260        47
50.270        33
50.280        47
50.290        33
50.300        27
50.310        53
50.320        33
50.330        33
50.340        13
50.350        13
50.360        20
50.370        33
50.380         7
50.390        20
50.400        27
50.410        20
50.420        13
50.430         7
50.440        33
50.450        13
50.460        33
50.470        13
50.480        13
50.490         7
50.500        40
50.510         7
50.520        40
50.530        27
50.540        13
50.550        20
50.560         7
50.570        13
50.580        20
50.590        27
50.600        20
50.610        13
50.620        20
50.630        33
50.640        27
50.650        13
50.660        13
50.670         7
50.680         7
50.690         7
50.700        13
50.710         7
50.720        20
50.730         7
50.740        27
50.750         7
50.760        20
50.770        13
50.780         0
50.790        27
50.800        13
50.810         7
50.820        13
50.830         7
50.840        20
50.850         7
50.860         7
50.870         7
50.880        20
50.890        20
50.900         7
50.910        20
50.920        20
50.930        13
50.940        13
50.950         0
50.960        20
50.970        27
50.980        13
50.990        27
51.000        20
51.010        27
51.020         7
51.030         7
51.040        13
51.050         7
51.060        20
51.070         0
51.080        13
51.090        20
51.100        13
51.110        20
51.120         0
51.130        13
51.140        20
51.150        20
51.160        33
51.170        20
51.180         7
51.190        20
51.200        13
51.210        20
51.220        20
51.230        20
51.240        27
51.250        20
51.260        13
51.270        20
51.280        13
51.290        20
51.300         7
51.310        27
51.320         7
51.330        20
51.340        13
51.350        20
51.360        33
51.370        20
51.380        27
51.390        13
51.400        20
51.410         7
51.420         0
51.430        20
51.440         0
51.450        20
51.460        13
51.470        20
51.480        13
51.490        13
51.500        13
51.510        20
51.520        27
51.530        20
51.540        20
51.550         7
51.560         7
51.570         7
51.580        20
51.590         7
51.600        40
51.610         7
51.620         0
51.630        13
51.640         7
51.650        27
51.660        13
51.670        20
51.680        20
51.690        20
51.700         7
51.710        20
51.720        20
51.730        13
51.740        13
51.750        20
51.760         7
51.770         7
51.780        27
51.790        20
51.800        13
51.810        20
51.820        13
51.830        13
51.840        20
51.850        27
51.860        20
51.870        20
51.880        13
51.890        20
51.900        20
51.910        13
51.920         7
51.930        33
51.940        13
51.950        20
51.960        33
51.970         7
51.980        20
51.990        20
52.000        40
52.010         7
52.020        27
52.030        20
52.040         7
52.050        20
52.060        13
52.070        13
52.080         7
52.090        27
52.100         7
52.110         7
52.120        33
52.130        13
52.140        27
52.150        13
52.160         7
52.170        20
52.180         7
52.190        13
52.200        40
52.210        13
52.220        20
52.230         0
52.240         0
52.250        27
52.260        13
52.270        13
52.280        13
52.290        27
52.300         7
52.310        13
52.320         0
52.330        20
52.340        33
52.350        20
52.360         0
52.370        33
52.380        27
52.390        27
52.400        33
52.410        13
52.420        27
52.430        20
52.440         7
52.450        40
52.460        27
52.470        47
52.480        20
52.490         7
52.500        33
52.510        60
52.520        47
52.530         7
52.540        60
52.550       107
52.560       193
52.570       180
52.580       147
52.590       200
52.600       153
52.610       193
52.620       153
52.630       113
52.640        60
52.650        47
52.660        27
52.670        40
52.680        40
52.690        53
52.700        87
52.710        73
52.720        47
52.730        73
52.740       147
52.750       100
52.760        40
52.770        67
52.780        67
52.790        33
52.800        33
52.810        33
52.820        20
52.830        27
52.840        20
52.850        27
52.860        27
52.870        27
52.880        13
52.890        33
52.900        13
52.910        20
52.920        27
52.930        13
52.940         7
52.950        33
52.960        20
52.970        13
52.980        20
52.990        13
53.000         7
53.010        27
53.020        13
53.030        33
53.040         7
53.050        13
53.060         7
53.070        13
53.080        13
53.090         7
53.100        20
53.110        20
53.120        13
53.130         7
53.140         7
53.150        20
53.160        40
53.170        13
53.180         7
53.190         7
53.200        27
53.210        33
53.220        13
53.230         7
53.240         7
53.250         7
53.260         0
53.270         0
53.280        13
53.290         7
53.300        13
53.310        13
53.320        33
53.330        13
53.340        20
53.350        27
53.360         7
53.370        27
53.380        13
53.390         7
53.400        20
53.410        13
53.420         7
53.430        20
53.440        13
53.450         0
53.460        13
53.470        13
53.480        13
53.490        13
53.500         0
53.510        13
53.520        13
53.530        13
53.540        20
53.550        20
53.560        13
53.570        13
53.580        13
53.590        13
53.600         7
53.610         7
53.620         7
53.630        33
53.640        47
53.650        40
53.660        20
53.670        27
53.680        20
53.690        20
53.700        20
53.710        27
53.720        13
53.730        13
53.740        13
53.750        20
53.760         0
53.770         7
53.780         7
53.790        13
53.800        13
53.810        20
53.820        13
53.830         7
53.840        13
53.850        13
53.860        20
53.870         7
53.880         0
53.890        20
53.900        20
53.910        13
53.920        13
53.930         7
53.940        13
53.950        13
53.960        27
53.970         0
53.980        13
53.990        27
54.000         7
54.010        33
54.020        27
54.030         7
54.040         0
54.050        20
54.060        13
54.070        27
54.080         7
54.090        27
54.100        13
54.110        20
54.120        20
54.130         7
54.140        27
54.150        20
54.160        27
54.170        20
54.180        20
54.190        33
54.200        33
54.210        20
54.220        33
54.230         0
54.240        20
54.250        20
54.260        13
54.270        13
54.280         0
54.290        13
54.300        13
54.310        33
54.320        13
54.330         7
54.340        13
54.350         0
54.360        20
54.370        13
54.380        20
54.390        13
54.400        13
54.410        13
54.420        20
54.430        20
54.440        13
54.450         7
54.460        13
54.470         0
54.480        13
54.490        27
54.500        13
54.510        13
54.520        27
54.530        20
54.540        13
54.550        13
54.560        40
54.570        13
54.580        20
54.590         7
54.600        40
54.610        20
54.620        13
54.630         7
54.640        20
54.650         7
54.660        27
54.670         7
54.680         7
54.690        13
54.700         7
54.710         7
54.720        20
54.730        20
54.740        27
54.750        27
54.760        20
54.770         7
54.780        27
54.790         7
54.800        13
54.810        27
54.820        20
54.830         0
54.840        27
54.850        27
54.860        13
54.870        13
54.880        20
54.890        33
54.900        20
54.910        13
54.920         0
54.930         7
54.940        40
54.950        40
54.960         7
54.970        13
54.980        27
54.990        13
55.000        40
55.010        13
55.020        27
55.030        13
55.040        20
55.050        27
55.060        33
55.070        13
55.080        40
55.090        53
55.100        47
55.110        13
55.120        13
55.130        60
55.140        33
55.150        60
55.160        47
55.170        47
55.180        67
55.190        40
55.200        67
55.210        60
55.220        40
55.230        60
55.240        93
55.250        73
55.260        93
55.270        73
55.280        73
55.290       133
55.300        67
55.310       153
55.320       160
55.330       147
55.340       140
55.350       220
55.360       113
55.370       167
55.380       220
55.390        93
55.400       120
55.410       193
55.420       173
55.430       160
55.440       120
55.450        93
55.460       140
55.470       173
55.480       167
55.490       107
55.500       127
55.510        87
55.520       127
55.530        53
55.540       180
55.550       127
55.560        60
55.570       153
55.580        73
55.590        87
55.600       107
55.610        93
55.620        67
55.630        60
55.640        20
55.650        33
55.660        80
55.670        33
55.680        20
55.690        40
55.700        20
55.710        60
55.720        40
55.730        13
55.740        13
55.750        47
55.760        20
55.770        27
55.780         7
55.790        27
55.800        13
55.810        13
55.820        33
55.830        20
55.840         7
55.850         7
55.860        40
55.870        47
55.880        13
55.890        20
55.900        20
55.910        27
55.920         7
55.930        13
55.940        13
55.950        20
55.960        40
55.970        20
55.980        20
55.990         0
56.000        20
56.010         7
56.020        13
56.030        27
56.040        13
56.050         7
56.060         0
56.070         7
56.080         7
56.090        27
56.100        13
56.110        20
56.120        13
56.130        20
56.140        13
56.150        13
56.160        20
56.170         7
56.180        20
56.190         0
56.200        40
56.210         0
56.220        33
56.230        13
56.240         7
56.250        33
56.260        27
56.270        40
56.280        33
56.290        27
56.300        47
56.310         7
56.320        33
56.330        13
56.340        33
56.350        27
56.360        27
56.370        20
56.380        13
56.390        33
56.400        13
56.410        27
56.420        27
56.430        33
56.440         7
56.450        33
56.460        13
56.470        13
56.480        13
56.490        20
56.500        20
56.510        13
56.520         0
56.530        40
56.540        27
56.550        20
56.560        13
56.570         7
56.580         0
56.590        27
56.600        27
56.610         0
56.620         7
56.630         7
56.640        33
56.650        20
56.660        20
56.670        33
56.680        13
56.690         7
56.700        20
56.710        33
56.720        27
56.730         7
56.740        27
56.750        13
56.760         7
56.770         7
56.780         7
56.790         7
56.800        20
56.810        27
56.820        13
56.830        20
56.840        20
56.850        33
56.860        13
56.870        27
56.880        47
56.890         7
56.900         0
56.910        13
56.920         0
56.930         7
56.940         0
56.950        27
56.960        13
56.970         7
56.980        20
56.990        13
57.000         7
57.010         0
57.020         7
57.030        13
57.040        40
57.050        13
57.060         7
57.070         0
57.080        20
57.090        40
57.100         7
57.110        20
57.120        13
57.130        20
57.140        13
57.150         7
57.160         7
57.170        13
57.180        40
57.190        27
57.200         0
57.210         7
57.220        33
57.230        27
57.240        27
57.250        27
57.260        13
57.270        13
57.280        33
57.290        13
57.300        13
57.310         7
57.320        40
57.330        33
57.340        27
57.350        20
57.360        60
57.370        67
57.380        20
57.390        67
57.400        47
57.410        53
57.420        33
57.430        40
57.440        60
57.450        60
57.460        87
57.470       140
57.480       120
57.490       127
57.500       200
57.510       193
57.520       240
57.530       300
57.540       247
57.550       227
57.560       127
57.570       120
57.580       107
57.590       133
57.600       113
57.610        87
57.620        80
57.630        73
57.640       113
57.650       133
57.660       133
57.670       107
57.680       127
57.690        93
57.700        73
57.710       120
57.720        93
57.730        73
57.740        33
57.750        40
57.760        47
57.770        40
57.780        47
57.790        47
57.800        33
57.810         7
57.820        13
57.830        20
57.840        27
57.850        27
57.860        53
57.870        20
57.880         0
57.890        13
57.900        13
57.910        27
57.920        20
57.930        13
57.940        27
57.950         0
57.960        20
57.970        20
57.980         0
57.990        13
58.000         7
58.010        13
58.020        20
58.030        20
58.040         7
58.050        20
58.060        27
58.070        27
58.080         7
58.090        13
58.100        20
58.110         7
58.120        20
58.130         7
58.140        20
58.150        20
58.160        20
58.170        53
58.180        20
58.190        13
58.200        27
58.210        20
58.220        13
58.230        13
58.240        13
58.250        20
58.260        13
58.270        33
58.280        27
58.290        27
58.300         7
58.310         0
58.320        27
58.330         7
58.340        33
58.350        13
58.360        20
58.370        13
58.380         7
58.390        13
58.400        33
58.410        27
58.420        20
58.430        20
58.440        13
58.450        13
58.460         7
58.470        13
58.480        20
58.490         7
58.500        13
58.510         7
58.520         0
58.530         0
58.540        13
58.550         0
58.560        20
58.570        20
58.580        20
58.590         7
58.600        20
58.610        13
58.620         7
58.630        20
58.640        20
58.650        33
58.660        20
58.670         0
58.680         0
58.690        20
58.700         7
58.710        13
58.720        13
58.730        20
58.740        33
58.750        20
58.760        27
58.770        13
58.780        20
58.790         7
58.800         7
58.810         7
58.820         7
58.830        13
58.840        47
58.850        20
58.860         7
58.870        13
58.880         0
58.890        13
58.900        20
58.910        13
58.920        20
58.930        33
58.940        13
58.950         0
58.960         0
58.970         7
58.980         0
58.990         0
59.000        13
59.010        20
59.020        13
59.030        13
59.040         7
59.050        13
59.060        27
59.070        20
59.080        27
59.090        33
59.100         0
59.110        40
59.120         0
59.130        27
59.140        27
59.150         7
59.160        13
59.170         7
59.180         7
59.190         0
59.200         7
59.210         0
59.220        13
59.230        13
59.240        20
59.250         0
59.260        13
59.270         0
59.280        27
59.290        13
59.300        13
59.310         7
59.320        27
59.330        13
59.340        33
59.350         7
59.360        33
59.370        27
59.380        20
59.390        13
59.400        13
59.410        20
59.420        27
59.430         0
59.440         0
59.450        13
59.460        33
59.470        20
59.480        13
59.490         0
59.500        20
59.510         7
59.520        20
59.530         7
59.540        27
59.550        33
59.560         0
59.570        13
59.580         7
59.590        27
59.600         0
59.610        20
59.620         7
59.630        13
59.640        20
59.650        13
59.660        20
59.670         7
59.680        20
59.690        27
59.700        13
59.710         7
59.720        13
59.730        20
59.740         7
59.750        33
59.760        13
59.770        20
59.780         7
59.790        13
59.800        20
59.810        27
59.820        27
59.830        13
59.840        20
59.850        13
59.860        13
59.870        27
59.880         7
59.890         0
59.900         7
59.910        27
59.920        13
59.930        20
59.940        27
59.950         7
59.960        13
59.970        33
59.980        20
59.990         0
60.000         0
