20.000         0
20.010         0
20.020         0
20.030         0
20.040         0
20.050         7
20.060         0
20.070         0
20.080         0
20.090         0
20.100         0
20.110         0
20.120         0
20.130         0
20.140         0
20.150         0
20.160         0
20.170         0
20.180         0
20.190         0
20.200         0
20.210         0
20.220         0
20.230         0
20.240         0
20.250         0
20.260         0
20.270         0
20.280         0
20.290         0
20.300         0
20.310         0
20.320         0
20.330         0
20.340         0
20.350         7
20.360         0
20.370         0
20.380         0
20.390         0
20.400         0
20.410         0
20.420         0
20.430         0
20.440         0
20.450         0
20.460         0
20.470         0
20.480         0
20.490         0
20.500         0
20.510         0
20.520         0
20.530         0
20.540         0
20.550         0
20.560         0
20.570         7
20.580         0
20.590         0
20.600         0
20.610         0
20.620         7
20.630         0
20.640         0
20.650         0
20.660         0
20.670         0
20.680         0
20.690         0
20.700         0
20.710         0
20.720         0
20.730         0
20.740         0
20.750         0
20.760         0
20.770         0
20.780         0
20.790         0
20.800         0
20.810         0
20.820         0
20.830         0
20.840         0
20.850         0
20.860         0
20.870         0
20.880         0
20.890         0
20.900         0
20.910         0
20.920         0
20.930         0
20.940         0
20.950         0
20.960         0
20.970         0
20.980         0
20.990         7
21.000         0
21.010         0
21.020         0
21.030         0
21.040         0
21.050         0
21.060         0
21.070         7
21.080         0
21.090         0
21.100         0
21.110         0
21.120         0
21.130         0
21.140         0
21.150         0
21.160         0
21.170         0
21.180         0
21.190         0
21.200         0
21.210         0
21.220         0
21.230         0
21.240         0
21.250         0
21.260         0
21.270         0
21.280         7
21.290         0
21.300         0
21.310         0
21.320         0
21.330         0
21.340         0
21.350         0
21.360         0
21.370         0
21.380         7
21.390         0
21.400         0
21.410         0
21.420         0
21.430       260
21.440       413
21.450       493
21.460       560
21.470       493
21.480       520
21.490       426
21.500       513
21.510       426
21.520       400
21.530       606
21.540       453
21.550       453
21.560       480
21.570       486
21.580       580
21.590       500
21.600       433
21.610       480
21.620       540
21.630       446
21.640       506
21.650       500
21.660       473
21.670       440
21.680       473
21.690       433
21.700       387
21.710       480
21.720       466
21.730       493
21.740       573
21.750       440
21.760       407
21.770       520
21.780       400
21.790       407
21.800       446
21.810       407
21.820       520
21.830       440
21.840       573
21.850       553
21.860       500
21.870       493
21.880       493
21.890       453
21.900       420
21.910       420
21.920       560
21.930       493
21.940       446
21.950       400
21.960       426
21.970       460
21.980       426
21.990       540
22.000       513
22.010       393
22.020       480
22.030       493
22.040       526
22.050       500
22.060       480
22.070       473
22.080       493
22.090       506
22.100       400
22.110       513
22.120       453
22.130       453
22.140       500
22.150       400
22.160       440
22.170       407
22.180       500
22.190       453
22.200       466
22.210       526
22.220       473
22.230       526
22.240       660
22.250       566
22.260       613
22.270       460
22.280       526
22.290       446
22.300       426
22.310       393
22.320       380
22.330       466
22.340       493
22.350       546
22.360       466
22.370       493
22.380       513
22.390       546
22.400       440
22.410       393
22.420       600
22.430       520
22.440       600
22.450       453
22.460       573
22.470       513
22.480       500
22.490       526
22.500       560
22.510       433
22.520       526
22.530       426
22.540       500
22.550       433
22.560       440
22.570       493
22.580       440
22.590       380
22.600       486
22.610       466
22.620       307
22.630       506
22.640       446
22.650       446
22.660       373
22.670       486
22.680       433
22.690       486
22.700       433
22.710       473
22.720       393
22.730       407
22.740       493
22.750       440
22.760       446
22.770       453
22.780       426
22.790       473
22.800       400
22.810       486
22.820       453
22.830       446
22.840       387
22.850       440
22.860       407
22.870       393
22.880       433
22.890       440
22.900       360
22.910       353
22.920       460
22.930       360
22.940       393
22.950       367
22.960       500
22.970       480
22.980       440
22.990       380
23.000       380
23.010       466
23.020       347
23.030       340
23.040       520
23.050       373
23.060       387
23.070       400
23.080       426
23.090       426
23.100       446
23.110       353
23.120       453
23.130       407
23.140       493
23.150       433
23.160       453
23.170       400
23.180       407
23.190       420
23.200       426
23.210       440
23.220       520
23.230       400
23.240       420
23.250       387
23.260       473
23.270       480
23.280       453
23.290       333
23.300       387
23.310       353
23.320       466
23.330       387
23.340       353
23.350       466
23.360       420
23.370       407
23.380       347
23.390       293
23.400       347
23.410       340
23.420       440
23.430       426
23.440       407
23.450       426
23.460       413
23.470       460
23.480       420
23.490       473
23.500       440
23.510       520
23.520       400
23.530       466
23.540       373
23.550       393
23.560       347
23.570       380
23.580       486
23.590       333
23.600       380
23.610       393
23.620       400
23.630       387
23.640       440
23.650       426
23.660       387
23.670       353
23.680       340
23.690       426
23.700       367
23.710       313
23.720       353
23.730       400
23.740       420
23.750       400
23.760       393
23.770       440
23.780       407
23.790       426
23.800       400
23.810       433
23.820       480
23.830       387
23.840       380
23.850       340
23.860       333
23.870       347
23.880       413
23.890       353
23.900       320
23.910       407
23.920       340
23.930       393
23.940       380
23.950       353
23.960       433
23.970       387
23.980       413
23.990       320
24.000       360
24.010       380
24.020       413
24.030       387
24.040       420
24.050       313
24.060       400
24.070       480
24.080       340
24.090       367
24.100       387
24.110       387
24.120       340
24.130       300
24.140       320
24.150       320
24.160       300
24.170       380
24.180       380
24.190       393
24.200       353
24.210       460
24.220       440
24.230       380
24.240       347
24.250       367
24.260       360
24.270       313
24.280       313
24.290       353
24.300       287
24.310       327
24.320       300
24.330       307
24.340       300
24.350       353
24.360       307
24.370       360
24.380       360
24.390       333
24.400       300
24.410       347
24.420       367
24.430       300
24.440       320
24.450       333
24.460       373
24.470       307
24.480       353
24.490       293
24.500       313
24.510       273
24.520       347
24.530       347
24.540       407
24.550       313
24.560       333
24.570       387
24.580       380
24.590       353
24.600       373
24.610       300
24.620       307
24.630       280
24.640       320
24.650       320
24.660       253
24.670       367
24.680       307
24.690       393
24.700       387
24.710       353
24.720       373
24.730       387
24.740       360
24.750       267
24.760       347
24.770       347
24.780       287
24.790       320
24.800       320
24.810       347
24.820       393
24.830       300
24.840       293
24.850       260
24.860       340
24.870       320
24.880       293
24.890       360
24.900       347
24.910       380
24.920       387
24.930       187
24.940       280
24.950       333
24.960       327
24.970       327
24.980       287
24.990       260
25.000       320
25.010       253
25.020       227
25.030       293
25.040       280
25.050       327
25.060       347
25.070       280
25.080       253
25.090       253
25.100       307
25.110       327
25.120       307
25.130       240
25.140       273
25.150       247
25.160       213
25.170       333
25.180       280
25.190       207
25.200       293
25.210       307
25.220       293
25.230       233
25.240       293
25.250       293
25.260       273
25.270       313
25.280       293
25.290       227
25.300       260
25.310       253
25.320       227
25.330       280
25.340       300
25.350       247
25.360       213
25.370       300
25.380       280
25.390       247
25.400       267
25.410       280
25.420       267
25.430       333
25.440       227
25.450       253
25.460       207
25.470       273
25.480       280
25.490       227
25.500       260
25.510       320
25.520       273
25.530       260
25.540       293
25.550       233
25.560       267
25.570       247
25.580       260
25.590       340
25.600       313
25.610       207
25.620       307
25.630       220
25.640       213
25.650       247
25.660       200
25.670       200
25.680       260
25.690       280
25.700       227
25.710       207
25.720       247
25.730       200
25.740       200
25.750       260
25.760       273
25.770       180
25.780       213
25.790       173
25.800       180
25.810       200
25.820       140
25.830       200
25.840       187
25.850       227
25.860       140
25.870       173
25.880       280
25.890       227
25.900       207
25.910       153
25.920       207
25.930       180
25.940       147
25.950       227
25.960       160
25.970       180
25.980       153
25.990       173
26.000       233
26.010       140
26.020       153
26.030       200
26.040       187
26.050       207
26.060       140
26.070       147
26.080       240
26.090       120
26.100       200
26.110       207
26.120       140
26.130       140
26.140       220
26.150       133
26.160       153
26.170       213
26.180       193
26.190       180
26.200       227
26.210       200
26.220       187
26.230       160
26.240       113
26.250       153
26.260        93
26.270       167
26.280       233
26.290       193
26.300       187
26.310       187
26.320       187
26.330       140
26.340       220
26.350       167
26.360       180
26.370       207
26.380       140
26.390       173
26.400       207
26.410       187
26.420       140
26.430       147
26.440       233
26.450       200
26.460       180
26.470       153
26.480       200
26.490       200
26.500        73
26.510       213
26.520       133
26.530       167
26.540        67
26.550       127
26.560       180
26.570       127
26.580       147
26.590       213
26.600       173
26.610       147
26.620       147
26.630       160
26.640       160
26.650       107
26.660       147
26.670       127
26.680       160
26.690       133
26.700       187
26.710       153
26.720       160
26.730       140
26.740       167
26.750       140
26.760       200
26.770        93
26.780       187
26.790       167
26.800       187
26.810       100
26.820       147
26.830       133
26.840       100
26.850       120
26.860       167
26.870       113
26.880       160
26.890       167
26.900        93
26.910       107
26.920       120
26.930       167
26.940       253
26.950       100
26.960       127
26.970       153
26.980       173
26.990       127
27.000       160
27.010        93
27.020       107
27.030       120
27.040       120
27.050       133
27.060       127
27.070       107
27.080       153
27.090       140
27.100       100
27.110       133
27.120       113
27.130       153
27.140       127
27.150       160
27.160       133
27.170       173
27.180       127
27.190       120
27.200       133
27.210       100
27.220       113
27.230       153
27.240        93
27.250       133
27.260       160
27.270       160
27.280       120
27.290       127
27.300       113
27.310       140
27.320        93
27.330        93
27.340        93
27.350       153
27.360       120
27.370       147
27.380       173
27.390       140
27.400        93
27.410        93
27.420        93
27.430       147
27.440        67
27.450       127
27.460       107
27.470       160
27.480       107
27.490        93
27.500        80
27.510       153
27.520       140
27.530        80
27.540        93
27.550       127
27.560       153
27.570        93
27.580       100
27.590       113
27.600       160
27.610       133
27.620       140
27.630       120
27.640       140
27.650       153
27.660       153
27.670       113
27.680       133
27.690        80
27.700       113
27.710        93
27.720        80
27.730       127
27.740       100
27.750       113
27.760       100
27.770       140
27.780       107
27.790       127
27.800       107
27.810       200
27.820       153
27.830       100
27.840       107
27.850       147
27.860        73
27.870       147
27.880       127
27.890       173
27.900        67
27.910       107
27.920       153
27.930        93
27.940        67
27.950        93
27.960       107
27.970       120
27.980        60
27.990        60
28.000       133
28.010        73
28.020        87
28.030       113
28.040       120
28.050       147
28.060        60
28.070       120
28.080       133
28.090       100
28.100       133
28.110       133
28.120        93
28.130       113
28.140        93
28.150        87
28.160       113
28.170       107
28.180        73
28.190        80
28.200       127
28.210        87
28.220       107
28.230        80
28.240        80
28.250       113
28.260       140
28.270        53
28.280       107
28.290        60
28.300       100
28.310       140
28.320       140
28.330       127
28.340        67
28.350       140
28.360        93
28.370       120
28.380       100
28.390       120
28.400        87
28.410       127
28.420       147
28.430        93
28.440        73
28.450       120
28.460        73
28.470        87
28.480       120
28.490       100
28.500        87
28.510       127
28.520       100
28.530       100
28.540        73
28.550       153
28.560        80
28.570       167
28.580        73
28.590        93
28.600       107
28.610       113
28.620       107
28.630        87
28.640       113
28.650        73
28.660       100
28.670       120
28.680        93
28.690        73
28.700        60
28.710        67
28.720        60
28.730        80
28.740        80
28.750        67
28.760        67
28.770        93
28.780        93
28.790        80
28.800        60
28.810        87
28.820        80
28.830       100
28.840        73
28.850        93
28.860        60
28.870       100
28.880       127
28.890        80
28.900        93
28.910        47
28.920        73
28.930        80
28.940        87
28.950        33
28.960        93
28.970        67
28.980        67
28.990        67
29.000       100
29.010        87
29.020       113
29.030       107
29.040       153
29.050       100
29.060        93
29.070       153
29.080       127
29.090        60
29.100        80
29.110        60
29.120       127
29.130        93
29.140       120
29.150        87
29.160        87
29.170        87
29.180       127
29.190        93
29.200       107
29.210       120
29.220       140
29.230       107
29.240       133
29.250       140
29.260       147
29.270       127
29.280       100
29.290        73
29.300       100
29.310       133
29.320       100
29.330        67
29.340       133
29.350        60
29.360        93
29.370       107
29.380        53
29.390        67
29.400        73
29.410       100
29.420        67
29.430        40
29.440        87
29.450       100
29.460        87
29.470        80
29.480        87
29.490        27
29.500        67
29.510        93
29.520        93
29.530        80
29.540        87
29.550       113
29.560       147
29.570        80
29.580       100
29.590       113
29.600        40
29.610        67
29.620        80
29.630        80
29.640        73
29.650       120
29.660       127
29.670       100
29.680        93
29.690       127
29.700        60
29.710        80
29.720        93
29.730        93
29.740       113
29.750        87
29.760        87
29.770       100
29.780        67
29.790       120
29.800       120
29.810        87
29.820        87
29.830       120
29.840       107
29.850        93
29.860        53
29.870        87
29.880       100
29.890       127
29.900       100
29.910        53
29.920        60
29.930        87
29.940        33
29.950       113
29.960        67
29.970       127
29.980        73
29.990        93
30.000        60
30.010        60
30.020        93
30.030       100
30.040        93
30.050        87
30.060       107
30.070        60
30.080       127
30.090        80
30.100       127
30.110       120
30.120        87
30.130        73
30.140        67
30.150       107
30.160       127
30.170        93
30.180        93
30.190        93
30.200       133
30.210       127
30.220        73
30.230        73
30.240       100
30.250        93
30.260        60
30.270        87
30.280       100
30.290        93
30.300        73
30.310       113
30.320       107
30.330        47
30.340        33
30.350        87
30.360       100
30.370        73
30.380       100
30.390        67
30.400       107
30.410        80
30.420        87
30.430        87
30.440        67
30.450       113
30.460        53
30.470        87
30.480        93
30.490        87
30.500       140
30.510        93
30.520       100
30.530        93
30.540        80
30.550       113
30.560        53
30.570       100
30.580       113
30.590        87
30.600        87
30.610        80
30.620        53
30.630       127
30.640       107
30.650       127
30.660        80
30.670       120
30.680        60
30.690        93
30.700        93
30.710       120
30.720        73
30.730        87
30.740       100
30.750        93
30.760        80
30.770        67
30.780       120
30.790        67
30.800       160
30.810        73
30.820       100
30.830       133
30.840       120
30.850        93
30.860       133
30.870        80
30.880       133
30.890        87
30.900        87
30.910       100
30.920       140
30.930       100
30.940        87
30.950       120
30.960       160
30.970       127
30.980        60
30.990       140
31.000       133
31.010       100
31.020       107
31.030       133
31.040       140
31.050       120
31.060       127
31.070       120
31.080        93
31.090       120
31.100       127
31.110        80
31.120        73
31.130       100
31.140        60
31.150        53
31.160        73
31.170       107
31.180       113
31.190        87
31.200       147
31.210       100
31.220        80
31.230       140
31.240        73
31.250        87
31.260       107
31.270        73
31.280       140
31.290       100
31.300        93
31.310       140
31.320       120
31.330       133
31.340       127
31.350       120
31.360        87
31.370        87
31.380       133
31.390       133
31.400       107
31.410        93
31.420       120
31.430       107
31.440       127
31.450        80
31.460       120
31.470       107
31.480       147
31.490       107
31.500       113
31.510       127
31.520        80
31.530        87
31.540       180
31.550        67
31.560       133
31.570       153
31.580       147
31.590       173
31.600       100
31.610       133
31.620       100
31.630       100
31.640       133
31.650       167
31.660        40
31.670       113
31.680       160
31.690       173
31.700       120
31.710       140
31.720       120
31.730       160
31.740       160
31.750       147
31.760       193
31.770       167
31.780       213
31.790       180
31.800       207
31.810       207
31.820       280
31.830       280
31.840       333
31.850       367
31.860       340
31.870       340
31.880       407
31.890       380
31.900       440
31.910       493
31.920       373
31.930       373
31.940       387
31.950       453
31.960       500
31.970       367
31.980       393
31.990       433
32.000       446
32.010       413
32.020       486
32.030       460
32.040       586
32.050       526
32.060       693
32.070      1040
32.080      1286
32.090      2126
32.100      2706
32.110      2959
32.120      3605
32.130      3952
32.140      3878
32.150      3705
32.160      3199
32.170      2319
32.180      1713
32.190       960
32.200       633
32.210       526
32.220       407
32.230       420
32.240       426
32.250       340
32.260       327
32.270       233
32.280       307
32.290       267
32.300       273
32.310       180
32.320       200
32.330       260
32.340       200
32.350       247
32.360       187
32.370       200
32.380       207
32.390       207
32.400       180
32.410       120
32.420       160
32.430       260
32.440       233
32.450       167
32.460       120
32.470       240
32.480       180
32.490       207
32.500       233
32.510       153
32.520       173
32.530       167
32.540       200
32.550       147
32.560       147
32.570       220
32.580       207
32.590       160
32.600       200
32.610       167
32.620       187
32.630       193
32.640       187
32.650       173
32.660       213
32.670       140
32.680       133
32.690       200
32.700       173
32.710       240
32.720       187
32.730       133
32.740       127
32.750       153
32.760       140
32.770       120
32.780       167
32.790       133
32.800       193
32.810       153
32.820       147
32.830       173
32.840       140
32.850        93
32.860       120
32.870       167
32.880       127
32.890       140
32.900       107
32.910       100
32.920       140
32.930       147
32.940       207
32.950       160
32.960       180
32.970       153
32.980       153
32.990       193
33.000       127
33.010       160
33.020       107
33.030       167
33.040       147
33.050        93
33.060       153
33.070       187
33.080       180
33.090       173
33.100       127
33.110       120
33.120       107
33.130       140
33.140       120
33.150       160
33.160       167
33.170       133
33.180       153
33.190       100
33.200        80
33.210       107
33.220       120
33.230       107
33.240        93
33.250       140
33.260       113
33.270       113
33.280       140
33.290       180
33.300       147
33.310        80
33.320       133
33.330       127
33.340       167
33.350       100
33.360       120
33.370       107
33.380       133
33.390        93
33.400       160
33.410       167
33.420       167
33.430       140
33.440       167
33.450       127
33.460       133
33.470       133
33.480       133
33.490        93
33.500       120
33.510        93
33.520        93
33.530       120
33.540       127
33.550       200
33.560       187
33.570       167
33.580       120
33.590       167
33.600       167
33.610        73
33.620       207
33.630       153
33.640       127
33.650       113
33.660       167
33.670       120
33.680        33
33.690        93
33.700       160
33.710       153
33.720       113
33.730       120
33.740       167
33.750       100
33.760        73
33.770       147
33.780       147
33.790       113
33.800       127
33.810       100
33.820       173
33.830       107
33.840       193
33.850       160
33.860       153
33.870       147
33.880       127
33.890       140
33.900       140
33.910       113
33.920       173
33.930       153
33.940       100
33.950       160
33.960        93
33.970       133
33.980        93
33.990       207
34.000       127
34.010       147
34.020       147
34.030       167
34.040       113
34.050       167
34.060        80
34.070        93
34.080       140
34.090       120
34.100       153
34.110       193
34.120       113
34.130       113
34.140       113
34.150       153
34.160       127
34.170       167
34.180       147
34.190       140
34.200       200
34.210       193
34.220       147
34.230       120
34.240       160
34.250       127
34.260       233
34.270       193
34.280       187
34.290       173
34.300       200
34.310       200
34.320       280
34.330       287
34.340       273
34.350       287
34.360       307
34.370       387
34.380       420
34.390       593
34.400       766
34.410       806
34.420       980
34.430      1040
34.440      1133
34.450      1266
34.460      1313
34.470      1240
34.480      1273
34.490      1100
34.500      1259
34.510      1446
34.520      1353
34.530      1373
34.540      1286
34.550      1439
34.560      1386
34.570      1299
34.580      1359
34.590      1439
34.600      1313
34.610      1306
34.620      1120
34.630      1366
34.640      1406
34.650      1386
34.660      1366
34.670      1413
34.680      1186
34.690      1299
34.700      1279
34.710      1433
34.720      1439
34.730      1299
34.740      1399
34.750      1333
34.760      1273
34.770      1339
34.780      1299
34.790      1206
34.800      1153
34.810      1359
34.820      1486
34.830      1319
34.840      1426
34.850      1313
34.860      1286
34.870      1373
34.880      1226
34.890      1126
34.900      1339
34.910      1306
34.920      1439
34.930      1246
34.940      1439
34.950      1313
34.960      1233
34.970      1459
34.980      1406
34.990      1313
35.000      1486
35.010      1453
35.020      1406
35.030      1233
35.040      1426
35.050      1453
35.060      1426
35.070      1393
35.080      1519
35.090      1546
35.100      1459
35.110      1399
35.120      1386
35.130      1406
35.140      1673
35.150      1319
35.160      1579
35.170      1553
35.180      1539
35.190      1579
35.200      1686
35.210      1846
35.220        27
35.230      1606
35.240      1806
35.250      1799
35.260      1953
35.270      1839
35.280      2232
35.290      2119
35.300      2073
35.310      2152
35.320      2292
35.330      2499
35.340      2806
35.350      2992
35.360      3432
35.370      3938
35.380      4651
35.390      5464
35.400      6511
35.410      7670
35.420      9303
35.430     10636
35.440     12595
35.450     14274
35.460     16820
35.470     17833
35.480     19466
35.490     21685
35.500     23537
35.510     24770
35.520     25397
35.530     26443
35.540     26689
35.550     29528
35.560     31154
35.570     35652
35.580     43369
35.590     58737
35.600     90304
35.610    140217
35.620    194915
35.630    236432
35.640    258437
35.650    268693
35.660    272791
35.670    267993
35.680    261415
35.690    241050
35.700    212915
35.710    189444
35.720    180814
35.730    185952
35.740    191617
35.750    192077
35.760    190937
35.770    181241
35.780    155438
35.790    119272
35.800     79408
35.810     47201
35.820     30068
35.830     19572
35.840     14548
35.850     12242
35.860      9776
35.870      8037
35.880      7230
35.890      5998
35.900      5531
35.910      4718
35.920      4645
35.930      4352
35.940      3958
35.950      3545
35.960      3812
35.970      3385
35.980      2985
35.990      2872
36.000      2646
36.010      2619
36.020      2752
36.030      2499
36.040      2399
36.050      2252
36.060      2392
36.070      2366
36.080      2086
36.090      2132
36.100      2013
36.110      2013
36.120      2119
36.130      1666
36.140      2179
36.150      1873
36.160      1899
36.170      1766
36.180      1713
36.190      1799
36.200      1606
36.210      1746
36.220      1553
36.230      1559
36.240      1693
36.250      1339
36.260      1586
36.270      1313
36.280      1373
36.290      1439
36.300      1233
36.310      1459
36.320      1366
36.330      1493
36.340      1386
36.350      1279
36.360      1313
36.370      1319
36.380      1233
36.390      1306
36.400      1233
36.410      1146
36.420      1173
36.430      1339
36.440      1240
36.450      1153
36.460      1246
36.470      1113
36.480      1200
36.490      1180
36.500      1220
36.510      1240
36.520      1153
36.530      1053
36.540      1173
36.550      1100
36.560       906
36.570      1253
36.580       953
36.590      1206
36.600       873
36.610      1040
36.620      1100
36.630      1053
36.640      1046
36.650       940
36.660      1093
36.670       873
36.680      1006
36.690      1000
36.700       966
36.710       840
36.720      1066
36.730       980
36.740       953
36.750       973
36.760       833
36.770      1046
36.780       980
36.790      1066
36.800       986
36.810       906
36.820       873
36.830       926
36.840       953
36.850       826
36.860       920
36.870       926
36.880       926
36.890      1080
36.900       893
36.910       973
36.920      1040
36.930       873
36.940      1013
36.950       853
36.960       986
36.970       960
36.980       833
36.990       760
37.000       873
37.010       740
37.020       826
37.030      1033
37.040       873
37.050       960
37.060       773
37.070       866
37.080       833
37.090       913
37.100       880
37.110       966
37.120       840
37.130       906
37.140       933
37.150       820
37.160       840
37.170       886
37.180      1020
37.190       906
37.200       906
37.210       893
37.220       813
37.230       826
37.240       880
37.250       740
37.260       960
37.270       880
37.280       773
37.290       806
37.300       780
37.310       986
37.320       766
37.330       853
37.340       926
37.350       826
37.360       740
37.370       720
37.380       753
37.390       760
37.400       846
37.410       720
37.420       793
37.430       806
37.440       853
37.450       706
37.460       693
37.470       940
37.480       680
37.490       820
37.500       840
37.510       806
37.520       793
37.530       680
37.540       646
37.550       793
37.560       706
37.570       733
37.580       613
37.590       653
37.600       560
37.610       660
37.620       720
37.630       666
37.640       800
37.650       820
37.660       653
37.670       666
37.680       660
37.690       733
37.700       726
37.710       760
37.720       773
37.730       726
37.740       786
37.750       680
37.760       673
37.770       773
37.780       726
37.790       580
37.800       806
37.810       626
37.820       660
37.830       660
37.840       740
37.850       693
37.860       693
37.870       660
37.880       720
37.890       793
37.900       666
37.910       613
37.920       620
37.930       686
37.940       633
37.950       500
37.960       646
37.970       653
37.980       593
37.990       626
38.000       633
38.010       520
38.020       586
38.030       500
38.040       646
38.050       480
38.060       673
38.070       613
38.080       633
38.090       686
38.100       626
38.110       673
38.120       600
38.130       566
38.140       553
38.150       613
38.160       666
38.170       666
38.180       633
38.190       546
38.200       580
38.210       600
38.220       633
38.230       553
38.240       606
38.250       626
38.260       653
38.270       560
38.280       646
38.290       566
38.300       560
38.310       466
38.320       620
38.330       526
38.340       560
38.350       666
38.360       726
38.370       513
38.380       640
38.390       580
38.400       620
38.410       573
38.420       520
38.430       573
38.440       553
38.450       513
38.460       513
38.470       640
38.480       573
38.490       606
38.500       580
38.510       653
38.520       486
38.530       493
38.540       546
38.550       513
38.560       500
38.570       473
38.580       526
38.590       573
38.600       453
38.610       620
38.620       553
38.630       640
38.640       686
38.650       520
38.660       480
38.670       713
38.680       620
38.690       506
38.700       686
38.710       486
38.720       533
38.730       573
38.740       566
38.750       533
38.760       393
38.770       560
38.780       526
38.790       520
38.800       533
38.810       606
38.820       566
38.830       600
38.840       593
38.850       613
38.860       513
38.870       573
38.880       533
38.890       493
38.900       566
38.910       513
38.920       573
38.930       540
38.940       533
38.950       500
38.960       433
38.970       580
38.980       540
38.990       546
39.000       506
39.010       653
39.020       586
39.030       446
39.040       606
39.050       666
39.060       540
39.070       553
39.080       480
39.090       593
39.100       420
39.110       546
39.120       533
39.130       626
39.140       600
39.150       593
39.160       540
39.170       580
39.180       493
39.190       546
39.200       600
39.210       680
39.220       673
39.230       773
39.240       700
39.250       760
39.260       633
39.270       720
39.280       653
39.290       686
39.300       673
39.310       740
39.320       746
39.330       653
39.340       686
39.350       566
39.360       593
39.370       646
39.380       526
39.390       653
39.400       626
39.410       540
39.420       613
39.430       613
39.440       640
39.450       560
39.460       513
39.470       453
39.480       533
39.490       553
39.500       526
39.510       493
39.520       520
39.530       506
39.540       493
39.550       420
39.560       407
39.570       466
39.580       453
39.590       426
39.600       466
39.610       513
39.620       453
39.630       426
39.640       520
39.650       433
39.660       500
39.670       413
39.680       446
39.690       526
39.700       413
39.710       407
39.720       433
39.730       426
39.740       407
39.750       453
39.760       446
39.770       387
39.780       367
39.790       426
39.800       493
39.810       426
39.820       473
39.830       387
39.840       440
39.850       413
39.860       460
39.870       393
39.880       600
39.890       526
39.900       373
39.910       426
39.920       446
39.930       380
39.940       466
39.950       460
39.960       460
39.970       367
39.980       420
39.990       426
40.000       520
40.010       453
40.020       407
40.030       460
40.040       413
40.050       440
40.060       373
40.070       440
40.080       413
40.090       373
40.100       426
40.110       460
40.120       420
40.130       520
40.140       466
40.150       333
40.160       360
40.170       446
40.180       373
40.190       473
40.200       493
40.210       426
40.220       473
40.230       440
40.240       440
40.250       473
40.260       293
40.270       426
40.280       367
40.290       426
40.300       393
40.310       387
40.320       353
40.330       373
40.340       407
40.350       367
40.360       353
40.370       440
40.380       526
40.390       373
40.400       353
40.410       453
40.420       480
40.430       380
40.440       433
40.450       426
40.460       387
40.470       353
40.480       526
40.490       433
40.500       333
40.510       440
40.520       526
40.530       307
40.540       387
40.550       380
40.560       333
40.570       320
40.580       353
40.590       307
40.600       413
40.610       393
40.620       380
40.630       367
40.640       433
40.650       420
40.660       400
40.670       360
40.680       413
40.690       347
40.700       287
40.710       420
40.720       387
40.730       387
40.740       333
40.750       300
40.760       446
40.770       480
40.780       380
40.790       380
40.800       280
40.810       307
40.820       460
40.830       413
40.840       327
40.850       347
40.860       367
40.870       393
40.880       413
40.890       360
40.900       373
40.910       340
40.920       373
40.930       393
40.940       360
40.950       353
40.960       473
40.970       440
40.980       433
40.990       380
41.000       313
41.010       387
41.020       407
41.030       340
41.040       380
41.050       367
41.060       367
41.070       420
41.080       320
41.090       293
41.100       360
41.110       420
41.120       360
41.130       373
41.140       327
41.150       380
41.160       333
41.170       327
41.180       380
41.190       426
41.200       373
41.210       293
41.220       426
41.230       373
41.240       327
41.250       280
41.260       387
41.270       207
41.280       367
41.290       373
41.300       426
41.310       320
41.320       307
41.330       426
41.340       387
41.350       367
41.360       353
41.370       293
41.380       333
41.390       353
41.400       320
41.410       360
41.420       433
41.430       307
41.440       340
41.450       227
41.460       307
41.470       393
41.480       320
41.490       360
41.500       253
41.510       247
41.520       307
41.530       327
41.540       367
41.550       313
41.560       280
41.570       267
41.580       220
41.590       333
41.600       260
41.610       393
41.620       353
41.630       293
41.640       293
41.650       353
41.660       313
41.670       373
41.680       333
41.690       320
41.700       273
41.710       333
41.720       453
41.730       420
41.740       287
41.750       253
41.760       393
41.770       333
41.780       466
41.790       273
41.800       400
41.810       267
41.820       347
41.830       340
41.840       333
41.850       347
41.860       313
41.870       333
41.880       347
41.890       347
41.900       380
41.910       307
41.920       313
41.930       347
41.940       340
41.950       387
41.960       340
41.970       273
41.980       320
41.990       313
42.000       267
42.010       307
42.020       253
42.030       327
42.040       313
42.050       293
42.060       353
42.070       280
42.080       267
42.090       307
42.100       287
42.110       367
42.120       267
42.130       253
42.140       333
42.150       327
42.160       320
42.170       280
42.180       247
42.190       320
42.200       247
42.210       353
42.220       353
42.230       207
42.240       240
42.250       280
42.260       333
42.270       267
42.280       240
42.290       267
42.300       287
42.310       300
42.320       320
42.330       247
42.340       247
42.350       253
42.360       280
42.370       233
42.380       307
42.390       240
42.400       247
42.410       247
42.420       393
42.430       280
42.440       253
42.450       247
42.460       287
42.470       253
42.480       280
42.490       260
42.500       213
42.510       347
42.520       280
42.530       287
42.540       280
42.550       293
42.560       260
42.570       287
42.580       160
42.590       200
42.600       313
42.610       233
42.620       247
42.630       240
42.640       267
42.650       247
42.660       207
42.670       287
42.680       273
42.690       273
42.700       347
42.710       280
42.720       307
42.730       260
42.740       220
42.750       247
42.760       253
42.770       227
42.780       213
42.790       287
42.800       253
42.810       267
42.820       273
42.830       273
42.840       213
42.850       260
42.860       260
42.870       193
42.880       287
42.890       220
42.900       227
42.910       300
42.920       253
42.930       233
42.940       233
42.950       347
42.960       267
42.970       180
42.980       273
42.990       300
43.000       273
43.010       240
43.020       233
43.030       280
43.040       300
43.050       247
43.060       300
43.070       260
43.080       353
43.090       253
43.100       207
43.110       200
43.120       207
43.130       267
43.140       267
43.150       207
43.160       220
43.170       307
43.180       247
43.190       247
43.200       313
43.210       293
43.220       167
43.230       287
43.240       180
43.250       207
43.260       327
43.270       213
43.280       253
43.290       260
43.300       233
43.310       207
43.320       333
43.330       220
43.340       200
43.350       273
43.360       187
43.370       267
43.380       260
43.390       167
43.400       193
43.410       233
43.420       200
43.430       240
43.440       233
43.450       287
43.460       187
43.470       220
43.480       200
43.490       180
43.500       193
43.510       247
43.520       213
43.530       260
43.540       267
43.550       267
43.560       253
43.570       160
43.580       247
43.590       207
43.600       200
43.610       133
43.620       187
43.630       160
43.640       147
43.650       213
43.660       200
43.670       280
43.680       200
43.690       233
43.700       167
43.710       247
43.720       220
43.730       193
43.740       160
43.750       307
43.760       207
43.770       193
43.780       207
43.790       220
43.800       167
43.810       140
43.820       287
43.830       200
43.840       267
43.850       173
43.860       213
43.870       147
43.880       180
43.890       160
43.900       200
43.910       200
43.920       180
43.930       193
43.940       193
43.950       227
43.960       233
43.970       227
43.980       133
43.990       213
44.000       233
44.010       187
44.020       253
44.030       220
44.040       213
44.050       207
44.060       193
44.070       200
44.080       213
44.090       213
44.100       213
44.110       227
44.120       280
44.130       227
44.140       200
44.150       167
44.160       173
44.170       180
44.180       240
44.190       207
44.200       160
44.210       160
44.220       240
44.230       213
44.240       167
44.250       233
44.260       180
44.270       227
44.280       207
44.290       167
44.300       233
44.310       193
44.320       187
44.330       133
44.340       133
44.350       160
44.360       100
44.370       173
44.380       213
44.390       253
44.400       193
44.410       227
44.420       180
44.430       120
44.440       260
44.450       220
44.460       187
44.470       153
44.480       133
44.490       187
44.500       207
44.510       187
44.520       240
44.530       240
44.540       187
44.550       167
44.560       160
44.570       207
44.580       173
44.590       160
44.600       220
44.610       233
44.620       167
44.630       207
44.640       107
44.650       193
44.660       147
44.670       160
44.680       120
44.690       147
44.700       147
44.710       173
44.720       133
44.730       260
44.740       187
44.750       193
44.760       113
44.770       147
44.780       253
44.790       233
44.800       153
44.810       173
44.820       180
44.830       160
44.840       200
44.850       240
44.860       207
44.870       133
44.880       133
44.890       173
44.900       153
44.910       187
44.920       207
44.930       147
44.940       153
44.950       180
44.960       193
44.970       240
44.980       213
44.990       193
45.000       180
45.010       153
45.020       140
45.030       153
45.040       213
45.050       213
45.060       213
45.070       187
45.080       180
45.090       227
45.100       193
45.110       133
45.120       147
45.130       180
45.140       173
45.150       220
45.160       233
45.170       173
45.180       193
45.190       180
45.200       213
45.210       173
45.220       247
45.230       187
45.240       227
45.250       207
45.260       187
45.270       193
45.280       193
45.290       300
45.300       207
45.310       160
45.320       187
45.330       260
45.340       273
45.350       220
45.360       213
45.370       267
45.380       247
45.390       247
45.400       253
45.410       333
45.420       300
45.430       293
45.440       260
45.450       320
45.460       287
45.470       280
45.480       300
45.490       333
45.500       273
45.510       446
45.520       353
45.530       393
45.540       460
45.550       320
45.560       373
45.570       420
45.580       367
45.590       360
45.600       400
45.610       460
45.620       353
45.630       513
45.640       360
45.650       453
45.660       526
45.670       433
45.680       407
45.690       426
45.700       473
45.710       466
45.720       473
45.730       433
45.740       473
45.750       493
45.760       513
45.770       480
45.780       540
45.790       500
45.800       380
45.810       506
45.820       486
45.830       373
45.840       413
45.850       400
45.860       486
45.870       420
45.880       426
45.890       387
45.900       380
45.910       267
45.920       347
45.930       407
45.940       320
45.950       280
45.960       260
45.970       300
45.980       233
45.990       267
46.000       260
46.010       280
46.020       193
46.030       167
46.040       180
46.050       260
46.060       227
46.070       173
46.080       207
46.090       213
46.100       207
46.110       227
46.120       220
46.130       167
46.140       160
46.150       160
46.160       227
46.170       180
46.180       240
46.190       220
46.200       160
46.210       173
46.220       140
46.230       160
46.240       147
46.250       153
46.260       167
46.270       173
46.280       120
46.290       187
46.300       113
46.310       167
46.320       140
46.330       147
46.340       187
46.350       200
46.360       173
46.370       153
46.380       173
46.390       167
46.400       173
46.410        80
46.420       113
46.430        80
46.440       140
46.450       147
46.460       140
46.470       120
46.480       153
46.490       107
46.500        73
46.510       127
46.520       113
46.530       133
46.540       133
46.550       147
46.560       167
46.570       160
46.580       140
46.590       140
46.600       113
46.610       100
46.620       120
46.630       133
46.640       147
46.650       107
46.660       187
46.670        93
46.680       193
46.690       113
46.700       113
46.710       133
46.720       160
46.730       133
46.740       113
46.750       120
46.760       120
46.770       180
46.780       160
46.790       133
46.800       147
46.810       107
46.820       147
46.830       147
46.840        93
46.850       100
46.860       133
46.870        93
46.880       107
46.890        87
46.900       167
46.910       193
46.920        73
46.930       113
46.940       127
46.950       260
46.960        93
46.970        93
46.980        93
46.990       120
47.000       120
47.010       173
47.020       113
47.030       160
47.040       120
47.050        60
47.060       160
47.070       100
47.080       153
47.090       160
47.100       133
47.110       147
47.120       153
47.130       127
47.140       153
47.150       147
47.160       160
47.170       127
47.180       127
47.190       120
47.200       107
47.210        93
47.220       147
47.230        93
47.240       100
47.250       140
47.260       160
47.270       107
47.280        93
47.290       153
47.300       173
47.310       160
47.320        60
47.330        67
47.340       100
47.350       133
47.360       147
47.370       173
47.380       160
47.390       120
47.400       133
47.410       127
47.420       120
47.430       133
47.440       133
47.450        60
47.460       133
47.470       140
47.480       180
47.490       113
47.500        80
47.510       100
47.520       113
47.530       113
47.540       113
47.550       160
47.560        60
47.570       140
47.580       160
47.590        73
47.600       120
47.610       120
47.620        67
47.630       107
47.640       133
47.650       167
47.660        93
47.670       147
47.680       160
47.690       107
47.700       140
47.710       127
47.720       147
47.730       113
47.740        93
47.750        93
47.760        87
47.770       120
47.780       153
47.790       133
47.800       147
47.810        87
47.820        80
47.830       127
47.840       127
47.850       127
47.860       140
47.870       133
47.880       133
47.890        73
47.900       120
47.910        87
47.920       147
47.930       173
47.940        87
47.950        73
47.960       127
47.970        87
47.980        93
47.990        87
48.000        60
48.010        87
48.020       133
48.030       113
48.040       120
48.050       113
48.060       100
48.070        80
48.080        67
48.090        87
48.100        87
48.110       127
48.120       153
48.130       187
48.140       120
48.150       133
48.160       153
48.170       127
48.180       113
48.190       167
48.200       140
48.210       153
48.220       160
48.230        93
48.240       127
48.250       147
48.260       100
48.270       127
48.280       147
48.290       107
48.300       133
48.310       160
48.320       127
48.330       173
48.340       107
48.350       140
48.360       113
48.370       133
48.380        93
48.390        93
48.400        53
48.410       173
48.420        87
48.430       153
48.440        93
48.450        93
48.460        53
48.470        73
48.480        93
48.490       113
48.500        60
48.510       127
48.520       100
48.530       100
48.540        93
48.550        93
48.560       120
48.570       147
48.580       160
48.590        87
48.600        93
48.610        73
48.620       107
48.630        73
48.640       120
48.650        80
48.660       153
48.670       133
48.680        67
48.690       113
48.700       133
48.710       107
48.720       160
48.730       120
48.740       100
48.750       127
48.760        93
48.770       120
48.780       147
48.790       120
48.800       153
48.810       133
48.820       167
48.830       100
48.840        80
48.850        73
48.860       167
48.870        93
48.880       133
48.890       167
48.900       113
48.910        53
48.920        60
48.930       107
48.940       107
48.950       107
48.960       100
48.970       107
48.980        93
48.990        60
49.000       100
49.010        87
49.020       107
49.030       113
49.040       100
49.050       133
49.060        93
49.070       120
49.080        80
49.090        73
49.100        93
49.110       107
49.120       107
49.130        87
49.140       120
49.150       100
49.160        60
49.170        80
49.180       140
49.190        93
49.200       100
49.210       100
49.220        53
49.230       133
49.240        87
49.250       127
49.260        93
49.270       100
49.280       133
49.290        93
49.300        93
49.310       133
49.320       133
49.330       107
49.340       120
49.350        73
49.360       113
49.370       133
49.380        80
49.390        73
49.400        87
49.410        93
49.420        87
49.430       100
49.440        80
49.450        87
49.460        73
49.470        87
49.480       100
49.490       100
49.500       107
49.510        87
49.520        87
49.530        67
49.540        67
49.550       100
49.560       127
49.570        67
49.580       113
49.590        87
49.600        93
49.610        67
49.620       107
49.630        60
49.640        93
49.650       113
49.660       133
49.670        73
49.680        53
49.690        93
49.700        87
49.710       147
49.720       100
49.730       127
49.740       107
49.750       120
49.760        93
49.770        93
49.780        87
49.790        47
49.800        87
49.810        80
49.820        80
49.830        87
49.840        80
49.850       100
49.860        87
49.870        73
49.880        80
49.890        93
49.900       113
49.910        67
49.920       107
49.930        53
49.940        87
49.950       107
49.960        53
49.970       120
49.980        67
49.990       133
50.000        87
50.010       113
50.020       147
50.030        53
50.040        53
50.050        80
50.060        60
50.070        67
50.080        93
50.090        93
50.100       120
50.110        60
50.120        73
50.130        93
50.140        87
50.150       113
50.160       113
50.170        60
50.180       120
50.190       100
50.200       127
50.210        93
50.220        80
50.230        67
50.240        60
50.250        93
50.260        80
50.270        80
50.280        73
50.290        73
50.300        93
50.310        73
50.320        67
50.330        80
50.340        80
50.350        60
50.360       140
50.370       100
50.380        87
50.390        93
50.400        67
50.410       100
50.420        73
50.430        93
50.440        93
50.450        60
50.460        87
50.470        73
50.480       107
50.490        60
50.500       100
50.510        80
50.520       120
50.530        53
50.540        47
50.550        73
50.560       127
50.570       100
50.580        40
50.590        73
50.600       113
50.610        93
50.620        60
50.630        53
50.640       133
50.650       127
50.660        87
50.670        60
50.680        40
50.690       107
50.700        80
50.710       113
50.720       127
50.730       153
50.740        80
50.750        87
50.760        80
50.770        73
50.780       100
50.790       100
50.800        67
50.810        80
50.820        87
50.830        53
50.840        80
50.850        73
50.860        73
50.870        60
50.880        80
50.890        53
50.900        93
50.910        73
50.920       100
50.930       100
50.940        80
50.950       100
50.960       127
50.970        93
50.980        93
50.990       127
51.000        67
51.010       140
51.020       100
51.030        67
51.040        73
51.050        40
51.060        60
51.070        60
51.080        73
51.090        67
51.100       107
51.110        73
51.120        47
51.130        60
51.140        80
51.150        73
51.160       100
51.170       127
51.180        67
51.190        60
51.200       107
51.210        73
51.220        53
51.230        73
51.240        80
51.250        53
51.260        47
51.270       120
51.280       120
51.290       100
51.300        73
51.310        73
51.320       100
51.330        67
51.340       100
51.350        60
51.360        53
51.370        40
51.380        60
51.390        87
51.400        87
51.410        87
51.420       107
51.430       113
51.440        73
51.450        47
51.460        60
51.470       113
51.480        87
51.490       107
51.500        87
51.510        60
51.520        67
51.530        73
51.540        47
51.550        73
51.560       113
51.570        80
51.580        60
51.590        73
51.600        93
51.610        80
51.620        80
51.630        60
51.640        80
51.650        80
51.660        87
51.670        67
51.680        87
51.690        80
51.700        87
51.710        93
51.720        87
51.730        80
51.740        80
51.750        87
51.760        53
51.770        73
51.780        93
51.790        87
51.800        67
51.810        87
51.820        80
51.830        93
51.840        47
51.850       107
51.860        40
51.870        47
51.880       107
51.890        60
51.900        80
51.910        87
51.920       100
51.930        87
51.940        67
51.950       113
51.960       127
51.970        87
51.980        93
51.990        67
52.000        67
52.010        67
52.020        87
52.030        53
52.040       133
52.050        67
52.060        67
52.070        73
52.080        60
52.090        40
52.100        47
52.110        80
52.120        67
52.130       100
52.140        87
52.150        73
52.160        87
52.170        60
52.180       120
52.190       107
52.200        33
52.210        73
52.220       113
52.230        73
52.240        80
52.250        67
52.260       120
52.270        67
52.280        60
52.290        60
52.300        60
52.310        33
52.320        87
52.330       113
52.340       100
52.350        87
52.360        87
52.370        53
52.380        40
52.390        53
52.400        87
52.410        60
52.420        53
52.430       107
52.440        53
52.450        73
52.460        33
52.470        40
52.480        80
52.490        67
52.500        80
52.510        60
52.520        40
52.530        93
52.540        67
52.550       100
52.560        73
52.570        40
52.580        87
52.590        73
52.600       113
52.610        93
52.620        73
52.630        80
52.640        73
52.650       107
52.660        27
52.670        40
52.680        60
52.690        87
52.700        73
52.710        60
52.720        60
52.730        67
52.740        60
52.750        73
52.760        67
52.770        80
52.780        67
52.790        93
52.800       107
52.810        67
52.820        87
52.830        87
52.840        93
52.850        53
52.860        73
52.870        60
52.880        87
52.890        93
52.900        80
52.910        80
52.920        67
52.930       107
52.940       100
52.950        87
52.960        53
52.970        73
52.980        73
52.990        73
53.000       113
53.010        53
53.020        73
53.030        47
53.040        80
53.050        47
53.060        60
53.070        60
53.080        73
53.090        87
53.100        80
53.110        73
53.120        60
53.130        73
53.140       113
53.150        93
53.160        80
53.170        73
53.180        80
53.190       120
53.200        53
53.210        67
53.220        60
53.230        47
53.240        60
53.250        60
53.260        60
53.270        73
53.280        87
53.290        60
53.300       120
53.310        60
53.320        87
53.330        93
53.340        73
53.350        47
53.360        67
53.370        73
53.380        27
53.390       133
53.400        93
53.410        73
53.420        73
53.430        27
53.440        73
53.450        27
53.460        53
53.470       100
53.480        73
53.490        47
53.500        47
53.510        80
53.520        53
53.530        53
53.540        73
53.550        73
53.560        67
53.570        40
53.580        33
53.590        40
53.600       100
53.610        73
53.620        80
53.630        47
53.640        93
53.650        73
53.660        87
53.670        60
53.680        80
53.690        40
53.700        80
53.710        60
53.720       107
53.730        73
53.740        67
53.750        87
53.760        67
53.770        87
53.780        60
53.790        87
53.800       107
53.810        73
53.820        40
53.830        33
53.840        60
53.850        87
53.860        93
53.870        60
53.880        67
53.890        47
53.900        67
53.910       127
53.920        60
53.930        47
53.940        93
53.950        53
53.960        67
53.970        80
53.980        53
53.990        67
54.000        47
54.010        93
54.020        60
54.030        53
54.040        60
54.050        40
54.060        67
54.070        67
54.080        60
54.090        73
54.100        53
54.110        93
54.120       100
54.130        73
54.140        33
54.150        87
54.160       133
54.170        60
54.180        47
54.190        60
54.200        67
54.210       120
54.220        87
54.230        33
54.240        67
54.250       107
54.260        67
54.270        67
54.280        33
54.290        87
54.300        47
54.310        53
54.320        60
54.330       120
54.340        67
54.350        47
54.360        60
54.370        80
54.380        73
54.390        60
54.400        60
54.410        80
54.420        93
54.430        73
54.440        53
54.450        60
54.460        33
54.470        47
54.480        80
54.490        33
54.500        67
54.510        73
54.520        73
54.530        67
54.540        47
54.550        80
54.560        87
54.570        53
54.580        67
54.590        80
54.600       100
54.610       120
54.620        93
54.630       113
54.640        87
54.650       107
54.660       107
54.670       127
54.680       113
54.690       100
54.700        53
54.710        60
54.720        53
54.730        40
54.740        93
54.750        87
54.760       100
54.770        60
54.780        40
54.790        93
54.800        73
54.810        87
54.820        80
54.830        60
54.840        53
54.850        60
54.860       113
54.870        73
54.880        40
54.890        40
54.900        40
54.910        40
54.920        93
54.930        80
54.940        87
54.950        47
54.960        73
54.970       127
54.980       100
54.990        33
55.000        27
55.010        60
55.020        53
55.030        60
55.040        67
55.050        47
55.060        87
55.070        53
55.080       100
55.090        20
55.100       107
55.110        73
55.120       100
55.130        73
55.140        60
55.150       100
55.160        73
55.170        67
55.180        60
55.190        80
55.200        60
55.210        67
55.220        73
55.230        80
55.240        67
55.250        73
55.260        80
55.270        53
55.280        47
55.290        93
55.300        93
55.310        20
55.320        60
55.330        27
55.340        73
55.350        87
55.360        60
55.370        80
55.380        87
55.390        80
55.400        80
55.410        67
55.420        33
55.430        53
55.440        60
55.450        33
55.460        73
55.470        33
55.480        40
55.490        40
55.500        73
55.510        80
55.520        67
55.530        47
55.540        67
55.550        47
55.560        67
55.570        40
55.580        53
55.590        33
55.600        40
55.610        87
55.620        73
55.630        40
55.640        47
55.650        33
55.660        73
55.670        80
55.680        87
55.690        53
55.700        93
55.710        53
55.720        67
55.730        47
55.740        67
55.750        47
55.760        80
55.770        87
55.780        60
55.790        33
55.800        93
55.810       100
55.820        33
55.830        67
55.840        27
55.850        67
55.860        53
55.870        80
55.880        93
55.890        80
55.900        67
55.910        40
55.920       107
55.930        53
55.940        47
55.950        27
55.960        13
55.970        60
55.980        67
55.990        53
56.000       127
56.010        33
56.020        47
56.030        40
56.040        67
56.050        40
56.060        67
56.070        87
56.080        33
56.090        53
56.100        80
56.110        33
56.120        53
56.130        60
56.140       107
56.150        47
56.160        73
56.170        60
56.180        53
56.190        53
56.200        53
56.210        73
56.220       100
56.230        60
56.240       107
56.250        53
56.260        73
56.270        80
56.280        60
56.290       107
56.300        60
56.310        87
56.320       107
56.330        67
56.340       100
56.350        80
56.360        53
56.370       107
56.380        87
56.390        47
56.400        80
56.410        87
56.420        60
56.430        60
56.440        73
56.450        60
56.460       140
56.470        73
56.480        67
56.490       113
56.500        93
56.510       107
56.520       100
56.530        87
56.540        87
56.550        80
56.560        93
56.570        73
56.580       120
56.590       107
56.600       120
56.610       160
56.620       207
56.630       113
56.640       160
56.650       167
56.660       153
56.670       187
56.680       200
56.690       213
56.700       160
56.710       233
56.720       140
56.730       307
56.740       233
56.750       147
56.760       187
56.770       193
56.780       227
56.790       173
56.800       233
56.810       227
56.820       247
56.830       133
56.840       227
56.850       153
56.860       127
56.870       160
56.880       127
56.890       107
56.900        80
56.910       100
56.920       107
56.930       100
56.940       107
56.950       167
56.960        80
56.970        67
56.980        87
56.990        73
57.000        60
57.010        87
57.020       127
57.030        73
57.040       113
57.050        80
57.060        87
57.070        93
57.080        60
57.090        87
57.100        53
57.110        53
57.120        80
57.130        87
57.140        93
57.150        73
57.160        87
57.170        53
57.180        53
57.190        80
57.200        53
57.210        47
57.220        47
57.230        60
57.240       107
57.250        47
57.260        40
57.270        33
57.280        47
57.290        53
57.300        40
57.310        60
57.320        93
57.330        73
57.340        73
57.350        73
57.360        47
57.370        80
57.380        87
57.390        47
57.400        67
57.410        93
57.420        27
57.430        47
57.440        67
57.450        27
57.460        67
57.470        67
57.480        80
57.490        87
57.500        53
57.510        53
57.520        67
57.530        60
57.540        67
57.550        67
57.560        73
57.570        67
57.580        40
57.590        47
57.600       100
57.610        67
57.620        40
57.630        67
57.640        40
57.650        47
57.660        33
57.670        60
57.680       107
57.690        87
57.700        47
57.710        80
57.720        73
57.730        53
57.740        33
57.750        67
57.760       100
57.770        20
57.780        80
57.790        87
57.800        60
57.810        73
57.820        60
57.830        80
57.840        80
57.850        40
57.860        80
57.870        47
57.880        47
57.890        60
57.900        33
57.910        47
57.920        53
57.930        20
57.940        67
57.950        80
57.960        47
57.970        73
57.980        80
57.990        80
58.000        73
58.010        27
58.020        73
58.030        67
58.040        47
58.050        53
58.060        53
58.070        87
58.080        60
58.090        40
58.100        33
58.110        80
58.120        47
58.130        67
58.140        60
58.150        80
58.160        87
58.170        53
58.180        40
58.190        53
58.200        73
58.210        27
58.220        73
58.230        33
58.240        53
58.250        67
58.260        53
58.270        40
58.280        40
58.290        60
58.300        73
58.310        73
58.320        60
58.330        60
58.340        53
58.350        80
58.360        53
58.370        53
58.380        40
58.390        67
58.400        67
58.410        53
58.420        47
58.430        60
58.440        47
58.450        53
58.460        47
58.470        67
58.480        53
58.490        53
58.500        40
58.510        47
58.520        33
58.530        80
58.540        80
58.550        33
58.560        33
58.570        33
58.580        87
58.590        73
58.600        47
58.610        13
58.620        33
58.630        53
58.640        53
58.650        67
58.660        67
58.670        53
58.680        40
58.690       113
58.700        40
58.710        47
58.720        73
58.730        60
58.740        87
58.750        60
58.760        60
58.770        80
58.780       120
58.790        87
58.800        67
58.810       100
58.820        87
58.830        47
58.840        20
58.850        40
58.860        67
58.870        27
58.880        73
58.890        47
58.900        40
58.910        47
58.920        47
58.930        73
58.940        67
58.950        60
58.960        73
58.970        47
58.980        67
58.990        47
59.000        27
59.010        33
59.020        73
59.030        53
59.040        53
59.050        73
59.060        40
59.070        60
59.080        67
59.090        47
59.100        53
59.110        47
59.120        47
59.130        60
59.140        47
59.150        40
59.160        47
59.170        53
59.180        73
59.190        27
59.200        40
59.210        80
59.220        27
59.230        60
59.240        73
59.250        53
59.260        60
59.270        60
59.280        60
59.290        47
59.300        47
59.310        47
59.320        60
59.330        80
59.340        60
59.350        93
59.360        53
59.370        53
59.380        40
59.390        53
59.400        80
59.410        33
59.420        67
59.430        93
59.440        33
59.450        80
59.460       100
59.470        93
59.480        73
59.490        60
59.500        60
59.510        47
59.520        60
59.530        93
59.540        20
59.550        67
59.560        33
59.570        80
59.580        47
59.590        93
59.600        67
59.610        73
59.620        67
59.630        87
59.640        27
59.650        67
59.660        47
59.670        40
59.680        73
59.690        87
59.700        47
59.710        73
59.720        33
59.730        60
59.740        20
59.750        47
59.760        20
59.770        60
59.780        33
59.790        67
59.800        73
59.810        27
59.820        73
59.830        67
59.840        67
59.850        87
59.860        67
59.870        33
59.880        47
59.890        60
59.900        53
59.910        60
59.920        87
59.930        33
59.940        87
59.950        33
59.960        47
59.970        80
59.980        53
59.990        60
60.000        53
