20.000        47
20.010        67
20.020        27
20.030        47
20.040        47
20.050        47
20.060        40
20.070        27
20.080        27
20.090        47
20.100        27
20.110        27
20.120        33
20.130        53
20.140        47
20.150        20
20.160        47
20.170        33
20.180        60
20.190        60
20.200        40
20.210        40
20.220        33
20.230        20
20.240        20
20.250         7
20.260        60
20.270        53
20.280        27
20.290        40
20.300        27
20.310        27
20.320        53
20.330        53
20.340        60
20.350        33
20.360        33
20.370        27
20.380        20
20.390        80
20.400        40
20.410        40
20.420        27
20.430        33
20.440        60
20.450        33
20.460        47
20.470        33
20.480        27
20.490        27
20.500        33
20.510        33
20.520        33
20.530        27
20.540        40
20.550        47
20.560        27
20.570        33
20.580        33
20.590        20
20.600        40
20.610        40
20.620        80
20.630        27
20.640        33
20.650        27
20.660        20
20.670        27
20.680        53
20.690        33
20.700        40
20.710        40
20.720        93
20.730        27
20.740        20
20.750        33
20.760        27
20.770        40
20.780        13
20.790        33
20.800        27
20.810        13
20.820        53
20.830        53
20.840        33
20.850        47
20.860        40
20.870        20
20.880        60
20.890        27
20.900        13
20.910        47
20.920        27
20.930        53
20.940        40
20.950        40
20.960        40
20.970        33
20.980        40
20.990        53
21.000        27
21.010        67
21.020        33
21.030        20
21.040        53
21.050         7
21.060        33
21.070        40
21.080        33
21.090        47
21.100        87
21.110        53
21.120        13
21.130        40
21.140        47
21.150        27
21.160        40
21.170        20
21.180        53
21.190        60
21.200        33
21.210        40
21.220        27
21.230        40
21.240        53
21.250        40
21.260        47
21.270        40
21.280        60
21.290        40
21.300        27
21.310        20
21.320        53
21.330        27
21.340        20
21.350        47
21.360        27
21.370        47
21.380        33
21.390        67
21.400        33
21.410        33
21.420        47
21.430        40
21.440        13
21.450        73
21.460        53
21.470        40
21.480        40
21.490        20
21.500        80
21.510        27
21.520        27
21.530        20
21.540        20
21.550        40
21.560        47
21.570        27
21.580        33
21.590         7
21.600        33
21.610         7
21.620        40
21.630        40
21.640        33
21.650         7
21.660        73
21.670        13
21.680        47
21.690        47
21.700        20
21.710        33
21.720        40
21.730        40
21.740        33
21.750        40
21.760        53
21.770         7
21.780        33
21.790        40
21.800        33
21.810        33
21.820        33
21.830        27
21.840        40
21.850        53
21.860        33
21.870        60
21.880        60
21.890        87
21.900        73
21.910        13
21.920        33
21.930        20
21.940        40
21.950        33
21.960        20
21.970        67
21.980        47
21.990        53
22.000        73
22.010        40
22.020        33
22.030        87
22.040        67
22.050        60
22.060        80
22.070        80
22.080        40
22.090        87
22.100       107
22.110       107
22.120        67
22.130        67
22.140       140
22.150       107
22.160        27
22.170       153
22.180       113
22.190        60
22.200       127
22.210        87
22.220        53
22.230        73
22.240        67
22.250        80
22.260       100
22.270        60
22.280        53
22.290        73
22.300        60
22.310        93
22.320        27
22.330        47
22.340        20
22.350        67
22.360        67
22.370        40
22.380        27
22.390        80
22.400        40
22.410        40
22.420        40
22.430        13
22.440        40
22.450        20
22.460        47
22.470        53
22.480        40
22.490        53
22.500        27
22.510        60
22.520        33
22.530        27
22.540        27
22.550        33
22.560        53
22.570         0
22.580        27
22.590        53
22.600        40
22.610         7
22.620        33
22.630        20
22.640        60
22.650        20
22.660        47
22.670        60
22.680        47
22.690        33
22.700        47
22.710        60
22.720        47
22.730        47
22.740        47
22.750        47
22.760        20
22.770        40
22.780        20
22.790        47
22.800        27
22.810        13
22.820        53
22.830        73
22.840        33
22.850        27
22.860        53
22.870        47
22.880        53
22.890        40
22.900        40
22.910        40
22.920        53
22.930        47
22.940        33
22.950        60
22.960        40
22.970        40
22.980        40
22.990        13
23.000        13
23.010        27
23.020        40
23.030        40
23.040        20
23.050        27
23.060        33
23.070        40
23.080        33
23.090        47
23.100        20
23.110        47
23.120        53
23.130        33
23.140        20
23.150        47
23.160        27
23.170         7
23.180        27
23.190        27
23.200        53
23.210        47
23.220        67
23.230        20
23.240        20
23.250        27
23.260        33
23.270        33
23.280        13
23.290        40
23.300        27
23.310        67
23.320        40
23.330        53
23.340        33
23.350        27
23.360        60
23.370        47
23.380        53
23.390        67
23.400        40
23.410        27
23.420        40
23.430        67
23.440        67
23.450        40
23.460        40
23.470        33
23.480        47
23.490        73
23.500        40
23.510        80
23.520        47
23.530        40
23.540        60
23.550        47
23.560        27
23.570        27
23.580        27
23.590        40
23.600        27
23.610        53
23.620        33
23.630        33
23.640        47
23.650        53
23.660        20
23.670        47
23.680        47
23.690        40
23.700        27
23.710        33
23.720        40
23.730        53
23.740        53
23.750        40
23.760        27
23.770        47
23.780        33
23.790        20
23.800        27
23.810        47
23.820        27
23.830        33
23.840        40
23.850        33
23.860        13
23.870        27
23.880        33
23.890        47
23.900        33
23.910        40
23.920        27
23.930        33
23.940        20
23.950        47
23.960        20
23.970        47
23.980        13
23.990        40
24.000        33
24.010        13
24.020        40
24.030        33
24.040        60
24.050        20
24.060        87
24.070        47
24.080        33
24.090        33
24.100        40
24.110        20
24.120        20
24.130        13
24.140        40
24.150        27
24.160        27
24.170        60
24.180        33
24.190        20
24.200        20
24.210        47
24.220        33
24.230        27
24.240        27
24.250        13
24.260        47
24.270        27
24.280        27
24.290        27
24.300        33
24.310        20
24.320        33
24.330        33
24.340        20
24.350        13
24.360        13
24.370        27
24.380        67
24.390        40
24.400        33
24.410        47
24.420        47
24.430        13
24.440        47
24.450        47
24.460        27
24.470        33
24.480         7
24.490        27
24.500        40
24.510        40
24.520        33
24.530        53
24.540        40
24.550        20
24.560        53
24.570        27
24.580        40
24.590        27
24.600         7
24.610        60
24.620        33
24.630        27
24.640        27
24.650        53
24.660        20
24.670        27
24.680        20
24.690        53
24.700        60
24.710        47
24.720        20
24.730        40
24.740        20
24.750        27
24.760         7
24.770        67
24.780        53
24.790        40
24.800        53
24.810        67
24.820        13
24.830        33
24.840        47
24.850        60
24.860        20
24.870        47
24.880        20
24.890        47
24.900        20
24.910        20
24.920        27
24.930        40
24.940        33
24.950        40
24.960        20
24.970        47
24.980        27
24.990        33
25.000        40
25.010        60
25.020        67
25.030        33
25.040        33
25.050        33
25.060        40
25.070        47
25.080       147
25.090       147
25.100       220
25.110       260
25.120       207
25.130       227
25.140       327
25.150       313
25.160       387
25.170       367
25.180       253
25.190       287
25.200       273
25.210       280
25.220       213
25.230       333
25.240       253
25.250       240
25.260       167
25.270       200
25.280       147
25.290       173
25.300       153
25.310       167
25.320       173
25.330       220
25.340       287
25.350       407
25.360       480
25.370       560
25.380       706
25.390       766
25.400       740
25.410       766
25.420       706
25.430       673
25.440       713
25.450       566
25.460       533
25.470       440
25.480       373
25.490       413
25.500       320
25.510       187
25.520       127
25.530       113
25.540       107
25.550       100
25.560        93
25.570        40
25.580        53
25.590        20
25.600        40
25.610        73
25.620        73
25.630        60
25.640        33
25.650        67
25.660        27
25.670        20
25.680        53
25.690        60
25.700        67
25.710        67
25.720        60
25.730        13
25.740        47
25.750        60
25.760        33
25.770        40
25.780        53
25.790        47
25.800        27
25.810        47
25.820        53
25.830        27
25.840        33
25.850        33
25.860        47
25.870        27
25.880        27
25.890        73
25.900        13
25.910        27
25.920        20
25.930        33
25.940        27
25.950         7
25.960        60
25.970        13
25.980        33
25.990        40
26.000         7
26.010        73
26.020        47
26.030        20
26.040        20
26.050        33
26.060        53
26.070        60
26.080        33
26.090        33
26.100        40
26.110        47
26.120        47
26.130        60
26.140        13
26.150        33
26.160        27
26.170        40
26.180        27
26.190        33
26.200        13
26.210        47
26.220        60
26.230        87
26.240        53
26.250        53
26.260        33
26.270        40
26.280        40
26.290        27
26.300        40
26.310        47
26.320         7
26.330         0
26.340        33
26.350        40
26.360        53
26.370        20
26.380        47
26.390        47
26.400        53
26.410        53
26.420        40
26.430        27
26.440        27
26.450        27
26.460        53
26.470        40
26.480        73
26.490        40
26.500         7
26.510        27
26.520        40
26.530        47
26.540        33
26.550        53
26.560        20
26.570        53
26.580        27
26.590        20
26.600        53
26.610        33
26.620        33
26.630        60
26.640        47
26.650        53
26.660        20
26.670        33
26.680        53
26.690        27
26.700        40
26.710        27
26.720        47
26.730        20
26.740        27
26.750        20
26.760        27
26.770        27
26.780        47
26.790        27
26.800        13
26.810         7
26.820        27
26.830        40
26.840        27
26.850        40
26.860        40
26.870        47
26.880        40
26.890        40
26.900        40
26.910        20
26.920        40
26.930        33
26.940        53
26.950        47
26.960        60
26.970        27
26.980        33
26.990        33
27.000        47
27.010        20
27.020        47
27.030        27
27.040        40
27.050        60
27.060        53
27.070        33
27.080        13
27.090        33
27.100        33
27.110        47
27.120        40
27.130        33
27.140        53
27.150        47
27.160        47
27.170        20
27.180        40
27.190        73
27.200        53
27.210        60
27.220        27
27.230        20
27.240        53
27.250        40
27.260        67
27.270        33
27.280        13
27.290        47
27.300        27
27.310        20
27.320        40
27.330        33
27.340        80
27.350        33
27.360        67
27.370        27
27.380        27
27.390        40
27.400        53
27.410        20
27.420        53
27.430        33
27.440        27
27.450        47
27.460        60
27.470        40
27.480        40
27.490        53
27.500        13
27.510        40
27.520        13
27.530        20
27.540        33
27.550        60
27.560        27
27.570        27
27.580        33
27.590        20
27.600        27
27.610        60
27.620        47
27.630        13
27.640        20
27.650        47
27.660        20
27.670        40
27.680        20
27.690        60
27.700        27
27.710        27
27.720        27
27.730        27
27.740        60
27.750        27
27.760        27
27.770        20
27.780        53
27.790        40
27.800        27
27.810        33
27.820        20
27.830        27
27.840        27
27.850         0
27.860        27
27.870        20
27.880        47
27.890        53
27.900        13
27.910        40
27.920        20
27.930        40
27.940        33
27.950        27
27.960        27
27.970        13
27.980        33
27.990        33
28.000        13
28.010        33
28.020        67
28.030        47
28.040        33
28.050        67
28.060        27
28.070        40
28.080        40
28.090        33
28.100        40
28.110        47
28.120        20
28.130        20
28.140        40
28.150        40
28.160        53
28.170        27
28.180        47
28.190        33
28.200        40
28.210        33
28.220        13
28.230        33
28.240        13
28.250        13
28.260        27
28.270        33
28.280        33
28.290        53
28.300        47
28.310        33
28.320        47
28.330        40
28.340        33
28.350        33
28.360        20
28.370        27
28.380        13
28.390        53
28.400        13
28.410        67
28.420        53
28.430        80
28.440        53
28.450        27
28.460        27
28.470        33
28.480        60
28.490        60
28.500        40
28.510        47
28.520        20
28.530        20
28.540        33
28.550        33
28.560        27
28.570        20
28.580        20
28.590        47
28.600         7
28.610        20
28.620        13
28.630        47
28.640        27
28.650        47
28.660        53
28.670        33
28.680        13
28.690        33
28.700        20
28.710        20
28.720        27
28.730        20
28.740        27
28.750        27
28.760        47
28.770        20
28.780        20
28.790        33
28.800        53
28.810        53
28.820        13
28.830        40
28.840        40
28.850        27
28.860        33
28.870        33
28.880        47
28.890        20
28.900        20
28.910        47
28.920        40
28.930        20
28.940        33
28.950        27
28.960        60
28.970        27
28.980        13
28.990        80
29.000        27
29.010        40
29.020        33
29.030        47
29.040        33
29.050        33
29.060        20
29.070        40
29.080        40
29.090        27
29.100        40
29.110        13
29.120        33
29.130        27
29.140        53
29.150        47
29.160        20
29.170        20
29.180        40
29.190        47
29.200        27
29.210        47
29.220        20
29.230        27
29.240        47
29.250         7
29.260        60
29.270        67
29.280        53
29.290        47
29.300        27
29.310        20
29.320        20
29.330        20
29.340        33
29.350        27
29.360        27
29.370        33
29.380        33
29.390         7
29.400        20
29.410        40
29.420        13
29.430        13
29.440        27
29.450        40
29.460         7
29.470        20
29.480        20
29.490        47
29.500        53
29.510        40
29.520        20
29.530        60
29.540        13
29.550        47
29.560        27
29.570        27
29.580        33
29.590        47
29.600        40
29.610        40
29.620        33
29.630        40
29.640        20
29.650        47
29.660        13
29.670        47
29.680        47
29.690        40
29.700        27
29.710        20
29.720        20
29.730        27
29.740        40
29.750        73
29.760        27
29.770        27
29.780        13
29.790        27
29.800        27
29.810        40
29.820        13
29.830         7
29.840        53
29.850         7
29.860        40
29.870        40
29.880        47
29.890        33
29.900        47
29.910        27
29.920        20
29.930        27
29.940        33
29.950        20
29.960        67
29.970        27
29.980        27
29.990        40
30.000        27
30.010        20
30.020        20
30.030        33
30.040        47
30.050        20
30.060        47
30.070        20
30.080        27
30.090        20
30.100        27
30.110        53
30.120        47
30.130        20
30.140        40
30.150        40
30.160        53
30.170        13
30.180        60
30.190        40
30.200        13
30.210        20
30.220        13
30.230        40
30.240        20
30.250        60
30.260        13
30.270        40
30.280        20
30.290        20
30.300         0
30.310        33
30.320         7
30.330        40
30.340        40
30.350        20
30.360         7
30.370        53
30.380        27
30.390        27
30.400        33
30.410        40
30.420        27
30.430        33
30.440        33
30.450         7
30.460        27
30.470        60
30.480        47
30.490        67
30.500        27
30.510        27
30.520        53
30.530        20
30.540        40
30.550        13
30.560        53
30.570        33
30.580        27
30.590        60
30.600        20
30.610        20
30.620        40
30.630        13
30.640        13
30.650        33
30.660        20
30.670         7
30.680         7
30.690        13
30.700        53
30.710        40
30.720        33
30.730        33
30.740        20
30.750         0
30.760        20
30.770        27
30.780        27
30.790        33
30.800        67
30.810        40
30.820        20
30.830        80
30.840        53
30.850        27
30.860        53
30.870        40
30.880        33
30.890        33
30.900        20
30.910        33
30.920        47
30.930        33
30.940        27
30.950        47
30.960        33
30.970        67
30.980        60
30.990        67
31.000        27
31.010        47
31.020        13
31.030        27
31.040        40
31.050        33
31.060        87
31.070        20
31.080        53
31.090         7
31.100        40
31.110        40
31.120        73
31.130        33
31.140        40
31.150        40
31.160        33
31.170        40
31.180        27
31.190         7
31.200        20
31.210        20
31.220        53
31.230        53
31.240        27
31.250        47
31.260        40
31.270        73
31.280        40
31.290        33
31.300        53
31.310        67
31.320        60
31.330        93
31.340        33
31.350        67
31.360        67
31.370        47
31.380        33
31.390       107
31.400        60
31.410        87
31.420       120
31.430        60
31.440       107
31.450       100
31.460        93
31.470        73
31.480       100
31.490       147
31.500       120
31.510       167
31.520       153
31.530       180
31.540       167
31.550       187
31.560       213
31.570       193
31.580       180
31.590       127
31.600       207
31.610       320
31.620       340
31.630       360
31.640       360
31.650       387
31.660       267
31.670       307
31.680       373
31.690       260
31.700       353
31.710       453
31.720       340
31.730       313
31.740       260
31.750       327
31.760       207
31.770       227
31.780       193
31.790       207
31.800       253
31.810       200
31.820       147
31.830       167
31.840       133
31.850       100
31.860       113
31.870       107
31.880       100
31.890        73
31.900        33
31.910        40
31.920        67
31.930        73
31.940       107
31.950       100
31.960        87
31.970        67
31.980        60
31.990        47
32.000        87
32.010        47
32.020        33
32.030        40
32.040        60
32.050        47
32.060        33
32.070        47
32.080        60
32.090        53
32.100        33
32.110        33
32.120        40
32.130        47
32.140        60
32.150        73
32.160        47
32.170        73
32.180        33
32.190        53
32.200        13
32.210        33
32.220        53
32.230        27
32.240        53
32.250        33
32.260        27
32.270        47
32.280        73
32.290        33
32.300        53
32.310        20
32.320        53
32.330        20
32.340        73
32.350        60
32.360        47
32.370        33
32.380        33
32.390        87
32.400        40
32.410        33
32.420        53
32.430        20
32.440        33
32.450        33
32.460         0
32.470        27
32.480        27
32.490        40
32.500        13
32.510        60
32.520        40
32.530        53
32.540        53
32.550        40
32.560        27
32.570        40
32.580        33
32.590        53
32.600        47
32.610        73
32.620        47
32.630        40
32.640        20
32.650        40
32.660        67
32.670        27
32.680        60
32.690        40
32.700        40
32.710        27
32.720        33
32.730        40
32.740        27
32.750        33
32.760        33
32.770        53
32.780        40
32.790        20
32.800        33
32.810        27
32.820        53
32.830         0
32.840        27
32.850        40
32.860        40
32.870        33
32.880        40
32.890        13
32.900        53
32.910        20
32.920        20
32.930        13
32.940        47
32.950        27
32.960        47
32.970        33
32.980        40
32.990        53
33.000        20
33.010        20
33.020        40
33.030        20
33.040        53
33.050        27
33.060        33
33.070        47
33.080        47
33.090        27
33.100         0
33.110        27
33.120        40
33.130        27
33.140        20
33.150        40
33.160        33
33.170        33
33.180        13
33.190        40
33.200        40
33.210        27
33.220        33
33.230        20
33.240        27
33.250        13
33.260        33
33.270        53
33.280        27
33.290        13
33.300        47
33.310        40
33.320        13
33.330        13
33.340        13
33.350        33
33.360        53
33.370        27
33.380        33
33.390        27
33.400        20
33.410        27
33.420        47
33.430        27
33.440        27
33.450        27
33.460        27
33.470        33
33.480        27
33.490        40
33.500         7
33.510         7
33.520        40
33.530        13
33.540        27
33.550        27
33.560        53
33.570        20
33.580        27
33.590        27
33.600         7
33.610        13
33.620        20
33.630        27
33.640        27
33.650        40
33.660        27
33.670        33
33.680        67
33.690        27
33.700        13
33.710        40
33.720        13
33.730        27
33.740        33
33.750        33
33.760        53
33.770        20
33.780         7
33.790        33
33.800        27
33.810        53
33.820        33
33.830        13
33.840        20
33.850        47
33.860        47
33.870        13
33.880        33
33.890        20
33.900        13
33.910        40
33.920        33
33.930        33
33.940        27
33.950        27
33.960        20
33.970        40
33.980        33
33.990        27
34.000        20
34.010        33
34.020        60
34.030        27
34.040        13
34.050        60
34.060        27
34.070        47
34.080        20
34.090        13
34.100         7
34.110        33
34.120        20
34.130        60
34.140        33
34.150        13
34.160        40
34.170         7
34.180         0
34.190        27
34.200        20
34.210        13
34.220        33
34.230        33
34.240        40
34.250        27
34.260         0
34.270         0
34.280        13
34.290        13
34.300        53
34.310        13
34.320        20
34.330        27
34.340        20
34.350        33
34.360         7
34.370        27
34.380         0
34.390        27
34.400        40
34.410        13
34.420        27
34.430         7
34.440        73
34.450        20
34.460        40
34.470        20
34.480        40
34.490        33
34.500        27
34.510        27
34.520        33
34.530        20
34.540        20
34.550        13
34.560        40
34.570        13
34.580        40
34.590        27
34.600        40
34.610        47
34.620        40
34.630        13
34.640        13
34.650        27
34.660        33
34.670        40
34.680        13
34.690        33
34.700        13
34.710        13
34.720        27
34.730        20
34.740        40
34.750        40
34.760        20
34.770        13
34.780        27
34.790        27
34.800        27
34.810        27
34.820         7
34.830        27
34.840        47
34.850        33
34.860        20
34.870        13
34.880        27
34.890        27
34.900        27
34.910         7
34.920        40
34.930        27
34.940         7
34.950        33
34.960        33
34.970        40
34.980        27
34.990        40
35.000        20
35.010        20
35.020        20
35.030        47
35.040        47
35.050        33
35.060        33
35.070        13
35.080         7
35.090        33
35.100        20
35.110        33
35.120         7
35.130        47
35.140        13
35.150        20
35.160        13
35.170        13
35.180        20
35.190        13
35.200        40
35.210        20
35.220        40
35.230        33
35.240        40
35.250        27
35.260         7
35.270        27
35.280        20
35.290        33
35.300        33
35.310         7
35.320         7
35.330        40
35.340        27
35.350        20
35.360        33
35.370        13
35.380        33
35.390        40
35.400        13
35.410        27
35.420        40
35.430        20
35.440        20
35.450        13
35.460        60
35.470        33
35.480        13
35.490        33
35.500        27
35.510        20
35.520        27
35.530         7
35.540        33
35.550        13
35.560        20
35.570        13
35.580        53
35.590        33
35.600        20
35.610        20
35.620        27
35.630        47
35.640        20
35.650        40
35.660        40
35.670        20
35.680        13
35.690        40
35.700        33
35.710        40
35.720         7
35.730        27
35.740        13
35.750        13
35.760        33
35.770        13
35.780        40
35.790        40
35.800         7
35.810        33
35.820        53
35.830        33
35.840        27
35.850        27
35.860        27
35.870        13
35.880        13
35.890        27
35.900        27
35.910        20
35.920        27
35.930        20
35.940        27
35.950         7
35.960        13
35.970        20
35.980        27
35.990         7
36.000        20
36.010        20
36.020        13
36.030        13
36.040        27
36.050        27
36.060         7
36.070        20
36.080        33
36.090        20
36.100        33
36.110        40
36.120        13
36.130        20
36.140        67
36.150        13
36.160        33
36.170        33
36.180        13
36.190        27
36.200        20
36.210        27
36.220        13
36.230        33
36.240        27
36.250        40
36.260        20
36.270        20
36.280        40
36.290        13
36.300        20
36.310        33
36.320        47
36.330        20
36.340        53
36.350        20
36.360        33
36.370        13
36.380         7
36.390        27
36.400        40
36.410        27
36.420        13
36.430         0
36.440         7
36.450        20
36.460        33
36.470         7
36.480         7
36.490        40
36.500        13
36.510        27
36.520        20
36.530        27
36.540        20
36.550        27
36.560        27
36.570        33
36.580        47
36.590        33
36.600        13
36.610        13
36.620        33
36.630        60
36.640         7
36.650        13
36.660        27
36.670        47
36.680        20
36.690        27
36.700        13
36.710         0
36.720        27
36.730        20
36.740        27
36.750        27
36.760        27
36.770        13
36.780        40
36.790        27
36.800        13
36.810         7
36.820        13
36.830        20
36.840        20
36.850        27
36.860        13
36.870         0
36.880        27
36.890        20
36.900        20
36.910        20
36.920        53
36.930        13
36.940         7
36.950        27
36.960        40
36.970        27
36.980        27
36.990        20
37.000        40
37.010         7
37.020        20
37.030        40
37.040        13
37.050        13
37.060        20
37.070        13
37.080        33
37.090        13
37.100        33
37.110        33
37.120        40
37.130        47
37.140         7
37.150        20
37.160        13
37.170        27
37.180        40
37.190        20
37.200        27
37.210        13
37.220        27
37.230        20
37.240        20
37.250         0
37.260        27
37.270        13
37.280        40
37.290        47
37.300         7
37.310        40
37.320        20
37.330        20
37.340        27
37.350        20
37.360        13
37.370        13
37.380        20
37.390        20
37.400        27
37.410        47
37.420        27
37.430        27
37.440        13
37.450        53
37.460        40
37.470        13
37.480        13
37.490         7
37.500        27
37.510        40
37.520        20
37.530        27
37.540         0
37.550        27
37.560        33
37.570        27
37.580        33
37.590        27
37.600        27
37.610        13
37.620        20
37.630        27
37.640        47
37.650        13
37.660        27
37.670        33
37.680        20
37.690        47
37.700        33
37.710         7
37.720        40
37.730         0
37.740        20
37.750        33
37.760        13
37.770        33
37.780        27
37.790        27
37.800        53
37.810        27
37.820        27
37.830        33
37.840        27
37.850        27
37.860        27
37.870        20
37.880        13
37.890        20
37.900        13
37.910        20
37.920        47
37.930        27
37.940        27
37.950        27
37.960        20
37.970         7
37.980        27
37.990        33
38.000        13
38.010         7
38.020        20
38.030        40
38.040        27
38.050        13
38.060         7
38.070        20
38.080        33
38.090        20
38.100        60
38.110        13
38.120         7
38.130        20
38.140        33
38.150        20
38.160        33
38.170        33
38.180         0
38.190        27
38.200        33
38.210         0
38.220        13
38.230        33
38.240        33
38.250        40
38.260        13
38.270        20
38.280         7
38.290        20
38.300         7
38.310        40
38.320        47
38.330        47
38.340        20
38.350         7
38.360        20
38.370        33
38.380        33
38.390        13
38.400        27
38.410        33
38.420        20
38.430        13
38.440         7
38.450        27
38.460        20
38.470        33
38.480        20
38.490        40
38.500        20
38.510        27
38.520         7
38.530        20
38.540         7
38.550        20
38.560        33
38.570         7
38.580        27
38.590        13
38.600        13
38.610        33
38.620        33
38.630        40
38.640        27
38.650        13
38.660        13
38.670        20
38.680        33
38.690        40
38.700        40
38.710        13
38.720        27
38.730        20
38.740        53
38.750        27
38.760        20
38.770        20
38.780         7
38.790        20
38.800        13
38.810        13
38.820        27
38.830        27
38.840        20
38.850        33
38.860        27
38.870        47
38.880        27
38.890        20
38.900        20
38.910        13
38.920        13
38.930        27
38.940         7
38.950        33
38.960        33
38.970        27
38.980        20
38.990        40
39.000        47
39.010        53
39.020        20
39.030        53
39.040        40
39.050        40
39.060        53
39.070        53
39.080        60
39.090        87
39.100        33
39.110        33
39.120        73
39.130        53
39.140       107
39.150        93
39.160       100
39.170        73
39.180        67
39.190       100
39.200        73
39.210       127
39.220        87
39.230       120
39.240        87
39.250        47
39.260        87
39.270        73
39.280        60
39.290        20
39.300        73
39.310        73
39.320        53
39.330        73
39.340        47
39.350        73
39.360        67
39.370        53
39.380        60
39.390        27
39.400        20
39.410        40
39.420        40
39.430        60
39.440        47
39.450        47
39.460        13
39.470        33
39.480        13
39.490        13
39.500        40
39.510         7
39.520        33
39.530         0
39.540        13
39.550        27
39.560        27
39.570        13
39.580        47
39.590        27
39.600        53
39.610        40
39.620        13
39.630        53
39.640        13
39.650         7
39.660        27
39.670        27
39.680        60
39.690        13
39.700        40
39.710        40
39.720         0
39.730        20
39.740        40
39.750        13
39.760        20
39.770        13
39.780        20
39.790        20
39.800        27
39.810        33
39.820        53
39.830        13
39.840         0
39.850        53
39.860        20
39.870        40
39.880        20
39.890        27
39.900        20
39.910        13
39.920        13
39.930        33
39.940         0
39.950         7
39.960        40
39.970        13
39.980        40
39.990        20
40.000        20
40.010        33
40.020        20
40.030        47
40.040        27
40.050        53
40.060        20
40.070        47
40.080        13
40.090        20
40.100         7
40.110        40
40.120        27
40.130        27
40.140        20
40.150        20
40.160        13
40.170        27
40.180        13
40.190        33
40.200        27
40.210        33
40.220        20
40.230        20
40.240        33
40.250        27
40.260        20
40.270        20
40.280         7
40.290        27
40.300         0
40.310        20
40.320         7
40.330        33
40.340        27
40.350        13
40.360         7
40.370        20
40.380         7
40.390        20
40.400         7
40.410         0
40.420        27
40.430        40
40.440        20
40.450        27
40.460         7
40.470        20
40.480        13
40.490        40
40.500        13
40.510        40
40.520        20
40.530        40
40.540         7
40.550        53
40.560         7
40.570        40
40.580        27
40.590         7
40.600        13
40.610        13
40.620        47
40.630        33
40.640         7
40.650         7
40.660         7
40.670        33
40.680        40
40.690        20
40.700        27
40.710        13
40.720        33
40.730        27
40.740         7
40.750         7
40.760        20
40.770        33
40.780        20
40.790        53
40.800        20
40.810        20
40.820        27
40.830        13
40.840        20
40.850        13
40.860        20
40.870        13
40.880         7
40.890        27
40.900        40
40.910        27
40.920        33
40.930        20
40.940         7
40.950        47
40.960        33
40.970        40
40.980        40
40.990        33
41.000        33
41.010        27
41.020        40
41.030        40
41.040        20
41.050        13
41.060         7
41.070        33
41.080        33
41.090        33
41.100        27
41.110         0
41.120        33
41.130        33
41.140        27
41.150        20
41.160        27
41.170        33
41.180        40
41.190        20
41.200         7
41.210        20
41.220        13
41.230        20
41.240        33
41.250        40
41.260        27
41.270        27
41.280        27
41.290        13
41.300        27
41.310        27
41.320        20
41.330        27
41.340         7
41.350        33
41.360        27
41.370        20
41.380        13
41.390        33
41.400        13
41.410        53
41.420         7
41.430        20
41.440        20
41.450        20
41.460        33
41.470        40
41.480        27
41.490        27
41.500        20
41.510        27
41.520        20
41.530         7
41.540        27
41.550         7
41.560         7
41.570        13
41.580        40
41.590         0
41.600         7
41.610        27
41.620        40
41.630        40
41.640         7
41.650        33
41.660        13
41.670        33
41.680        20
41.690         0
41.700        20
41.710        33
41.720        33
41.730        40
41.740        20
41.750        13
41.760        20
41.770        13
41.780        13
41.790        13
41.800        13
41.810        13
41.820        27
41.830         7
41.840        27
41.850        20
41.860        27
41.870        27
41.880        27
41.890        40
41.900        33
41.910        20
41.920        20
41.930         7
41.940        13
41.950         7
41.960        33
41.970        20
41.980        27
41.990        33
42.000        13
42.010        20
42.020        27
42.030        27
42.040        33
42.050        27
42.060        33
42.070        33
42.080        40
42.090        60
42.100        27
42.110        20
42.120        33
42.130         7
42.140        13
42.150        13
42.160        47
42.170        13
42.180        13
42.190        33
42.200        20
42.210        20
42.220        40
42.230        40
42.240        13
42.250        20
42.260         0
42.270        13
42.280         0
42.290        27
42.300        27
42.310        20
42.320         7
42.330        33
42.340        27
42.350        13
42.360        40
42.370        47
42.380        33
42.390        13
42.400        27
42.410        20
42.420        13
42.430        13
42.440        40
42.450        20
42.460        20
42.470        20
42.480         7
42.490        20
42.500        27
42.510        40
42.520        13
42.530         7
42.540        40
42.550         7
42.560        20
42.570        47
42.580        33
42.590        47
42.600        13
42.610        13
42.620        40
42.630         0
42.640        27
42.650        20
42.660        20
42.670        27
42.680        33
42.690        13
42.700        20
42.710        40
42.720        40
42.730         7
42.740        20
42.750        13
42.760        27
42.770         0
42.780        27
42.790        27
42.800        33
42.810         7
42.820         0
42.830        20
42.840        13
42.850        20
42.860        40
42.870        33
42.880        20
42.890        13
42.900        20
42.910        40
42.920        27
42.930        20
42.940        33
42.950        40
42.960        47
42.970         0
42.980        40
42.990        40
43.000        33
43.010        13
43.020        27
43.030        13
43.040        33
43.050        20
43.060        33
43.070        27
43.080        27
43.090        27
43.100        40
43.110        33
43.120         0
43.130        20
43.140        33
43.150        47
43.160        33
43.170        40
43.180        27
43.190        13
43.200        20
43.210        33
43.220         7
43.230         7
43.240        20
43.250        20
43.260        20
43.270        13
43.280         7
43.290         7
43.300        20
43.310        40
43.320        13
43.330        33
43.340        33
43.350        27
43.360        20
43.370         7
43.380        53
43.390        27
43.400        47
43.410        20
43.420        27
43.430        20
43.440        27
43.450        40
43.460        33
43.470        53
43.480        33
43.490        47
43.500        47
43.510        13
43.520        60
43.530        33
43.540        20
43.550        53
43.560         7
43.570        13
43.580        20
43.590        27
43.600        20
43.610        27
43.620        33
43.630        27
43.640         7
43.650        20
43.660        27
43.670        33
43.680        27
43.690        20
43.700        20
43.710        47
43.720         7
43.730        13
43.740        20
43.750        20
43.760        13
43.770        20
43.780        47
43.790        20
43.800        27
43.810        27
43.820        13
43.830        53
43.840        13
43.850        33
43.860        13
43.870        27
43.880        20
43.890        13
43.900        13
43.910        27
43.920        13
43.930        33
43.940        33
43.950        40
43.960        53
43.970        20
43.980        27
43.990        40
44.000        27
44.010        27
44.020        13
44.030        20
44.040        20
44.050        47
44.060        27
44.070        47
44.080        27
44.090        20
44.100        40
44.110        13
44.120        33
44.130        47
44.140        33
44.150        33
44.160        20
44.170        33
44.180        20
44.190        33
44.200        33
44.210        27
44.220        47
44.230        33
44.240        33
44.250        27
44.260        47
44.270        47
44.280        40
44.290        27
44.300        27
44.310        27
44.320        27
44.330        33
44.340        13
44.350        27
44.360        40
44.370        33
44.380        47
44.390        33
44.400        13
44.410        33
44.420        40
44.430        20
44.440        40
44.450        20
44.460        27
44.470        33
44.480        27
44.490        33
44.500        47
44.510        20
44.520        33
44.530        40
44.540        27
44.550        33
44.560        13
44.570        27
44.580        40
44.590        40
44.600        40
44.610        40
44.620        53
44.630        20
44.640        40
44.650        20
44.660        60
44.670        27
44.680        20
44.690        27
44.700        27
44.710        33
44.720        40
44.730        33
44.740        27
44.750        47
44.760        33
44.770        27
44.780        27
44.790        20
44.800        33
44.810        27
44.820        67
44.830        27
44.840        20
44.850        47
44.860        33
44.870        40
44.880        33
44.890        40
44.900        33
44.910        40
44.920        27
44.930        33
44.940        47
44.950        47
44.960        47
44.970        27
44.980        27
44.990        33
45.000        73
45.010        53
45.020        47
45.030        60
45.040        40
45.050        53
45.060        33
45.070        33
45.080        47
45.090        53
45.100        33
45.110        60
45.120        60
45.130        47
45.140        73
45.150        60
45.160        60
45.170        67
45.180        53
45.190        60
45.200        40
45.210        73
45.220        67
45.230        33
45.240        40
45.250        80
45.260        73
45.270        80
45.280        87
45.290        47
45.300        87
45.310       133
45.320       140
45.330       113
45.340       173
45.350       140
45.360       147
45.370       120
45.380       127
45.390       127
45.400       213
45.410       120
45.420       147
45.430       260
45.440       187
45.450       140
45.460       247
45.470       260
45.480       200
45.490       327
45.500       247
45.510       287
45.520       227
45.530       180
45.540       287
45.550       227
45.560       240
45.570       213
45.580       287
45.590       253
45.600       287
45.610       293
45.620       260
45.630       333
45.640       240
45.650       287
45.660       213
45.670       267
45.680       287
45.690       200
45.700       267
45.710       187
45.720       180
45.730       193
45.740       167
45.750       220
45.760       153
45.770       147
45.780       133
45.790       153
45.800       127
45.810       113
45.820       140
45.830       113
45.840        87
45.850       107
45.860        47
45.870       100
45.880        80
45.890        67
45.900        93
45.910        47
45.920        40
45.930        60
45.940        67
45.950        73
45.960        60
45.970        60
45.980        60
45.990        73
46.000        27
46.010        33
46.020        40
46.030        33
46.040        53
46.050        27
46.060        47
46.070        33
46.080        27
46.090        33
46.100        60
46.110        53
46.120        60
46.130        53
46.140        53
46.150        33
46.160         7
46.170        33
46.180        33
46.190        67
46.200        27
46.210         0
46.220        33
46.230        13
46.240        47
46.250        40
46.260        13
46.270        60
46.280        33
46.290        47
46.300        20
46.310        53
46.320        20
46.330        40
46.340        47
46.350        20
46.360        27
46.370        60
46.380        40
46.390        27
46.400        27
46.410        33
46.420        20
46.430        33
46.440        33
46.450        60
46.460        20
46.470        47
46.480        33
46.490        73
46.500        47
46.510        13
46.520        20
46.530        60
46.540        60
46.550        53
46.560        27
46.570        33
46.580        33
46.590        33
46.600        53
46.610        20
46.620        27
46.630        60
46.640        60
46.650        40
46.660        47
46.670        60
46.680        60
46.690        47
46.700        67
46.710        80
46.720        47
46.730        80
46.740        80
46.750        47
46.760        80
46.770        33
46.780        47
46.790        60
46.800        40
46.810        93
46.820        27
46.830        93
46.840       100
46.850        80
46.860        33
46.870        53
46.880       120
46.890       100
46.900       107
46.910        93
46.920        87
46.930        73
46.940       100
46.950       127
46.960       120
46.970       127
46.980       107
46.990       127
47.000       187
47.010       167
47.020       140
47.030       133
47.040       167
47.050       207
47.060       267
47.070       253
47.080       393
47.090       540
47.100       773
47.110       800
47.120       846
47.130       886
47.140      1006
47.150       960
47.160       700
47.170       660
47.180       553
47.190       380
47.200       233
47.210       180
47.220       173
47.230       140
47.240       147
47.250       133
47.260       120
47.270        87
47.280       113
47.290       120
47.300        60
47.310        67
47.320       100
47.330        60
47.340        60
47.350       107
47.360        87
47.370        80
47.380        60
47.390        80
47.400        93
47.410        33
47.420        60
47.430        53
47.440        47
47.450        40
47.460        73
47.470        40
47.480        73
47.490        60
47.500        60
47.510        47
47.520        67
47.530        53
47.540        73
47.550        47
47.560        47
47.570       147
47.580        67
47.590        53
47.600        40
47.610        20
47.620        67
47.630        33
47.640        73
47.650        80
47.660        47
47.670        73
47.680        33
47.690        60
47.700        93
47.710        73
47.720        73
47.730        40
47.740        80
47.750        47
47.760        53
47.770        73
47.780        73
47.790        27
47.800        53
47.810        40
47.820        27
47.830        47
47.840        40
47.850        67
47.860        53
47.870        40
47.880        67
47.890        40
47.900        53
47.910        53
47.920        40
47.930        47
47.940        27
47.950        73
47.960        33
47.970        60
47.980        60
47.990        47
48.000        20
48.010        20
48.020        33
48.030        33
48.040        33
48.050        33
48.060        47
48.070        53
48.080        73
48.090        80
48.100        27
48.110        73
48.120        60
48.130        47
48.140        13
48.150        67
48.160        27
48.170        20
48.180        33
48.190        40
48.200        67
48.210        27
48.220        33
48.230        40
48.240        67
48.250        27
48.260        40
48.270        73
48.280        53
48.290        47
48.300        27
48.310        33
48.320        40
48.330        60
48.340        33
48.350        20
48.360        53
48.370        47
48.380        40
48.390        47
48.400        67
48.410        80
48.420        80
48.430        53
48.440        67
48.450        40
48.460        47
48.470        40
48.480        80
48.490        60
48.500        40
48.510        20
48.520        47
48.530        60
48.540        27
48.550        20
48.560        73
48.570        53
48.580        47
48.590        47
48.600        27
48.610        27
48.620        80
48.630        60
48.640        33
48.650        40
48.660        60
48.670        53
48.680        47
48.690        40
48.700        73
48.710        60
48.720        13
48.730        40
48.740        33
48.750        33
48.760        67
48.770        33
48.780        67
48.790        60
48.800        53
48.810        47
48.820        40
48.830        40
48.840        47
48.850        40
48.860        80
48.870        60
48.880        33
48.890        13
48.900        33
48.910        47
48.920        13
48.930        33
48.940        27
48.950        53
48.960        67
48.970        67
48.980        40
48.990        47
49.000        47
49.010        40
49.020        47
49.030        13
49.040        33
49.050        60
49.060        13
49.070        47
49.080        40
49.090        33
49.100        40
49.110        27
49.120        53
49.130        53
49.140        47
49.150        40
49.160        33
49.170        47
49.180        40
49.190        40
49.200        13
49.210        33
49.220        40
49.230        33
49.240        53
49.250        47
49.260        27
49.270        53
49.280        27
49.290        27
49.300        53
49.310        40
49.320        67
49.330        73
49.340        40
49.350        33
49.360        80
49.370       107
49.380        40
49.390        53
49.400        33
49.410        47
49.420        47
49.430        53
49.440        40
49.450        53
49.460        27
49.470        20
49.480        47
49.490        27
49.500        27
49.510        40
49.520        27
49.530        53
49.540        40
49.550        47
49.560        13
49.570        67
49.580        53
49.590        33
49.600        87
49.610        27
49.620        73
49.630        47
49.640        33
49.650        33
49.660        20
49.670        60
49.680        27
49.690        53
49.700        53
49.710        60
49.720        73
49.730        33
49.740        40
49.750        13
49.760        60
49.770        53
49.780        13
49.790        40
49.800         7
49.810        53
49.820        40
49.830        60
49.840        47
49.850        13
49.860        40
49.870        27
49.880        67
49.890        47
49.900        60
49.910        47
49.920        33
49.930        80
49.940        60
49.950        40
49.960        67
49.970        33
49.980        60
49.990        33
50.000        87
50.010        40
50.020        33
50.030        40
50.040        47
50.050        47
50.060        47
50.070        47
50.080        40
50.090        40
50.100        40
50.110        27
50.120        33
50.130        53
50.140        40
50.150        27
50.160        33
50.170        67
50.180        47
50.190        67
50.200        60
50.210        40
50.220        40
50.230        53
50.240        40
50.250        67
50.260        13
50.270        47
50.280        27
50.290        60
50.300        27
50.310        73
50.320        27
50.330        53
50.340        40
50.350        67
50.360        67
50.370        33
50.380        53
50.390        60
50.400        60
50.410        80
50.420        73
50.430        60
50.440        87
50.450        67
50.460        53
50.470        27
50.480        53
50.490        60
50.500       113
50.510        47
50.520        67
50.530       107
50.540        87
50.550        80
50.560       113
50.570       120
50.580       107
50.590       133
50.600       160
50.610       240
50.620       240
50.630       287
50.640       240
50.650       327
50.660       360
50.670       400
50.680       327
50.690       220
50.700       407
50.710       367
50.720       287
50.730       360
50.740       407
50.750       387
50.760       327
50.770       387
50.780       313
50.790       453
50.800       426
50.810       367
50.820       446
50.830       407
50.840       333
50.850       446
50.860       333
50.870       327
50.880       380
50.890       360
50.900       413
50.910       353
50.920       307
50.930       353
50.940       280
50.950       320
50.960       400
50.970       307
50.980       440
50.990       473
51.000       347
51.010       373
51.020       466
51.030       413
51.040       320
51.050       380
51.060       440
51.070       360
51.080       466
51.090       340
51.100       373
51.110       367
51.120       340
51.130       380
51.140       340
51.150       313
51.160       480
51.170       333
51.180       420
51.190       333
51.200       260
51.210       380
51.220       526
51.230       267
51.240       413
51.250       347
51.260       340
51.270       293
51.280       393
51.290       387
51.300       433
51.310       353
51.320       466
51.330       333
51.340       413
51.350       413
51.360       347
51.370       407
51.380       327
51.390       373
51.400       446
51.410       393
51.420       387
51.430       413
51.440       453
51.450       466
51.460       460
51.470       460
51.480       373
51.490       433
51.500       387
51.510       413
51.520       400
51.530       480
51.540       493
51.550       440
51.560       460
51.570       546
51.580       453
51.590       426
51.600       307
51.610       460
51.620       426
51.630       400
51.640       486
51.650       473
51.660       360
51.670       426
51.680       380
51.690       433
51.700       513
51.710       493
51.720       513
51.730       486
51.740       500
51.750       480
51.760       420
51.770       480
51.780       426
51.790       486
51.800       526
51.810       453
51.820       440
51.830       493
51.840       486
51.850       506
51.860       413
51.870       500
51.880       480
51.890       460
51.900       626
51.910       520
51.920       580
51.930       513
51.940       593
51.950       606
51.960       486
51.970       546
51.980       593
51.990       613
52.000       586
52.010       673
52.020       560
52.030       700
52.040       560
52.050       606
52.060       640
52.070       813
52.080       660
52.090       800
52.100       820
52.110       740
52.120       780
52.130       946
52.140      1026
52.150       873
52.160       980
52.170      1153
52.180      1186
52.190      1160
52.200      1313
52.210      1379
52.220      1659
52.230      1866
52.240      2406
52.250      2686
52.260      3319
52.270      3965
52.280      4378
52.290      5038
52.300      5784
52.310      6937
52.320      7684
52.330      7897
52.340      8377
52.350      9290
52.360     10316
52.370     10549
52.380     11249
52.390     12029
52.400     11862
52.410     13135
52.420     13861
52.430     14141
52.440     15707
52.450     17040
52.460     20025
52.470     23644
52.480     29268
52.490     37365
52.500     51973
52.510     71358
52.520     97561
52.530    123184
52.540    147368
52.550    163814
52.560    172578
52.570    175916
52.580    164088
52.590    144109
52.600    113201
52.610     78495
52.620     55025
52.630     42190
52.640     38465
52.650     44169
52.660     53905
52.670     66647
52.680     80468
52.690     92696
52.700     98714
52.710     99534
52.720     95002
52.730     80361
52.740     61349
52.750     41157
52.760     25563
52.770     16653
52.780     10516
52.790      8003
52.800      5798
52.810      4671
52.820      3885
52.830      3818
52.840      2985
52.850      2925
52.860      2492
52.870      2226
52.880      2206
52.890      2053
52.900      1793
52.910      1933
52.920      1626
52.930      1453
52.940      1559
52.950      1439
52.960      1419
52.970      1286
52.980      1213
52.990      1233
53.000      1046
53.010      1160
53.020      1073
53.030       886
53.040       980
53.050       793
53.060       886
53.070       873
53.080       933
53.090       933
53.100       926
53.110       746
53.120       713
53.130       740
53.140       806
53.150       613
53.160       713
53.170       620
53.180       626
53.190       533
53.200       680
53.210       620
53.220       606
53.230       680
53.240       660
53.250       606
53.260       506
53.270       620
53.280       533
53.290       580
53.300       560
53.310       506
53.320       533
53.330       546
53.340       540
53.350       600
53.360       653
53.370       526
53.380       540
53.390       540
53.400       407
53.410       480
53.420       506
53.430       513
53.440       533
53.450       433
53.460       453
53.470       493
53.480       433
53.490       387
53.500       407
53.510       466
53.520       666
53.530       380
53.540       367
53.550       493
53.560       407
53.570       520
53.580       367
53.590       440
53.600       347
53.610       500
53.620       440
53.630       367
53.640       387
53.650       446
53.660       453
53.670       506
53.680       380
53.690       453
53.700       373
53.710       347
53.720       420
53.730       313
53.740       446
53.750       433
53.760       387
53.770       340
53.780       400
53.790       340
53.800       400
53.810       426
53.820       287
53.830       300
53.840       333
53.850       407
53.860       373
53.870       373
53.880       320
53.890       440
53.900       387
53.910       360
53.920       420
53.930       380
53.940       466
53.950       333
53.960       387
53.970       340
53.980       327
53.990       373
54.000       353
54.010       307
54.020       267
54.030       307
54.040       240
54.050       313
54.060       253
54.070       333
54.080       347
54.090       287
54.100       340
54.110       360
54.120       380
54.130       300
54.140       380
54.150       373
54.160       347
54.170       287
54.180       360
54.190       293
54.200       360
54.210       320
54.220       353
54.230       367
54.240       273
54.250       307
54.260       327
54.270       300
54.280       327
54.290       380
54.300       280
54.310       253
54.320       347
54.330       267
54.340       300
54.350       340
54.360       327
54.370       347
54.380       327
54.390       300
54.400       287
54.410       360
54.420       273
54.430       253
54.440       280
54.450       307
54.460       267
54.470       347
54.480       267
54.490       400
54.500       340
54.510       273
54.520       333
54.530       380
54.540       340
54.550       340
54.560       380
54.570       267
54.580       347
54.590       247
54.600       273
54.610       233
54.620       313
54.630       333
54.640       293
54.650       313
54.660       233
54.670       287
54.680       267
54.690       200
54.700       300
54.710       293
54.720       280
54.730       213
54.740       260
54.750       233
54.760       287
54.770       287
54.780       253
54.790       227
54.800       267
54.810       320
54.820       280
54.830       353
54.840       293
54.850       213
54.860       313
54.870       260
54.880       227
54.890       373
54.900       313
54.910       240
54.920       267
54.930       253
54.940       213
54.950       207
54.960       267
54.970       300
54.980       287
54.990       233
55.000       233
55.010       287
55.020       327
55.030       260
55.040       260
55.050       167
55.060       307
55.070       320
55.080       207
55.090       260
55.100       207
55.110       200
55.120       300
55.130       353
55.140       213
55.150       233
55.160       313
55.170       373
55.180       293
55.190       193
55.200       240
55.210       247
55.220       180
55.230       267
55.240       293
55.250       273
55.260       240
55.270       347
55.280       207
55.290       300
55.300       227
55.310       240
55.320       213
55.330       253
55.340       187
55.350       233
55.360       287
55.370       260
55.380       193
55.390       307
55.400       253
55.410       280
55.420       240
55.430       233
55.440       240
55.450       333
55.460       233
55.470       247
55.480       227
55.490       213
55.500       267
55.510       220
55.520       187
55.530       227
55.540       273
55.550       207
55.560       193
55.570       260
55.580       300
55.590       193
55.600       260
55.610       320
55.620       240
55.630       173
55.640       253
55.650       213
55.660       127
55.670       180
55.680       180
55.690       187
55.700       313
55.710       147
55.720       200
55.730       240
55.740       313
55.750       180
55.760       247
55.770       233
55.780       227
55.790       260
55.800       213
55.810       240
55.820       260
55.830       180
55.840       267
55.850       280
55.860       340
55.870       267
55.880       193
55.890       227
55.900       267
55.910       313
55.920       240
55.930       280
55.940       233
55.950       227
55.960       220
55.970       187
55.980       193
55.990       247
56.000       180
56.010       240
56.020       240
56.030       187
56.040       227
56.050       267
56.060       287
56.070       293
56.080       187
56.090       213
56.100       147
56.110       247
56.120       220
56.130       280
56.140       233
56.150       247
56.160       187
56.170       227
56.180       180
56.190       213
56.200       233
56.210       300
56.220       260
56.230       233
56.240       240
56.250       207
56.260       300
56.270       207
56.280       240
56.290       227
56.300       240
56.310       200
56.320       273
56.330       267
56.340       307
56.350       173
56.360       247
56.370       213
56.380       247
56.390       187
56.400       260
56.410       253
56.420       253
56.430       227
56.440       260
56.450       307
56.460       173
56.470       220
56.480       200
56.490       240
56.500       267
56.510       213
56.520       260
56.530       187
56.540       247
56.550       180
56.560       287
56.570       313
56.580       207
56.590       327
56.600       247
56.610       313
56.620       267
56.630       253
56.640       260
56.650       333
56.660       247
56.670       287
56.680       267
56.690       320
56.700       253
56.710       313
56.720       260
56.730       347
56.740       240
56.750       240
56.760       253
56.770       333
56.780       313
56.790       173
56.800       293
56.810       240
56.820       220
56.830       233
56.840       247
56.850       333
56.860       287
56.870       300
56.880       300
56.890       213
56.900       273
56.910       167
56.920       173
56.930       247
56.940       253
56.950       253
56.960       247
56.970       173
56.980       233
56.990       220
57.000       260
57.010       213
57.020       293
57.030       260
57.040       240
57.050       180
57.060       247
57.070       173
57.080       213
57.090       187
57.100       227
57.110       287
57.120       213
57.130       280
57.140       167
57.150       187
57.160       240
57.170       180
57.180       267
57.190       120
57.200       253
57.210       193
57.220       240
57.230       147
57.240       193
57.250       213
57.260       220
57.270       173
57.280       207
57.290       167
57.300       180
57.310       133
57.320       207
57.330       167
57.340       187
57.350       187
57.360       133
57.370       167
57.380       180
57.390       240
57.400       200
57.410       273
57.420       200
57.430       200
57.440        93
57.450       280
57.460       187
57.470       180
57.480       207
57.490       187
57.500       160
57.510       173
57.520       193
57.530       180
57.540       147
57.550       147
57.560       147
57.570       160
57.580       153
57.590       233
57.600       180
57.610       153
57.620       153
57.630       180
57.640       173
57.650       200
57.660       167
57.670       207
57.680       153
57.690       160
57.700       140
57.710       153
57.720       173
57.730       120
57.740       240
57.750       180
57.760       153
57.770       213
57.780       180
57.790       173
57.800       113
57.810       140
57.820       200
57.830       167
57.840       113
57.850       133
57.860       207
57.870       133
57.880       193
57.890       147
57.900       207
57.910       213
57.920       160
57.930       180
57.940       160
57.950       173
57.960       207
57.970       147
57.980       153
57.990       173
58.000       167
58.010       147
58.020       193
58.030       167
58.040       133
58.050       207
58.060       140
58.070       120
58.080       213
58.090       233
58.100       200
58.110       140
58.120       167
58.130       153
58.140       167
58.150       160
58.160       227
58.170       220
58.180       167
58.190       120
58.200       207
58.210       127
58.220       153
58.230       227
58.240       193
58.250       167
58.260       207
58.270       193
58.280       173
58.290        93
58.300       240
58.310       147
58.320       193
58.330       153
58.340       160
58.350       140
58.360       167
58.370       147
58.380       193
58.390       153
58.400       133
58.410       220
58.420       133
58.430       140
58.440       167
58.450       140
58.460       173
58.470       220
58.480       160
58.490       193
58.500       160
58.510       200
58.520       160
58.530       127
58.540       160
58.550       147
58.560       193
58.570       147
58.580       227
58.590       160
58.600       140
58.610       140
58.620       200
58.630       173
58.640       127
58.650       153
58.660       133
58.670       193
58.680       173
58.690       180
58.700       207
58.710       167
58.720       147
58.730       200
58.740       147
58.750       193
58.760       187
58.770       120
58.780       173
58.790       113
58.800       160
58.810       160
58.820       193
58.830       160
58.840       173
58.850       107
58.860       147
58.870       160
58.880       187
58.890       213
58.900       147
58.910       153
58.920       233
58.930       160
58.940       187
58.950       187
58.960       140
58.970       140
58.980       167
58.990       187
59.000       160
59.010       127
59.020       120
59.030       133
59.040       153
59.050       140
59.060       193
59.070       167
59.080       167
59.090       140
59.100        93
59.110       153
59.120       107
59.130       100
59.140       113
59.150       153
59.160       127
59.170       140
59.180       173
59.190       193
59.200       193
59.210       133
59.220       173
59.230       113
59.240       160
59.250       133
59.260       193
59.270       147
59.280       187
59.290       113
59.300       127
59.310       180
59.320       153
59.330       180
59.340       133
59.350       120
59.360       140
59.370       160
59.380       107
59.390       127
59.400       127
59.410       160
59.420       127
59.430       107
59.440       133
59.450       100
59.460       100
59.470       107
59.480       173
59.490       147
59.500       167
59.510       173
59.520       173
59.530       120
59.540       180
59.550       153
59.560       147
59.570       120
59.580       133
59.590        87
59.600       140
59.610       133
59.620       160
59.630       147
59.640       100
59.650        87
59.660       147
59.670       153
59.680       173
59.690       127
59.700       147
59.710       180
59.720       127
59.730        93
59.740       113
59.750       113
59.760        93
59.770       120
59.780       127
59.790       173
59.800        80
59.810       153
59.820       120
59.830       173
59.840       173
59.850       147
59.860       147
59.870       180
59.880       113
59.890       107
59.900       100
59.910       173
59.920        93
59.930       127
59.940       147
59.950       127
59.960       147
59.970       173
59.980       127
59.990       100
60.000       100
