20.000        27
20.010        27
20.020        40
20.030        33
20.040        53
20.050        73
20.060        73
20.070        60
20.080        40
20.090        40
20.100        40
20.110        60
20.120        13
20.130        40
20.140        73
20.150        20
20.160        33
20.170        53
20.180        27
20.190        60
20.200        33
20.210        33
20.220        60
20.230        47
20.240        53
20.250        60
20.260        40
20.270        33
20.280        73
20.290        47
20.300        47
20.310        27
20.320        67
20.330        20
20.340        13
20.350        47
20.360        47
20.370        27
20.380        40
20.390        20
20.400        47
20.410        27
20.420        60
20.430        33
20.440        20
20.450        60
20.460        60
20.470        27
20.480        47
20.490        47
20.500        33
20.510        67
20.520        27
20.530        60
20.540        53
20.550        53
20.560        60
20.570        53
20.580        27
20.590        47
20.600        40
20.610        33
20.620        67
20.630        13
20.640        40
20.650        60
20.660        53
20.670        47
20.680        47
20.690        27
20.700        40
20.710        60
20.720        40
20.730        87
20.740        40
20.750        73
20.760        47
20.770        40
20.780        40
20.790        47
20.800        40
20.810        20
20.820        27
20.830        40
20.840        27
20.850        27
20.860        40
20.870        47
20.880        60
20.890        53
20.900        53
20.910        27
20.920        27
20.930        47
20.940        53
20.950        47
20.960        13
20.970        33
20.980        27
20.990        27
21.000        33
21.010        53
21.020        33
21.030        60
21.040        27
21.050        33
21.060        27
21.070        73
21.080        27
21.090        27
21.100        73
21.110        87
21.120        40
21.130        67
21.140        47
21.150        93
21.160        33
21.170        40
21.180        53
21.190        33
21.200        40
21.210        60
21.220        33
21.230        53
21.240        47
21.250        67
21.260        20
21.270        40
21.280        33
21.290         7
21.300        40
21.310        33
21.320        33
21.330        60
21.340        67
21.350        33
21.360        40
21.370        60
21.380        40
21.390        53
21.400        33
21.410        27
21.420        20
21.430        33
21.440        33
21.450        47
21.460        27
21.470        80
21.480        40
21.490        67
21.500        33
21.510        33
21.520        33
21.530        53
21.540        40
21.550        53
21.560        67
21.570        40
21.580        53
21.590        27
21.600        73
21.610        40
21.620        60
21.630        47
21.640        80
21.650        27
21.660        27
21.670        53
21.680        53
21.690        27
21.700        20
21.710        40
21.720        20
21.730        27
21.740        47
21.750        33
21.760         0
21.770        27
21.780        47
21.790        13
21.800        47
21.810        27
21.820        40
21.830        27
21.840        73
21.850        40
21.860        53
21.870        67
21.880        40
21.890        33
21.900        40
21.910        33
21.920        67
21.930        40
21.940        27
21.950        47
21.960        40
21.970        40
21.980        73
21.990        67
22.000        53
22.010        27
22.020        80
22.030        80
22.040        73
22.050        80
22.060        73
22.070        67
22.080        80
22.090       107
22.100        67
22.110       127
22.120        27
22.130       100
22.140        53
22.150        93
22.160       113
22.170        80
22.180       100
22.190        87
22.200       173
22.210        80
22.220       133
22.230        87
22.240        80
22.250       200
22.260       167
22.270       133
22.280       133
22.290       153
22.300       127
22.310       173
22.320       200
22.330       193
22.340        93
22.350        93
22.360       100
22.370       113
22.380        60
22.390       100
22.400       120
22.410        40
22.420       107
22.430        87
22.440        80
22.450        80
22.460        73
22.470        27
22.480        33
22.490        60
22.500        40
22.510        67
22.520        73
22.530        13
22.540        40
22.550        27
22.560        67
22.570        53
22.580        40
22.590        20
22.600        40
22.610        87
22.620        60
22.630        73
22.640        40
22.650        60
22.660        47
22.670        60
22.680        27
22.690        47
22.700        53
22.710         0
22.720        33
22.730        40
22.740        67
22.750        67
22.760        47
22.770        27
22.780        60
22.790        13
22.800        33
22.810        33
22.820        33
22.830        60
22.840        40
22.850        67
22.860        80
22.870        40
22.880        60
22.890        40
22.900        40
22.910        53
22.920        20
22.930        60
22.940        27
22.950        40
22.960        33
22.970        33
22.980        87
22.990        93
23.000        47
23.010        40
23.020        60
23.030        40
23.040        40
23.050        60
23.060        87
23.070        40
23.080        33
23.090        60
23.100        60
23.110        53
23.120        67
23.130        40
23.140        87
23.150        87
23.160        93
23.170        47
23.180        60
23.190        60
23.200        53
23.210        67
23.220        27
23.230        53
23.240        27
23.250        53
23.260        47
23.270        33
23.280        33
23.290        40
23.300        13
23.310        27
23.320        67
23.330         7
23.340        73
23.350        33
23.360        33
23.370        40
23.380        40
23.390        20
23.400        20
23.410        33
23.420        27
23.430        53
23.440        60
23.450        47
23.460        60
23.470        53
23.480        40
23.490        60
23.500        47
23.510        60
23.520        47
23.530        47
23.540        13
23.550        73
23.560        40
23.570        53
23.580        53
23.590        60
23.600        13
23.610        73
23.620        33
23.630        73
23.640        53
23.650        47
23.660        67
23.670        73
23.680        27
23.690        40
23.700        53
23.710        20
23.720        47
23.730        33
23.740        13
23.750        40
23.760        27
23.770        67
23.780        40
23.790        27
23.800        33
23.810        33
23.820        40
23.830        33
23.840        53
23.850        27
23.860        20
23.870        60
23.880        67
23.890        47
23.900        47
23.910        33
23.920        60
23.930        80
23.940        47
23.950        73
23.960        40
23.970        47
23.980        53
23.990        27
24.000        33
24.010        53
24.020        47
24.030        53
24.040        33
24.050        47
24.060        40
24.070        13
24.080        33
24.090        47
24.100        40
24.110        47
24.120        67
24.130        73
24.140        53
24.150        27
24.160        33
24.170        47
24.180        67
24.190        60
24.200        67
24.210        53
24.220        47
24.230       100
24.240        47
24.250        47
24.260        60
24.270        73
24.280        60
24.290        60
24.300        60
24.310        33
24.320        13
24.330        40
24.340        27
24.350       100
24.360        67
24.370        53
24.380        40
24.390        53
24.400        40
24.410        73
24.420        60
24.430        53
24.440        33
24.450        40
24.460        47
24.470        67
24.480         7
24.490        67
24.500        67
24.510        60
24.520        53
24.530        67
24.540        40
24.550        33
24.560        47
24.570        13
24.580        47
24.590        40
24.600        27
24.610        73
24.620        73
24.630       113
24.640        53
24.650        33
24.660        53
24.670        60
24.680        67
24.690        27
24.700        33
24.710        33
24.720        60
24.730       100
24.740        60
24.750        60
24.760        87
24.770        47
24.780        93
24.790        40
24.800       133
24.810        53
24.820        60
24.830        53
24.840        27
24.850        40
24.860        67
24.870        80
24.880        47
24.890        73
24.900       113
24.910       100
24.920        73
24.930        47
24.940        93
24.950        87
24.960        67
24.970        47
24.980       120
24.990        53
25.000        60
25.010        67
25.020       107
25.030        80
25.040       113
25.050        67
25.060        67
25.070        87
25.080        93
25.090        73
25.100       113
25.110        80
25.120        53
25.130       107
25.140        73
25.150        47
25.160       127
25.170       113
25.180       107
25.190        73
25.200        80
25.210        27
25.220       107
25.230        73
25.240        87
25.250       140
25.260       100
25.270        80
25.280       100
25.290        73
25.300       133
25.310        93
25.320       147
25.330       200
25.340       180
25.350       267
25.360       373
25.370       440
25.380       473
25.390       513
25.400       613
25.410       673
25.420       860
25.430       720
25.440       986
25.450      1140
25.460      1146
25.470      1233
25.480      1246
25.490      1359
25.500      1153
25.510      1319
25.520      1133
25.530      1160
25.540      1160
25.550      1180
25.560      1193
25.570      1166
25.580      1473
25.590      1819
25.600      2692
25.610      3405
25.620      4611
25.630      5358
25.640      6764
25.650      7604
25.660      7550
25.670      6777
25.680      4958
25.690      3812
25.700      3419
25.710      3992
25.720      4005
25.730      3832
25.740      2752
25.750      1393
25.760       993
25.770       593
25.780       426
25.790       313
25.800       287
25.810       220
25.820       247
25.830       220
25.840       173
25.850       227
25.860       147
25.870       147
25.880       107
25.890       140
25.900       147
25.910       113
25.920       187
25.930       120
25.940        87
25.950       100
25.960       127
25.970        73
25.980        80
25.990       113
26.000        53
26.010       100
26.020       113
26.030        93
26.040       100
26.050       147
26.060       120
26.070       107
26.080       120
26.090        67
26.100       173
26.110        60
26.120       113
26.130        73
26.140        80
26.150       113
26.160        67
26.170        33
26.180        73
26.190        67
26.200        67
26.210        80
26.220        73
26.230        93
26.240        93
26.250        53
26.260        60
26.270       107
26.280        67
26.290       133
26.300        87
26.310       113
26.320        67
26.330        33
26.340       100
26.350        87
26.360       120
26.370       133
26.380       107
26.390       147
26.400        67
26.410        67
26.420        60
26.430        53
26.440       107
26.450        67
26.460        87
26.470        87
26.480        87
26.490        80
26.500       107
26.510        67
26.520        60
26.530        73
26.540        73
26.550       100
26.560        87
26.570        47
26.580        40
26.590        73
26.600        60
26.610        93
26.620        73
26.630       107
26.640       107
26.650        47
26.660        67
26.670        60
26.680        73
26.690        73
26.700       107
26.710       100
26.720        47
26.730        73
26.740        40
26.750        73
26.760        67
26.770        40
26.780        80
26.790        33
26.800       100
26.810       107
26.820        93
26.830        87
26.840        73
26.850        73
26.860        73
26.870        93
26.880        60
26.890        53
26.900        67
26.910        40
26.920        87
26.930       133
26.940        47
26.950       100
26.960        73
26.970        87
26.980        73
26.990       100
27.000       113
27.010        47
27.020        87
27.030        93
27.040       113
27.050       113
27.060        73
27.070        53
27.080        80
27.090       100
27.100        80
27.110       120
27.120        33
27.130        67
27.140        53
27.150        73
27.160        87
27.170        93
27.180        73
27.190        80
27.200        60
27.210        80
27.220        47
27.230       113
27.240        47
27.250        40
27.260        87
27.270        60
27.280        40
27.290        87
27.300        80
27.310        47
27.320        80
27.330        73
27.340        80
27.350        87
27.360        67
27.370        47
27.380        53
27.390        87
27.400        73
27.410        87
27.420        87
27.430        53
27.440       113
27.450        87
27.460        60
27.470        93
27.480        60
27.490       100
27.500        67
27.510       113
27.520        87
27.530       107
27.540        67
27.550       140
27.560       120
27.570        80
27.580        87
27.590        80
27.600       113
27.610        53
27.620        73
27.630        60
27.640        87
27.650        93
27.660        47
27.670       133
27.680        73
27.690        93
27.700        73
27.710       100
27.720        73
27.730       120
27.740        53
27.750        80
27.760       100
27.770        60
27.780        87
27.790       107
27.800       113
27.810        73
27.820        60
27.830        67
27.840        67
27.850        67
27.860        60
27.870       113
27.880       140
27.890        60
27.900       113
27.910        73
27.920        80
27.930        93
27.940        87
27.950       100
27.960        80
27.970       107
27.980       107
27.990       107
28.000        27
28.010       100
28.020       113
28.030        73
28.040        67
28.050        93
28.060        67
28.070        80
28.080        67
28.090       107
28.100        93
28.110        60
28.120        60
28.130        67
28.140       133
28.150        67
28.160        73
28.170        93
28.180        80
28.190       153
28.200        60
28.210        93
28.220       120
28.230        67
28.240        93
28.250        73
28.260        67
28.270        93
28.280       120
28.290       133
28.300        73
28.310        47
28.320        67
28.330        73
28.340       100
28.350        93
28.360        40
28.370        87
28.380        47
28.390        80
28.400        40
28.410        40
28.420        80
28.430        60
28.440        60
28.450        47
28.460        60
28.470        73
28.480        80
28.490        73
28.500        73
28.510       107
28.520        53
28.530       100
28.540        73
28.550        67
28.560        67
28.570        87
28.580       100
28.590        47
28.600        73
28.610        40
28.620        80
28.630        80
28.640        73
28.650        87
28.660        53
28.670        67
28.680       113
28.690        53
28.700        60
28.710        53
28.720       100
28.730        60
28.740        73
28.750        87
28.760        73
28.770        87
28.780       107
28.790       107
28.800        93
28.810        33
28.820        80
28.830        27
28.840        73
28.850       127
28.860       113
28.870       113
28.880        87
28.890        80
28.900       113
28.910        80
28.920        87
28.930        53
28.940        47
28.950        80
28.960        67
28.970        87
28.980        60
28.990        53
29.000        80
29.010        60
29.020        73
29.030        47
29.040        73
29.050        53
29.060        73
29.070        53
29.080       113
29.090        87
29.100        73
29.110       127
29.120        87
29.130       120
29.140       113
29.150        53
29.160       100
29.170        73
29.180        53
29.190        80
29.200        40
29.210       100
29.220        73
29.230        80
29.240       113
29.250        67
29.260       133
29.270        93
29.280        80
29.290        93
29.300        53
29.310        40
29.320        60
29.330       133
29.340        67
29.350       107
29.360        67
29.370        67
29.380        80
29.390        67
29.400        60
29.410        67
29.420        93
29.430        87
29.440        47
29.450        87
29.460        93
29.470        47
29.480        87
29.490        67
29.500        73
29.510       120
29.520        27
29.530        47
29.540        40
29.550        80
29.560       113
29.570        73
29.580       107
29.590        87
29.600        73
29.610        67
29.620        40
29.630       107
29.640        47
29.650        47
29.660        60
29.670       100
29.680        67
29.690        80
29.700       120
29.710        73
29.720        93
29.730        60
29.740        60
29.750        93
29.760        53
29.770        27
29.780        47
29.790        80
29.800       127
29.810        73
29.820       127
29.830        87
29.840        73
29.850       100
29.860        47
29.870        60
29.880       100
29.890        73
29.900       107
29.910       107
29.920        73
29.930        80
29.940        53
29.950        67
29.960        60
29.970       107
29.980        53
29.990        87
30.000        73
30.010        87
30.020        80
30.030        80
30.040        47
30.050        80
30.060        93
30.070       107
30.080        27
30.090        53
30.100        67
30.110        87
30.120        20
30.130        73
30.140        93
30.150       100
30.160        67
30.170        60
30.180        67
30.190        60
30.200       100
30.210       100
30.220        53
30.230       120
30.240        67
30.250        67
30.260        93
30.270       107
30.280        73
30.290        73
30.300        87
30.310        60
30.320       100
30.330        87
30.340        60
30.350       120
30.360        80
30.370        73
30.380        87
30.390        80
30.400       113
30.410        60
30.420        60
30.430        80
30.440        73
30.450        73
30.460        87
30.470        93
30.480        47
30.490        73
30.500        73
30.510        40
30.520        80
30.530       100
30.540        73
30.550        80
30.560        67
30.570        27
30.580        73
30.590        73
30.600       100
30.610        47
30.620        80
30.630       107
30.640        73
30.650        47
30.660        67
30.670        53
30.680        33
30.690        87
30.700        53
30.710        93
30.720        47
30.730        47
30.740        67
30.750        53
30.760        80
30.770        73
30.780        67
30.790       113
30.800        60
30.810        47
30.820        60
30.830        40
30.840       100
30.850        47
30.860        47
30.870        47
30.880        80
30.890        73
30.900        60
30.910        67
30.920        47
30.930        60
30.940        40
30.950        93
30.960        33
30.970        80
30.980        93
30.990        80
31.000        67
31.010        67
31.020        87
31.030        67
31.040        53
31.050       133
31.060        73
31.070        33
31.080        93
31.090        87
31.100        87
31.110       107
31.120        53
31.130        80
31.140        87
31.150        60
31.160        93
31.170        80
31.180        53
31.190       173
31.200       100
31.210        53
31.220        93
31.230        73
31.240       100
31.250        53
31.260       107
31.270        80
31.280        73
31.290        80
31.300        33
31.310       160
31.320        87
31.330        67
31.340        33
31.350        93
31.360       120
31.370        73
31.380        73
31.390       100
31.400        73
31.410        93
31.420        93
31.430       113
31.440        60
31.450       173
31.460       160
31.470       160
31.480       120
31.490       107
31.500       113
31.510       180
31.520       133
31.530       133
31.540       187
31.550       160
31.560       153
31.570       113
31.580       227
31.590       207
31.600       180
31.610       167
31.620       247
31.630       227
31.640       180
31.650       287
31.660       280
31.670       213
31.680       240
31.690       253
31.700       247
31.710       253
31.720       240
31.730       240
31.740       253
31.750       213
31.760       153
31.770       160
31.780       173
31.790       180
31.800       127
31.810       107
31.820        93
31.830       100
31.840        80
31.850       100
31.860        67
31.870        93
31.880        67
31.890        93
31.900       113
31.910       107
31.920       120
31.930        60
31.940       120
31.950       113
31.960        47
31.970        73
31.980        67
31.990       100
32.000        67
32.010        93
32.020        87
32.030       120
32.040        33
32.050        67
32.060        67
32.070        33
32.080        93
32.090        53
32.100        73
32.110        93
32.120        93
32.130        87
32.140        47
32.150        60
32.160        53
32.170        87
32.180        60
32.190        53
32.200        60
32.210        87
32.220        93
32.230        73
32.240        80
32.250        67
32.260        73
32.270        80
32.280       120
32.290        53
32.300        80
32.310        87
32.320        80
32.330        93
32.340        93
32.350        80
32.360        47
32.370        40
32.380        93
32.390        47
32.400        67
32.410        53
32.420        67
32.430       107
32.440        67
32.450        60
32.460        93
32.470        33
32.480        67
32.490        60
32.500        80
32.510        73
32.520       107
32.530       147
32.540        67
32.550        87
32.560        60
32.570       107
32.580        87
32.590        67
32.600        87
32.610        80
32.620        87
32.630        93
32.640        67
32.650        33
32.660        73
32.670        60
32.680        53
32.690        53
32.700        47
32.710        73
32.720        40
32.730        67
32.740        47
32.750        73
32.760        67
32.770        47
32.780        27
32.790       120
32.800        67
32.810        73
32.820        73
32.830        60
32.840        93
32.850       100
32.860        53
32.870        60
32.880        93
32.890        40
32.900        87
32.910        93
32.920        60
32.930        47
32.940        33
32.950        47
32.960        73
32.970       100
32.980        80
32.990        80
33.000        40
33.010        67
33.020        53
33.030        40
33.040        67
33.050        40
33.060        87
33.070        73
33.080        93
33.090        67
33.100        87
33.110        40
33.120        20
33.130        73
33.140        53
33.150        60
33.160        67
33.170        60
33.180       113
33.190        60
33.200        53
33.210        67
33.220        73
33.230        60
33.240        47
33.250        87
33.260        93
33.270        87
33.280        53
33.290        60
33.300        93
33.310        33
33.320        60
33.330        60
33.340        40
33.350        47
33.360        60
33.370        87
33.380        67
33.390        33
33.400        53
33.410        60
33.420        33
33.430        87
33.440        47
33.450        73
33.460        60
33.470        20
33.480        73
33.490        93
33.500        60
33.510        53
33.520        53
33.530        40
33.540        67
33.550        73
33.560        53
33.570        67
33.580        60
33.590        47
33.600        60
33.610        60
33.620        47
33.630        47
33.640        80
33.650        47
33.660        73
33.670        67
33.680        87
33.690        53
33.700        27
33.710        67
33.720        27
33.730        73
33.740        53
33.750        33
33.760        53
33.770        67
33.780        60
33.790        40
33.800        87
33.810        20
33.820        40
33.830        73
33.840        53
33.850       100
33.860       100
33.870        60
33.880        47
33.890        47
33.900        60
33.910        73
33.920        87
33.930        80
33.940        67
33.950        47
33.960        47
33.970        60
33.980        53
33.990        47
34.000        93
34.010        53
34.020        40
34.030        73
34.040        27
34.050        47
34.060        60
34.070        47
34.080        40
34.090        40
34.100        80
34.110        60
34.120        33
34.130        73
34.140        47
34.150        73
34.160       113
34.170        60
34.180        53
34.190        40
34.200        73
34.210        33
34.220        80
34.230        53
34.240        73
34.250        67
34.260        60
34.270        53
34.280        80
34.290        93
34.300        53
34.310        60
34.320        53
34.330        47
34.340        53
34.350        47
34.360        53
34.370        47
34.380        80
34.390        93
34.400        53
34.410        20
34.420        20
34.430        93
34.440        53
34.450        27
34.460        53
34.470        93
34.480        60
34.490        47
34.500        47
34.510        67
34.520        47
34.530        33
34.540        73
34.550        60
34.560        40
34.570         7
34.580        33
34.590        27
34.600        27
34.610        40
34.620        87
34.630        27
34.640        73
34.650        60
34.660        47
34.670        27
34.680        60
34.690        53
34.700        47
34.710        87
34.720        27
34.730        40
34.740        53
34.750        20
34.760        33
34.770        33
34.780        87
34.790        60
34.800        40
34.810        60
34.820        73
34.830        67
34.840        53
34.850        67
34.860        53
34.870        67
34.880       100
34.890        53
34.900        60
34.910        47
34.920        60
34.930        47
34.940        47
34.950        53
34.960        67
34.970        60
34.980        60
34.990        67
35.000        60
35.010        47
35.020        33
35.030        47
35.040        33
35.050        47
35.060        40
35.070        93
35.080        33
35.090        73
35.100        40
35.110        53
35.120        47
35.130        40
35.140        93
35.150        47
35.160        67
35.170        53
35.180        60
35.190        40
35.200        67
35.210        60
35.220        20
35.230        80
35.240        60
35.250        47
35.260        67
35.270        67
35.280        33
35.290        67
35.300        33
35.310        60
35.320        33
35.330        53
35.340        60
35.350        40
35.360        53
35.370        40
35.380        27
35.390        73
35.400        47
35.410        67
35.420        40
35.430        33
35.440        13
35.450        40
35.460        53
35.470        27
35.480        47
35.490        40
35.500        53
35.510        40
35.520        20
35.530        60
35.540        47
35.550        40
35.560        53
35.570        47
35.580        80
35.590        27
35.600        67
35.610        33
35.620        20
35.630        47
35.640        53
35.650        47
35.660        47
35.670        93
35.680        13
35.690        20
35.700        47
35.710        47
35.720        33
35.730        53
35.740        40
35.750        67
35.760        33
35.770       100
35.780        47
35.790        33
35.800        47
35.810        60
35.820        47
35.830        93
35.840        47
35.850        40
35.860        47
35.870        87
35.880        60
35.890        67
35.900       100
35.910        27
35.920        60
35.930        40
35.940        73
35.950        67
35.960        53
35.970        53
35.980        53
35.990        40
36.000        87
36.010        60
36.020        53
36.030        93
36.040        40
36.050        87
36.060        53
36.070        40
36.080        53
36.090        33
36.100        60
36.110        93
36.120        40
36.130        33
36.140        20
36.150        47
36.160        80
36.170        60
36.180        80
36.190        73
36.200        40
36.210        67
36.220        60
36.230        53
36.240        27
36.250        67
36.260        47
36.270        60
36.280        60
36.290        40
36.300        60
36.310        40
36.320        47
36.330        47
36.340        40
36.350        53
36.360        33
36.370        20
36.380        60
36.390        20
36.400        73
36.410        47
36.420        47
36.430        80
36.440        80
36.450        40
36.460        67
36.470        40
36.480        27
36.490        87
36.500        60
36.510        33
36.520        93
36.530        27
36.540        80
36.550        67
36.560        73
36.570        53
36.580        73
36.590        27
36.600        73
36.610        47
36.620        60
36.630        53
36.640        60
36.650       100
36.660        80
36.670        73
36.680       107
36.690        40
36.700        27
36.710        67
36.720        33
36.730        47
36.740        67
36.750        40
36.760        87
36.770        67
36.780        93
36.790        47
36.800        60
36.810       107
36.820        73
36.830       100
36.840       100
36.850        67
36.860       100
36.870        93
36.880        60
36.890       113
36.900        93
36.910       107
36.920        80
36.930        80
36.940       107
36.950       133
36.960        87
36.970       100
36.980        60
36.990        73
37.000        40
37.010        67
37.020        47
37.030        93
37.040        60
37.050        73
37.060        80
37.070        60
37.080        87
37.090       107
37.100        87
37.110        93
37.120        60
37.130        53
37.140        47
37.150        67
37.160         7
37.170        60
37.180        80
37.190        53
37.200        80
37.210        60
37.220        47
37.230        40
37.240        93
37.250        67
37.260        40
37.270        40
37.280        47
37.290        93
37.300        20
37.310        47
37.320        33
37.330        40
37.340        53
37.350        20
37.360        53
37.370        27
37.380        40
37.390        27
37.400        73
37.410        47
37.420        40
37.430        27
37.440        47
37.450        47
37.460        33
37.470        33
37.480        40
37.490        53
37.500        40
37.510        53
37.520        47
37.530        27
37.540        40
37.550        47
37.560        47
37.570        27
37.580        27
37.590        20
37.600        27
37.610        13
37.620        27
37.630        47
37.640        27
37.650        53
37.660        47
37.670        33
37.680        27
37.690        13
37.700        47
37.710        47
37.720        27
37.730        67
37.740        33
37.750        67
37.760        27
37.770        40
37.780        47
37.790        33
37.800        80
37.810        53
37.820        47
37.830        40
37.840        27
37.850        40
37.860        53
37.870        53
37.880        40
37.890        27
37.900        67
37.910        47
37.920        60
37.930        47
37.940        40
37.950        20
37.960        40
37.970        60
37.980        73
37.990        47
38.000        93
38.010        40
38.020        20
38.030        33
38.040        40
38.050        33
38.060        40
38.070        33
38.080        67
38.090        47
38.100        20
38.110        53
38.120        80
38.130        27
38.140        20
38.150        33
38.160        47
38.170        40
38.180        47
38.190        27
38.200        13
38.210        67
38.220        40
38.230        33
38.240        53
38.250        47
38.260        33
38.270        13
38.280        40
38.290        33
38.300        27
38.310        33
38.320        60
38.330        40
38.340        40
38.350        20
38.360        40
38.370        20
38.380        60
38.390        40
38.400        40
38.410        27
38.420        47
38.430        33
38.440        33
38.450        13
38.460        60
38.470        47
38.480        20
38.490        47
38.500        53
38.510        53
38.520        60
38.530        47
38.540        60
38.550        33
38.560        73
38.570        67
38.580        47
38.590        40
38.600        60
38.610        80
38.620        33
38.630        47
38.640        53
38.650        53
38.660        53
38.670        67
38.680        53
38.690        73
38.700        87
38.710        53
38.720        73
38.730        93
38.740        40
38.750        47
38.760        87
38.770       127
38.780        47
38.790       113
38.800        73
38.810        80
38.820        33
38.830       113
38.840        80
38.850        87
38.860       120
38.870       113
38.880       113
38.890       140
38.900       127
38.910       120
38.920       140
38.930       127
38.940       120
38.950       107
38.960       227
38.970       213
38.980       127
38.990       240
39.000       153
39.010       167
39.020       107
39.030       220
39.040       173
39.050       160
39.060       127
39.070       120
39.080       140
39.090       120
39.100       113
39.110       113
39.120       107
39.130        73
39.140        73
39.150       133
39.160        53
39.170        80
39.180       100
39.190        47
39.200        60
39.210        60
39.220        80
39.230        47
39.240        73
39.250        33
39.260        47
39.270        47
39.280        60
39.290        53
39.300        60
39.310        20
39.320        40
39.330        67
39.340        53
39.350        47
39.360        53
39.370        33
39.380        40
39.390        13
39.400        40
39.410        40
39.420        87
39.430        40
39.440        40
39.450        53
39.460        47
39.470        60
39.480        53
39.490        47
39.500        73
39.510        47
39.520        13
39.530        40
39.540        47
39.550        73
39.560        60
39.570        60
39.580        87
39.590        80
39.600       140
39.610        93
39.620       173
39.630       120
39.640       133
39.650       193
39.660       180
39.670       147
39.680       207
39.690       220
39.700       353
39.710       327
39.720       300
39.730       413
39.740       373
39.750       426
39.760       593
39.770       713
39.780       813
39.790       860
39.800       893
39.810      1166
39.820      1166
39.830      1253
39.840      1359
39.850      1433
39.860      1433
39.870      1333
39.880      1513
39.890      1140
39.900      1020
39.910      1153
39.920      1040
39.930      1126
39.940       880
39.950       853
39.960       693
39.970       673
39.980       593
39.990       673
40.000       573
40.010       533
40.020       373
40.030       407
40.040       273
40.050       227
40.060       153
40.070       120
40.080       147
40.090       167
40.100        80
40.110        73
40.120       120
40.130       100
40.140        40
40.150       127
40.160        93
40.170        60
40.180        87
40.190        47
40.200        73
40.210        47
40.220        53
40.230        80
40.240        53
40.250        93
40.260        47
40.270        80
40.280        47
40.290        53
40.300        40
40.310        73
40.320        40
40.330        33
40.340        47
40.350        67
40.360        40
40.370        47
40.380        67
40.390        47
40.400        13
40.410        87
40.420        53
40.430        27
40.440        47
40.450        20
40.460        47
40.470        33
40.480        53
40.490        20
40.500       107
40.510        60
40.520        80
40.530        20
40.540        40
40.550        13
40.560        47
40.570        20
40.580        40
40.590        20
40.600        33
40.610        60
40.620        33
40.630         7
40.640        33
40.650        73
40.660        33
40.670        27
40.680        20
40.690        40
40.700        40
40.710        20
40.720        47
40.730         0
40.740        87
40.750        47
40.760        40
40.770        40
40.780        40
40.790        33
40.800        53
40.810        20
40.820        20
40.830        33
40.840        73
40.850        33
40.860        13
40.870        40
40.880        60
40.890        60
40.900        40
40.910        47
40.920        53
40.930        73
40.940        20
40.950        53
40.960        27
40.970        27
40.980        40
40.990         7
41.000        40
41.010        60
41.020        40
41.030        60
41.040        40
41.050        33
41.060        47
41.070        40
41.080        73
41.090        40
41.100        47
41.110        80
41.120        47
41.130        27
41.140        20
41.150        27
41.160        47
41.170        53
41.180        40
41.190        47
41.200        13
41.210        27
41.220        33
41.230        27
41.240         7
41.250        53
41.260        33
41.270        27
41.280        33
41.290        27
41.300        40
41.310        27
41.320        40
41.330        33
41.340        33
41.350        40
41.360        40
41.370        33
41.380        47
41.390        53
41.400        40
41.410        33
41.420        33
41.430        33
41.440        20
41.450        40
41.460        40
41.470        27
41.480        47
41.490        40
41.500        33
41.510        40
41.520        33
41.530        27
41.540        13
41.550        27
41.560        33
41.570        27
41.580        33
41.590        27
41.600        47
41.610         0
41.620        27
41.630        40
41.640        27
41.650        53
41.660        33
41.670        33
41.680        33
41.690        33
41.700        33
41.710        27
41.720        27
41.730        13
41.740        40
41.750        40
41.760        33
41.770        13
41.780        33
41.790        67
41.800        47
41.810        40
41.820        53
41.830        47
41.840        20
41.850        27
41.860        40
41.870        40
41.880        47
41.890        60
41.900        33
41.910        33
41.920        47
41.930        13
41.940        20
41.950        20
41.960        33
41.970         0
41.980        33
41.990        53
42.000        27
42.010        40
42.020        47
42.030        47
42.040         7
42.050        20
42.060        20
42.070        40
42.080        27
42.090        20
42.100        33
42.110        27
42.120        33
42.130        33
42.140        53
42.150        20
42.160        27
42.170        20
42.180        20
42.190        53
42.200        13
42.210        13
42.220        20
42.230        20
42.240        60
42.250        53
42.260        60
42.270        27
42.280        33
42.290        33
42.300        20
42.310        20
42.320        27
42.330        40
42.340        20
42.350        47
42.360        27
42.370        20
42.380        20
42.390        27
42.400        13
42.410        53
42.420        40
42.430        20
42.440        27
42.450        60
42.460        20
42.470        27
42.480        27
42.490        20
42.500         7
42.510        60
42.520        20
42.530        47
42.540        47
42.550        20
42.560        27
42.570        40
42.580        27
42.590        47
42.600         7
42.610        47
42.620        40
42.630        27
42.640        20
42.650        40
42.660        47
42.670        33
42.680        40
42.690        40
42.700        20
42.710        33
42.720        40
42.730        27
42.740        40
42.750        53
42.760        20
42.770        13
42.780        40
42.790        20
42.800        67
42.810        27
42.820        27
42.830        33
42.840        27
42.850        27
42.860        40
42.870        20
42.880        40
42.890        60
42.900        47
42.910        33
42.920        20
42.930        27
42.940        27
42.950        53
42.960        27
42.970        13
42.980        27
42.990        13
43.000        13
43.010        33
43.020        33
43.030        20
43.040        33
43.050        27
43.060         0
43.070        13
43.080         0
43.090        40
43.100         0
43.110        47
43.120        27
43.130        33
43.140        20
43.150        40
43.160         7
43.170        53
43.180        47
43.190        27
43.200        47
43.210        33
43.220        47
43.230        33
43.240        27
43.250        33
43.260        40
43.270        27
43.280        27
43.290        20
43.300        47
43.310        27
43.320        27
43.330        33
43.340        13
43.350        27
43.360        27
43.370        20
43.380        27
43.390        60
43.400        13
43.410        20
43.420        80
43.430        40
43.440        27
43.450        27
43.460        33
43.470        33
43.480        27
43.490        20
43.500        33
43.510        33
43.520        27
43.530        20
43.540        20
43.550        27
43.560        40
43.570        13
43.580         7
43.590        27
43.600        40
43.610        40
43.620        40
43.630        33
43.640        53
43.650        33
43.660        13
43.670        33
43.680        20
43.690        33
43.700         0
43.710        33
43.720        53
43.730        27
43.740        20
43.750        40
43.760        33
43.770        40
43.780        47
43.790        47
43.800        33
43.810        47
43.820        20
43.830        40
43.840        40
43.850        47
43.860        27
43.870         7
43.880        20
43.890         7
43.900        33
43.910        20
43.920        27
43.930        47
43.940        27
43.950        20
43.960        27
43.970        20
43.980        40
43.990         7
44.000        13
44.010        40
44.020        40
44.030        27
44.040        33
44.050        40
44.060        40
44.070        40
44.080        20
44.090        53
44.100        40
44.110         7
44.120        53
44.130        27
44.140        60
44.150        67
44.160        20
44.170        40
44.180        13
44.190        40
44.200        33
44.210        27
44.220        27
44.230        40
44.240        20
44.250        53
44.260        20
44.270        47
44.280        40
44.290        27
44.300        60
44.310        27
44.320        27
44.330        27
44.340        20
44.350        47
44.360        13
44.370        20
44.380        27
44.390        40
44.400        20
44.410        47
44.420         7
44.430        40
44.440        33
44.450        33
44.460        47
44.470        20
44.480        33
44.490        20
44.500        33
44.510        33
44.520        60
44.530        33
44.540        60
44.550        13
44.560        33
44.570        33
44.580        40
44.590        40
44.600        60
44.610        13
44.620        27
44.630        40
44.640        20
44.650        27
44.660        13
44.670        27
44.680        20
44.690        20
44.700        20
44.710        33
44.720        47
44.730        27
44.740        73
44.750        20
44.760        53
44.770        20
44.780        27
44.790        47
44.800        27
44.810        20
44.820        27
44.830        40
44.840        47
44.850        33
44.860        33
44.870        33
44.880        33
44.890        27
44.900        40
44.910        33
44.920        60
44.930        47
44.940        33
44.950        47
44.960        40
44.970        27
44.980        60
44.990        33
45.000        47
45.010        33
45.020        47
45.030        27
45.040        67
45.050        33
45.060        47
45.070        60
45.080        33
45.090        47
45.100        93
45.110        60
45.120        53
45.130        20
45.140        93
45.150        60
45.160        60
45.170        73
45.180        47
45.190        93
45.200        73
45.210       100
45.220        60
45.230        73
45.240        60
45.250       120
45.260       113
45.270        80
45.280       127
45.290       140
45.300        87
45.310       153
45.320       113
45.330       140
45.340       113
45.350       100
45.360       127
45.370       160
45.380       127
45.390       153
45.400       140
45.410       113
45.420       147
45.430       153
45.440       107
45.450       187
45.460       240
45.470       167
45.480       233
45.490       207
45.500       240
45.510       260
45.520       240
45.530       153
45.540       180
45.550       180
45.560       133
45.570       120
45.580       187
45.590       147
45.600       120
45.610        80
45.620       133
45.630       107
45.640       147
45.650        87
45.660       133
45.670        60
45.680       127
45.690        80
45.700        87
45.710        87
45.720        67
45.730        60
45.740        53
45.750        60
45.760        53
45.770        20
45.780        33
45.790        27
45.800        47
45.810        67
45.820        13
45.830        47
45.840        60
45.850        33
45.860        20
45.870        47
45.880        47
45.890        20
45.900        67
45.910        40
45.920        33
45.930        33
45.940        47
45.950        47
45.960        40
45.970        27
45.980        27
45.990        53
46.000        60
46.010        27
46.020        53
46.030        40
46.040        67
46.050        53
46.060        40
46.070        80
46.080        40
46.090        67
46.100        93
46.110        87
46.120        27
46.130        73
46.140        93
46.150        60
46.160        93
46.170       113
46.180       100
46.190       120
46.200       140
46.210       147
46.220       193
46.230       207
46.240       167
46.250       213
46.260       160
46.270       227
46.280       273
46.290       207
46.300       233
46.310       313
46.320       267
46.330       213
46.340       273
46.350       227
46.360       233
46.370       160
46.380       233
46.390       193
46.400       227
46.410       180
46.420       220
46.430       140
46.440       173
46.450       167
46.460       180
46.470        87
46.480       127
46.490        80
46.500       100
46.510       107
46.520        53
46.530       100
46.540        60
46.550        73
46.560        33
46.570        80
46.580        47
46.590        13
46.600        60
46.610        27
46.620        20
46.630        73
46.640        53
46.650        47
46.660        40
46.670        13
46.680        27
46.690        27
46.700        33
46.710        33
46.720        40
46.730        33
46.740        33
46.750        40
46.760        20
46.770        67
46.780        53
46.790        53
46.800        27
46.810        33
46.820        47
46.830        60
46.840        53
46.850        33
46.860        73
46.870        67
46.880        27
46.890        60
46.900        53
46.910        60
46.920        47
46.930        73
46.940        27
46.950        67
46.960        47
46.970        33
46.980        40
46.990        67
47.000        53
47.010        60
47.020        47
47.030        67
47.040        67
47.050        60
47.060       100
47.070       107
47.080        73
47.090        67
47.100       113
47.110        60
47.120       120
47.130       100
47.140        67
47.150       133
47.160       173
47.170       220
47.180       293
47.190       380
47.200       493
47.210       586
47.220       833
47.230       893
47.240       740
47.250       720
47.260       673
47.270       473
47.280       347
47.290       253
47.300       213
47.310       120
47.320       120
47.330        93
47.340        93
47.350        73
47.360        73
47.370        87
47.380        73
47.390        53
47.400        80
47.410        60
47.420        27
47.430        40
47.440       107
47.450        73
47.460        73
47.470        73
47.480        33
47.490        67
47.500        60
47.510        40
47.520        33
47.530        47
47.540        93
47.550        47
47.560        60
47.570        60
47.580        47
47.590        53
47.600        40
47.610        53
47.620        73
47.630        40
47.640        20
47.650        53
47.660        80
47.670        73
47.680        53
47.690        20
47.700        47
47.710        47
47.720        20
47.730        40
47.740        33
47.750        27
47.760        27
47.770        47
47.780        73
47.790        53
47.800        27
47.810        20
47.820        47
47.830        47
47.840        33
47.850        20
47.860        27
47.870        40
47.880        40
47.890        40
47.900        53
47.910        60
47.920        47
47.930        27
47.940        53
47.950        13
47.960        20
47.970        27
47.980        27
47.990        20
48.000        33
48.010        20
48.020        27
48.030        33
48.040        20
48.050        53
48.060        67
48.070         7
48.080        27
48.090        13
48.100        53
48.110        40
48.120        20
48.130        20
48.140        33
48.150        40
48.160        40
48.170        27
48.180        13
48.190        53
48.200         7
48.210        27
48.220        33
48.230        40
48.240        60
48.250        47
48.260        27
48.270        27
48.280        40
48.290        40
48.300        60
48.310        47
48.320        47
48.330        13
48.340        27
48.350        40
48.360        20
48.370        33
48.380        20
48.390        27
48.400        33
48.410        47
48.420        40
48.430        47
48.440         0
48.450        67
48.460        33
48.470        20
48.480        27
48.490        20
48.500        40
48.510        47
48.520        33
48.530        47
48.540        33
48.550        20
48.560        13
48.570        33
48.580        20
48.590        27
48.600         0
48.610        33
48.620        27
48.630        20
48.640        33
48.650        40
48.660        27
48.670        27
48.680        13
48.690        40
48.700        20
48.710        53
48.720        33
48.730        53
48.740        47
48.750        20
48.760        20
48.770        33
48.780        27
48.790         7
48.800        20
48.810        13
48.820         7
48.830        20
48.840        33
48.850        47
48.860        60
48.870        33
48.880        47
48.890        53
48.900        20
48.910        40
48.920        47
48.930        20
48.940        40
48.950         7
48.960        33
48.970        13
48.980        33
48.990        47
49.000        33
49.010        20
49.020        13
49.030        33
49.040        27
49.050        40
49.060        60
49.070        40
49.080        33
49.090        33
49.100         7
49.110        53
49.120        20
49.130         7
49.140        40
49.150        13
49.160        33
49.170        40
49.180        47
49.190        73
49.200         7
49.210        27
49.220        40
49.230        27
49.240        27
49.250        27
49.260        20
49.270        33
49.280        20
49.290        20
49.300        27
49.310        47
49.320        20
49.330        40
49.340        27
49.350        33
49.360        33
49.370        47
49.380        27
49.390        27
49.400        13
49.410        20
49.420        40
49.430        40
49.440        53
49.450        13
49.460        20
49.470        40
49.480        27
49.490        53
49.500        40
49.510        33
49.520        13
49.530        33
49.540        40
49.550        27
49.560        40
49.570        20
49.580         7
49.590        40
49.600        13
49.610        33
49.620        40
49.630         7
49.640        27
49.650        47
49.660        13
49.670        13
49.680        27
49.690        53
49.700        67
49.710        20
49.720        20
49.730        20
49.740        27
49.750        33
49.760        60
49.770        47
49.780        33
49.790        67
49.800        40
49.810        20
49.820        20
49.830        20
49.840        33
49.850        13
49.860        13
49.870        27
49.880        40
49.890        33
49.900        33
49.910        27
49.920        20
49.930        33
49.940        13
49.950        20
49.960        20
49.970        27
49.980         7
49.990        53
50.000         7
50.010         7
50.020        40
50.030        27
50.040        27
50.050        20
50.060        47
50.070        13
50.080         7
50.090        13
50.100        40
50.110        40
50.120        60
50.130        40
50.140        20
50.150        13
50.160        33
50.170        33
50.180        27
50.190        27
50.200        40
50.210        33
50.220        27
50.230        53
50.240        20
50.250        13
50.260        13
50.270        40
50.280        60
50.290        40
50.300        47
50.310        33
50.320        47
50.330        33
50.340        20
50.350        20
50.360        20
50.370        20
50.380        27
50.390        20
50.400        20
50.410        33
50.420        20
50.430        13
50.440        53
50.450        27
50.460        47
50.470        20
50.480        33
50.490        20
50.500        53
50.510        13
50.520        33
50.530        73
50.540        40
50.550        53
50.560        27
50.570        40
50.580        53
50.590        20
50.600        40
50.610        47
50.620        20
50.630        67
50.640        53
50.650       147
50.660        53
50.670        40
50.680       107
50.690       133
50.700       100
50.710       140
50.720       120
50.730       160
50.740       200
50.750       133
50.760       227
50.770       187
50.780       153
50.790       140
50.800       140
50.810       247
50.820       127
50.830       193
50.840       127
50.850       153
50.860       180
50.870       207
50.880       173
50.890       160
50.900       213
50.910       220
50.920       133
50.930       173
50.940       120
50.950       213
50.960       173
50.970       120
50.980       220
50.990       160
51.000       173
51.010       187
51.020       187
51.030       180
51.040       173
51.050       227
51.060       193
51.070       227
51.080       180
51.090       180
51.100       180
51.110       193
51.120       247
51.130       260
51.140       200
51.150       260
51.160       167
51.170       153
51.180       207
51.190       147
51.200       200
51.210       180
51.220       193
51.230       180
51.240       187
51.250       200
51.260       200
51.270       227
51.280       280
51.290       240
51.300       193
51.310       153
51.320       227
51.330       180
51.340        87
51.350       133
51.360       267
51.370       207
51.380       227
51.390       153
51.400       260
51.410       187
51.420       187
51.430       167
51.440       220
51.450       160
51.460       160
51.470       193
51.480       227
51.490       160
51.500       260
51.510       260
51.520       167
51.530       167
51.540       220
51.550       140
51.560       213
51.570       227
51.580       173
51.590       193
51.600       187
51.610       240
51.620       173
51.630       173
51.640       193
51.650       200
51.660       227
51.670       220
51.680       167
51.690       273
51.700       240
51.710       253
51.720       200
51.730       227
51.740       193
51.750       227
51.760       153
51.770       213
51.780       213
51.790       260
51.800       227
51.810       180
51.820       220
51.830       227
51.840       227
51.850       160
51.860       253
51.870       247
51.880       287
51.890       207
51.900       200
51.910       293
51.920       173
51.930       187
51.940       207
51.950       220
51.960       200
51.970       300
51.980       240
51.990       227
52.000       253
52.010       247
52.020       247
52.030       247
52.040       220
52.050       280
52.060       267
52.070       340
52.080       260
52.090       327
52.100       300
52.110       320
52.120       327
52.130       340
52.140       260
52.150       260
52.160       387
52.170       360
52.180       387
52.190       400
52.200       367
52.210       353
52.220       433
52.230       533
52.240       407
52.250       473
52.260       486
52.270       506
52.280       613
52.290       573
52.300       653
52.310       933
52.320      1146
52.330      1166
52.340      1486
52.350      1619
52.360      2006
52.370      2366
52.380      2686
52.390      2879
52.400      3332
52.410      3585
52.420      3645
52.430      4125
52.440      3852
52.450      4045
52.460      4278
52.470      4618
52.480      4838
52.490      4785
52.500      5065
52.510      5778
52.520      6151
52.530      7477
52.540      8690
52.550     11495
52.560     15267
52.570     23404
52.580     35832
52.590     52232
52.600     66540
52.610     78635
52.620     84460
52.630     86592
52.640     81974
52.650     72671
52.660     57930
52.670     40391
52.680     27129
52.690     18846
52.700     16000
52.710     16907
52.720     21458
52.730     28642
52.740     35766
52.750     41210
52.760     45982
52.770     45595
52.780     43056
52.790     37818
52.800     29128
52.810     20239
52.820     13175
52.830      8397
52.840      5365
52.850      3625
52.860      2706
52.870      2399
52.880      1966
52.890      1673
52.900      1499
52.910      1200
52.920      1319
52.930      1193
52.940       893
52.950       800
52.960       786
52.970       680
52.980       713
52.990       646
53.000       666
53.010       693
53.020       606
53.030       606
53.040       506
53.050       433
53.060       560
53.070       420
53.080       413
53.090       400
53.100       407
53.110       460
53.120       333
53.130       440
53.140       340
53.150       233
53.160       320
53.170       293
53.180       393
53.190       327
53.200       380
53.210       340
53.220       360
53.230       320
53.240       280
53.250       340
53.260       207
53.270       360
53.280       300
53.290       273
53.300       247
53.310       347
53.320       273
53.330       293
53.340       220
53.350       267
53.360       233
53.370       280
53.380       260
53.390       307
53.400       260
53.410       273
53.420       253
53.430       173
53.440       193
53.450       253
53.460       207
53.470       200
53.480       220
53.490       227
53.500       227
53.510       160
53.520       180
53.530       220
53.540       227
53.550       240
53.560       267
53.570       207
53.580       220
53.590       187
53.600       233
53.610       187
53.620       240
53.630       153
53.640       193
53.650       207
53.660       220
53.670       233
53.680       167
53.690       180
53.700       227
53.710       193
53.720       153
53.730       207
53.740       140
53.750       153
53.760       167
53.770       193
53.780       253
53.790       173
53.800       213
53.810       147
53.820       187
53.830       160
53.840       180
53.850       180
53.860       213
53.870       167
53.880       180
53.890       140
53.900       180
53.910       180
53.920       140
53.930       153
53.940       160
53.950       173
53.960       200
53.970       147
53.980       107
53.990       147
54.000       100
54.010       187
54.020       140
54.030       147
54.040       120
54.050       160
54.060       147
54.070       187
54.080       153
54.090       173
54.100       127
54.110       180
54.120       187
54.130       140
54.140        87
54.150       193
54.160       140
54.170       193
54.180       160
54.190       180
54.200       107
54.210       147
54.220       133
54.230       107
54.240       173
54.250       113
54.260       140
54.270       120
54.280       127
54.290       240
54.300       107
54.310       113
54.320       120
54.330       173
54.340       147
54.350       107
54.360       140
54.370       127
54.380       120
54.390       213
54.400       120
54.410       120
54.420       160
54.430       100
54.440       140
54.450        73
54.460       153
54.470       107
54.480        87
54.490       127
54.500       140
54.510       140
54.520        93
54.530       133
54.540       120
54.550        93
54.560       167
54.570       107
54.580       120
54.590       220
54.600       120
54.610        93
54.620       140
54.630       133
54.640       153
54.650       100
54.660       160
54.670       200
54.680       113
54.690       173
54.700       120
54.710       133
54.720       127
54.730       120
54.740        67
54.750       167
54.760        93
54.770        93
54.780       140
54.790        93
54.800       133
54.810       127
54.820       113
54.830       120
54.840       127
54.850       153
54.860        87
54.870       120
54.880        93
54.890       107
54.900       180
54.910       127
54.920       173
54.930       127
54.940       147
54.950        93
54.960       180
54.970       180
54.980       147
54.990       120
55.000       120
55.010       147
55.020       127
55.030       107
55.040       120
55.050        87
55.060        87
55.070       120
55.080        80
55.090       113
55.100       153
55.110       100
55.120        87
55.130       120
55.140       133
55.150        93
55.160        73
55.170       127
55.180        60
55.190       140
55.200       107
55.210       133
55.220       140
55.230        60
55.240        80
55.250        87
55.260       173
55.270        87
55.280        93
55.290        87
55.300       153
55.310       167
55.320        73
55.330        60
55.340        93
55.350       100
55.360        80
55.370       127
55.380        67
55.390       140
55.400       113
55.410       160
55.420        93
55.430       147
55.440       147
55.450       140
55.460       113
55.470        87
55.480       160
55.490       127
55.500       120
55.510        87
55.520       107
55.530       127
55.540       107
55.550        80
55.560       113
55.570       120
55.580       100
55.590       107
55.600        93
55.610       120
55.620       140
55.630        87
55.640        87
55.650       107
55.660       120
55.670        93
55.680       100
55.690        73
55.700       107
55.710        80
55.720        93
55.730        73
55.740        93
55.750        93
55.760       100
55.770       113
55.780       133
55.790       107
55.800       133
55.810        93
55.820        80
55.830        47
55.840        80
55.850       120
55.860       127
55.870       113
55.880       100
55.890       140
55.900        87
55.910        87
55.920       127
55.930       133
55.940       140
55.950        93
55.960        53
55.970       113
55.980       107
55.990       113
56.000       100
56.010       120
56.020        93
56.030        87
56.040        53
56.050        93
56.060       107
56.070       127
56.080        67
56.090       167
56.100       113
56.110       107
56.120       107
56.130        93
56.140       133
56.150       100
56.160       127
56.170       113
56.180       187
56.190        80
56.200       147
56.210       113
56.220       133
56.230       120
56.240       153
56.250       160
56.260        93
56.270        60
56.280       160
56.290       147
56.300       147
56.310       140
56.320       107
56.330       140
56.340       107
56.350       173
56.360        73
56.370       140
56.380       160
56.390       133
56.400        93
56.410       147
56.420       147
56.430       173
56.440       200
56.450       187
56.460       140
56.470       200
56.480       167
56.490       187
56.500       127
56.510       100
56.520       133
56.530       127
56.540       107
56.550       133
56.560       133
56.570        93
56.580       160
56.590       107
56.600       140
56.610       147
56.620       100
56.630       120
56.640       187
56.650       127
56.660        87
56.670        73
56.680        60
56.690       113
56.700       100
56.710        80
56.720       153
56.730        93
56.740       127
56.750        87
56.760        67
56.770        87
56.780       120
56.790        73
56.800        53
56.810       120
56.820        80
56.830       127
56.840       107
56.850        60
56.860       133
56.870        53
56.880        93
56.890        60
56.900        67
56.910        80
56.920        80
56.930       140
56.940       100
56.950       147
56.960       113
56.970       113
56.980        60
56.990        80
57.000        53
57.010        93
57.020        67
57.030        87
57.040       127
57.050       107
57.060        40
57.070        73
57.080       127
57.090        60
57.100       107
57.110        53
57.120        67
57.130       107
57.140        67
57.150       147
57.160        40
57.170        60
57.180        80
57.190        60
57.200       133
57.210       100
57.220        93
57.230        73
57.240       113
57.250       100
57.260        73
57.270        93
57.280        87
57.290        93
57.300        80
57.310       107
57.320        27
57.330        60
57.340        87
57.350       113
57.360        60
57.370       133
57.380        93
57.390        47
57.400       113
57.410        60
57.420        87
57.430        53
57.440       120
57.450       113
57.460        67
57.470       100
57.480        93
57.490        47
57.500        73
57.510        73
57.520        60
57.530        93
57.540       100
57.550        73
57.560        60
57.570        87
57.580        53
57.590       107
57.600       113
57.610        60
57.620        60
57.630        73
57.640        40
57.650        67
57.660       140
57.670       107
57.680        53
57.690        87
57.700       120
57.710        80
57.720        73
57.730        80
57.740        93
57.750        53
57.760        67
57.770        73
57.780        60
57.790       100
57.800        40
57.810        60
57.820        53
57.830        40
57.840       107
57.850        73
57.860        80
57.870        80
57.880        67
57.890       107
57.900        80
57.910        87
57.920        33
57.930        33
57.940        73
57.950        73
57.960        60
57.970        60
57.980        73
57.990        80
58.000        73
58.010        87
58.020        93
58.030        73
58.040        73
58.050       107
58.060       113
58.070        87
58.080        60
58.090        47
58.100        47
58.110        67
58.120        60
58.130        53
58.140        80
58.150        60
58.160        40
58.170        67
58.180        53
58.190        67
58.200        80
58.210        53
58.220       107
58.230        60
58.240        80
58.250        40
58.260        47
58.270        40
58.280        80
58.290        33
58.300        87
58.310        67
58.320        80
58.330        73
58.340        67
58.350        60
58.360        67
58.370        67
58.380        80
58.390       100
58.400        73
58.410       100
58.420        73
58.430        67
58.440       100
58.450        87
58.460        80
58.470       107
58.480       100
58.490        93
58.500       100
58.510        67
58.520        53
58.530        73
58.540        53
58.550        27
58.560        87
58.570        80
58.580       100
58.590        60
58.600        67
58.610       100
58.620        73
58.630        60
58.640        80
58.650        87
58.660        33
58.670        60
58.680        80
58.690        87
58.700        60
58.710       127
58.720        80
58.730        73
58.740        80
58.750        67
58.760        80
58.770        73
58.780       113
58.790        67
58.800       100
58.810        80
58.820        87
58.830        33
58.840        53
58.850        33
58.860        93
58.870        87
58.880        60
58.890        33
58.900        20
58.910        47
58.920        80
58.930        53
58.940        93
58.950        73
58.960        80
58.970        87
58.980        47
58.990        40
59.000        60
59.010        53
59.020        53
59.030        33
59.040       100
59.050        40
59.060        53
59.070        47
59.080        67
59.090        40
59.100        73
59.110        93
59.120        67
59.130        67
59.140        80
59.150        60
59.160        67
59.170        47
59.180        80
59.190        73
59.200        73
59.210        13
59.220        80
59.230        67
59.240        67
59.250        80
59.260        47
59.270        80
59.280        80
59.290        60
59.300        53
59.310        80
59.320        73
59.330       107
59.340        27
59.350        53
59.360        60
59.370        47
59.380        53
59.390        53
59.400        80
59.410        93
59.420        60
59.430        33
59.440        93
59.450        73
59.460        67
59.470        53
59.480        87
59.490        27
59.500        87
59.510        73
59.520        33
59.530        27
59.540        40
59.550        53
59.560        60
59.570        60
59.580        47
59.590        80
59.600        53
59.610       113
59.620        60
59.630        53
59.640        47
59.650        53
59.660        40
59.670        40
59.680        60
59.690        40
59.700        27
59.710        67
59.720        33
59.730        67
59.740       100
59.750        67
59.760        27
59.770        40
59.780        47
59.790        60
59.800        33
59.810        60
59.820        53
59.830        47
59.840        60
59.850        60
59.860        73
59.870       107
59.880        60
59.890        80
59.900        53
59.910        67
59.920        67
59.930        40
59.940        40
59.950        47
59.960        60
59.970        40
59.980        33
59.990        27
60.000        60
