20.000        40
20.010        67
20.020        40
20.030        33
20.040        33
20.050        73
20.060        40
20.070        33
20.080        80
20.090        53
20.100        33
20.110        33
20.120        93
20.130        47
20.140        40
20.150        67
20.160        13
20.170        53
20.180        47
20.190        67
20.200        33
20.210        73
20.220        13
20.230        47
20.240        13
20.250        27
20.260        40
20.270        33
20.280        60
20.290        20
20.300        80
20.310       100
20.320        40
20.330        53
20.340        20
20.350        40
20.360        60
20.370        33
20.380        33
20.390        20
20.400        40
20.410        27
20.420        93
20.430        33
20.440        33
20.450        53
20.460        33
20.470        20
20.480        73
20.490        47
20.500        40
20.510        60
20.520        67
20.530        60
20.540        20
20.550        33
20.560        13
20.570        40
20.580        60
20.590        27
20.600        53
20.610        40
20.620        47
20.630        73
20.640        20
20.650        33
20.660         7
20.670        47
20.680        67
20.690        53
20.700        53
20.710        20
20.720        27
20.730        20
20.740        53
20.750        53
20.760        40
20.770        67
20.780        40
20.790        67
20.800        47
20.810        27
20.820        40
20.830        87
20.840        40
20.850        13
20.860        53
20.870        33
20.880        53
20.890        73
20.900        53
20.910        53
20.920        40
20.930        27
20.940        60
20.950        27
20.960        33
20.970        47
20.980        53
20.990        47
21.000        33
21.010        20
21.020        47
21.030        33
21.040        60
21.050        67
21.060        40
21.070        47
21.080        67
21.090        53
21.100        73
21.110        67
21.120        33
21.130        20
21.140        53
21.150        47
21.160        27
21.170        20
21.180        60
21.190        20
21.200        47
21.210        20
21.220        47
21.230        27
21.240        47
21.250        53
21.260        40
21.270        60
21.280        40
21.290        73
21.300        53
21.310        47
21.320        47
21.330        33
21.340        40
21.350        67
21.360        33
21.370        40
21.380        60
21.390        60
21.400        20
21.410        73
21.420        60
21.430        53
21.440        33
21.450        20
21.460        20
21.470        40
21.480        33
21.490        53
21.500        47
21.510        47
21.520        33
21.530        53
21.540        47
21.550        47
21.560        40
21.570        33
21.580        47
21.590        27
21.600        40
21.610        40
21.620        40
21.630        80
21.640        60
21.650        47
21.660        33
21.670        60
21.680        33
21.690        87
21.700        53
21.710        67
21.720        47
21.730        47
21.740        73
21.750        47
21.760        67
21.770        93
21.780        53
21.790        53
21.800        73
21.810        47
21.820        80
21.830       100
21.840        53
21.850        80
21.860        47
21.870        40
21.880        87
21.890        60
21.900        73
21.910        47
21.920       107
21.930        73
21.940        87
21.950       107
21.960       133
21.970        93
21.980        73
21.990       127
22.000       153
22.010        93
22.020       107
22.030       100
22.040        73
22.050        67
22.060       100
22.070        73
22.080        60
22.090        60
22.100        67
22.110        33
22.120        40
22.130        87
22.140        73
22.150        60
22.160        40
22.170        40
22.180        47
22.190        73
22.200        47
22.210        73
22.220        40
22.230        40
22.240        33
22.250        27
22.260        53
22.270        73
22.280        53
22.290        20
22.300        53
22.310        93
22.320        60
22.330        47
22.340        67
22.350        40
22.360        47
22.370        47
22.380        27
22.390        80
22.400        47
22.410        73
22.420         7
22.430        20
22.440        13
22.450        60
22.460        13
22.470        20
22.480        67
22.490        20
22.500        40
22.510        33
22.520        33
22.530        33
22.540        47
22.550        60
22.560        73
22.570        53
22.580        53
22.590        73
22.600        67
22.610        53
22.620        53
22.630        27
22.640        33
22.650        53
22.660        53
22.670        60
22.680        60
22.690        60
22.700        40
22.710        73
22.720        20
22.730        73
22.740        47
22.750        80
22.760        73
22.770        53
22.780        93
22.790        53
22.800        73
22.810        33
22.820        47
22.830        73
22.840        60
22.850        53
22.860        73
22.870        60
22.880        40
22.890        27
22.900        33
22.910        60
22.920        33
22.930       107
22.940        53
22.950        40
22.960        80
22.970        73
22.980       100
22.990       100
23.000       133
23.010        67
23.020       100
23.030        33
23.040        27
23.050        53
23.060        67
23.070        67
23.080        53
23.090        47
23.100        60
23.110        20
23.120        20
23.130        40
23.140        33
23.150        40
23.160        47
23.170       113
23.180        27
23.190        53
23.200        73
23.210        73
23.220        47
23.230        27
23.240        47
23.250        47
23.260        53
23.270        40
23.280        47
23.290        60
23.300        53
23.310        53
23.320        80
23.330        60
23.340        20
23.350        47
23.360        53
23.370        53
23.380        67
23.390        47
23.400        60
23.410        53
23.420        87
23.430        33
23.440        27
23.450        47
23.460        40
23.470        73
23.480        73
23.490        47
23.500        73
23.510        67
23.520        33
23.530        53
23.540        33
23.550        27
23.560        47
23.570        73
23.580        47
23.590        33
23.600        53
23.610        80
23.620        40
23.630        60
23.640        80
23.650        67
23.660        73
23.670        53
23.680        53
23.690        93
23.700        33
23.710        67
23.720        73
23.730        67
23.740        47
23.750        53
23.760        53
23.770        33
23.780        67
23.790        60
23.800        60
23.810        67
23.820        87
23.830        53
23.840        47
23.850       100
23.860        27
23.870        67
23.880        67
23.890        67
23.900        53
23.910        40
23.920        67
23.930        87
23.940        27
23.950        47
23.960        80
23.970        47
23.980        47
23.990        33
24.000        67
24.010       100
24.020        93
24.030        33
24.040        40
24.050        60
24.060        53
24.070        73
24.080        60
24.090        47
24.100        53
24.110        67
24.120        27
24.130        73
24.140        67
24.150        60
24.160        33
24.170        93
24.180       100
24.190        80
24.200        87
24.210        33
24.220        33
24.230        73
24.240        47
24.250        40
24.260        73
24.270        33
24.280        93
24.290        80
24.300        40
24.310        47
24.320        53
24.330        73
24.340        47
24.350        47
24.360       120
24.370        40
24.380        73
24.390        33
24.400        53
24.410        93
24.420        47
24.430        53
24.440        60
24.450        20
24.460        53
24.470        73
24.480        87
24.490        87
24.500       100
24.510        60
24.520        73
24.530        53
24.540        60
24.550        53
24.560        60
24.570        53
24.580        47
24.590       113
24.600        47
24.610        80
24.620        87
24.630       113
24.640        67
24.650       107
24.660        87
24.670        67
24.680       107
24.690        67
24.700       133
24.710       107
24.720        93
24.730       113
24.740       147
24.750       127
24.760        87
24.770       100
24.780       127
24.790       107
24.800       113
24.810       107
24.820       113
24.830       100
24.840       120
24.850       133
24.860       120
24.870       127
24.880        53
24.890       167
24.900       100
24.910       113
24.920       153
24.930       127
24.940       107
24.950        93
24.960        73
24.970       113
24.980       113
24.990       107
25.000       133
25.010       153
25.020        53
25.030       120
25.040       107
25.050       147
25.060        67
25.070       127
25.080       140
25.090       100
25.100       167
25.110       133
25.120       147
25.130       133
25.140       133
25.150       140
25.160       200
25.170        93
25.180       167
25.190       127
25.200       187
25.210       173
25.220       133
25.230       120
25.240       140
25.250       193
25.260       147
25.270       133
25.280       173
25.290       133
25.300       193
25.310       193
25.320       200
25.330       193
25.340       220
25.350       267
25.360       367
25.370       387
25.380       373
25.390       407
25.400       327
25.410       560
25.420       573
25.430       646
25.440       806
25.450      1206
25.460      2166
25.470      3952
25.480      9416
25.490     15314
25.500     20172
25.510     20558
25.520     17873
25.530     15341
25.540     13215
25.550     13281
25.560     13421
25.570     12508
25.580     11889
25.590      8990
25.600      7484
25.610      5478
25.620      3978
25.630      3159
25.640      2186
25.650      1993
25.660      1733
25.670      1659
25.680      1479
25.690      1160
25.700      1206
25.710      1033
25.720       826
25.730       853
25.740       686
25.750       486
25.760       433
25.770       413
25.780       240
25.790       193
25.800       307
25.810       207
25.820       220
25.830       180
25.840       273
25.850       207
25.860       167
25.870       193
25.880       193
25.890       140
25.900       160
25.910       127
25.920       147
25.930        87
25.940       133
25.950       133
25.960       187
25.970       120
25.980       133
25.990       133
26.000       153
26.010       127
26.020       160
26.030       193
26.040       180
26.050       140
26.060       133
26.070       133
26.080       167
26.090       120
26.100       167
26.110        93
26.120       140
26.130       153
26.140        93
26.150       153
26.160       107
26.170       147
26.180       133
26.190       113
26.200       180
26.210       147
26.220       147
26.230       113
26.240       113
26.250        67
26.260       187
26.270       127
26.280       113
26.290       107
26.300       187
26.310       147
26.320       120
26.330       140
26.340       100
26.350       147
26.360       140
26.370       233
26.380       153
26.390       147
26.400       100
26.410       127
26.420       140
26.430       140
26.440       160
26.450       193
26.460       173
26.470       120
26.480       127
26.490       120
26.500       153
26.510       207
26.520       127
26.530       127
26.540       153
26.550       120
26.560        93
26.570       133
26.580        87
26.590       120
26.600       113
26.610       160
26.620       180
26.630       220
26.640       140
26.650       127
26.660       120
26.670       160
26.680        67
26.690       147
26.700       173
26.710       100
26.720       133
26.730       127
26.740       120
26.750       100
26.760        60
26.770       153
26.780       213
26.790        80
26.800       140
26.810       127
26.820       140
26.830       120
26.840       120
26.850       153
26.860       113
26.870       133
26.880        93
26.890       107
26.900       120
26.910        93
26.920       140
26.930        73
26.940       127
26.950       140
26.960       160
26.970       147
26.980        87
26.990       160
27.000       153
27.010       167
27.020       147
27.030       133
27.040       100
27.050       193
27.060       133
27.070        73
27.080       173
27.090       140
27.100        87
27.110        87
27.120       120
27.130       147
27.140        93
27.150       140
27.160       160
27.170       153
27.180       160
27.190       120
27.200       107
27.210       100
27.220       140
27.230       127
27.240       120
27.250        87
27.260        87
27.270       107
27.280        87
27.290       147
27.300       167
27.310        87
27.320        47
27.330       160
27.340       120
27.350       133
27.360       127
27.370       133
27.380       140
27.390        93
27.400       120
27.410        27
27.420       127
27.430       120
27.440       207
27.450        60
27.460       180
27.470       153
27.480       153
27.490       120
27.500       107
27.510       113
27.520       187
27.530       140
27.540       120
27.550       133
27.560       153
27.570       127
27.580       133
27.590       173
27.600       127
27.610        80
27.620       107
27.630       107
27.640       107
27.650       113
27.660       127
27.670       133
27.680       120
27.690        87
27.700       153
27.710       100
27.720       173
27.730        60
27.740       160
27.750       113
27.760       120
27.770       140
27.780        87
27.790       153
27.800        93
27.810       147
27.820        73
27.830        73
27.840       153
27.850        93
27.860       100
27.870       120
27.880       100
27.890       127
27.900       167
27.910       147
27.920       113
27.930       107
27.940        87
27.950       127
27.960       120
27.970       160
27.980       133
27.990       120
28.000        73
28.010        67
28.020       167
28.030        80
28.040       167
28.050        67
28.060        87
28.070        93
28.080        93
28.090        93
28.100       140
28.110       120
28.120       140
28.130       140
28.140        67
28.150       107
28.160        73
28.170       107
28.180       100
28.190       160
28.200        73
28.210        87
28.220       140
28.230       100
28.240        80
28.250       113
28.260        60
28.270        73
28.280       133
28.290        93
28.300        87
28.310       100
28.320       133
28.330       107
28.340        93
28.350        73
28.360       173
28.370       167
28.380       160
28.390        93
28.400        73
28.410       120
28.420       140
28.430       113
28.440        87
28.450       127
28.460        93
28.470       100
28.480        60
28.490       127
28.500        87
28.510        47
28.520        73
28.530       133
28.540        87
28.550        93
28.560        80
28.570        93
28.580       113
28.590        87
28.600       140
28.610       120
28.620       127
28.630        73
28.640       140
28.650       147
28.660        87
28.670       187
28.680        67
28.690        80
28.700       160
28.710       107
28.720       140
28.730        87
28.740       153
28.750        93
28.760       100
28.770       140
28.780        53
28.790       140
28.800       100
28.810       160
28.820        67
28.830       107
28.840       133
28.850        67
28.860        73
28.870       107
28.880       113
28.890       147
28.900        60
28.910        93
28.920       147
28.930       147
28.940        93
28.950        53
28.960       100
28.970        80
28.980       140
28.990       180
29.000        60
29.010       140
29.020       133
29.030       107
29.040       100
29.050        53
29.060       100
29.070       120
29.080       127
29.090        80
29.100       180
29.110       187
29.120        87
29.130       113
29.140        87
29.150       127
29.160       160
29.170        87
29.180       160
29.190       147
29.200       113
29.210       200
29.220       120
29.230        93
29.240        80
29.250        93
29.260       133
29.270       120
29.280       140
29.290       160
29.300       133
29.310       127
29.320       100
29.330       140
29.340       120
29.350       113
29.360       100
29.370        60
29.380       107
29.390       140
29.400       120
29.410       140
29.420        60
29.430        87
29.440        73
29.450       160
29.460        87
29.470       127
29.480       100
29.490       113
29.500       133
29.510        53
29.520       160
29.530        73
29.540        93
29.550       120
29.560       153
29.570        67
29.580        27
29.590        93
29.600        80
29.610       120
29.620       167
29.630       107
29.640       160
29.650        87
29.660        93
29.670       113
29.680       127
29.690        67
29.700       107
29.710       100
29.720       100
29.730        47
29.740       107
29.750        87
29.760        80
29.770       133
29.780        87
29.790       140
29.800       113
29.810        60
29.820       120
29.830       120
29.840        80
29.850        93
29.860       107
29.870       133
29.880        60
29.890        80
29.900       100
29.910       127
29.920        87
29.930       147
29.940       100
29.950        87
29.960       113
29.970        93
29.980       153
29.990       133
30.000       140
30.010        80
30.020       113
30.030       113
30.040       147
30.050       100
30.060       100
30.070        67
30.080        80
30.090        93
30.100        93
30.110        93
30.120        73
30.130        67
30.140        67
30.150       140
30.160       173
30.170       120
30.180        87
30.190       100
30.200        87
30.210        93
30.220       120
30.230        60
30.240        67
30.250        87
30.260       113
30.270        87
30.280       100
30.290        93
30.300        73
30.310        73
30.320       107
30.330       120
30.340       127
30.350        80
30.360        93
30.370       113
30.380        80
30.390        60
30.400       100
30.410        93
30.420       100
30.430        73
30.440        73
30.450        93
30.460       120
30.470        87
30.480       100
30.490       140
30.500        87
30.510       100
30.520        53
30.530        93
30.540       167
30.550       100
30.560        93
30.570        67
30.580       100
30.590        67
30.600        67
30.610       120
30.620       100
30.630       107
30.640       100
30.650       120
30.660       140
30.670        60
30.680        53
30.690        87
30.700       100
30.710       133
30.720        67
30.730        73
30.740       113
30.750       133
30.760        87
30.770       100
30.780       113
30.790       113
30.800        67
30.810        87
30.820       120
30.830        73
30.840        93
30.850        47
30.860        93
30.870        40
30.880        67
30.890       120
30.900        93
30.910        87
30.920        53
30.930        73
30.940       120
30.950        87
30.960       107
30.970        87
30.980        67
30.990       100
31.000       127
31.010       140
31.020       120
31.030       107
31.040        80
31.050       113
31.060        87
31.070        67
31.080        87
31.090       160
31.100       133
31.110       153
31.120       153
31.130       207
31.140       160
31.150       160
31.160       247
31.170       273
31.180       180
31.190       200
31.200       253
31.210       247
31.220       320
31.230       193
31.240       227
31.250       200
31.260       280
31.270       287
31.280       253
31.290       313
31.300       187
31.310       193
31.320       220
31.330       247
31.340       253
31.350        87
31.360       173
31.370       187
31.380       153
31.390       107
31.400       120
31.410       120
31.420       140
31.430       140
31.440       113
31.450       113
31.460        60
31.470        87
31.480        87
31.490       107
31.500       107
31.510        33
31.520        93
31.530       100
31.540        73
31.550        60
31.560        93
31.570        33
31.580        80
31.590        87
31.600        67
31.610        60
31.620        87
31.630        87
31.640        73
31.650        67
31.660        40
31.670        93
31.680        53
31.690       107
31.700        73
31.710        87
31.720        60
31.730        67
31.740        33
31.750        87
31.760        40
31.770        47
31.780        73
31.790        80
31.800        60
31.810       107
31.820        87
31.830        53
31.840        80
31.850        73
31.860        67
31.870        60
31.880        73
31.890        67
31.900        67
31.910        47
31.920       120
31.930        93
31.940        67
31.950       107
31.960        67
31.970        47
31.980        47
31.990       100
32.000        53
32.010        60
32.020       100
32.030        47
32.040        60
32.050        73
32.060        53
32.070        47
32.080        67
32.090        40
32.100        47
32.110        80
32.120        27
32.130        47
32.140       113
32.150        60
32.160        40
32.170        53
32.180        80
32.190        87
32.200        60
32.210        80
32.220        87
32.230        60
32.240        93
32.250        53
32.260        73
32.270        53
32.280        67
32.290        80
32.300        80
32.310        33
32.320        60
32.330        60
32.340        80
32.350       100
32.360        67
32.370        67
32.380        47
32.390        80
32.400        93
32.410        40
32.420        47
32.430        47
32.440        87
32.450        73
32.460        87
32.470        80
32.480        47
32.490        73
32.500        67
32.510        53
32.520        73
32.530        27
32.540        73
32.550        80
32.560        47
32.570        67
32.580        47
32.590        60
32.600       100
32.610        73
32.620        60
32.630        47
32.640        73
32.650        40
32.660        87
32.670        73
32.680        53
32.690        47
32.700        80
32.710        53
32.720       120
32.730        87
32.740        80
32.750        27
32.760        87
32.770        80
32.780        53
32.790        47
32.800        80
32.810        73
32.820        80
32.830        27
32.840        73
32.850        40
32.860        53
32.870        73
32.880        60
32.890       100
32.900        40
32.910        80
32.920        33
32.930        40
32.940       127
32.950        80
32.960        53
32.970        87
32.980        87
32.990        73
33.000        87
33.010        93
33.020        93
33.030        67
33.040        40
33.050        80
33.060        87
33.070        67
33.080        60
33.090        67
33.100       100
33.110        60
33.120        60
33.130        53
33.140        93
33.150        60
33.160        87
33.170        40
33.180        67
33.190       107
33.200        80
33.210       100
33.220        87
33.230        60
33.240       107
33.250        73
33.260        27
33.270        53
33.280        53
33.290        60
33.300        40
33.310        87
33.320        67
33.330        60
33.340        87
33.350        80
33.360        67
33.370       100
33.380        53
33.390        60
33.400        47
33.410        40
33.420        27
33.430        40
33.440        73
33.450        93
33.460        60
33.470       107
33.480        47
33.490        67
33.500        73
33.510        47
33.520       113
33.530        33
33.540        87
33.550        87
33.560        40
33.570        40
33.580        47
33.590        73
33.600        47
33.610        73
33.620        73
33.630        20
33.640        40
33.650        67
33.660        87
33.670        60
33.680        87
33.690        53
33.700        80
33.710        60
33.720        60
33.730        47
33.740        60
33.750        73
33.760        33
33.770        60
33.780        47
33.790        47
33.800        80
33.810        67
33.820        87
33.830        80
33.840        60
33.850        80
33.860        73
33.870        53
33.880        47
33.890       133
33.900        87
33.910        53
33.920        53
33.930        40
33.940        27
33.950        67
33.960        93
33.970        87
33.980        53
33.990        47
34.000        20
34.010        53
34.020        33
34.030        53
34.040        47
34.050        40
34.060        33
34.070        40
34.080        60
34.090        33
34.100        53
34.110        60
34.120       100
34.130        60
34.140        67
34.150        40
34.160        60
34.170        73
34.180        73
34.190        60
34.200        80
34.210        80
34.220        73
34.230        80
34.240        47
34.250        67
34.260        47
34.270        60
34.280        73
34.290        67
34.300        33
34.310        60
34.320        80
34.330        93
34.340        73
34.350        53
34.360        73
34.370        80
34.380       100
34.390       100
34.400       100
34.410        80
34.420        87
34.430        40
34.440        73
34.450       113
34.460        60
34.470        73
34.480       107
34.490        67
34.500        67
34.510        87
34.520        73
34.530        87
34.540        93
34.550        80
34.560       120
34.570        53
34.580        93
34.590        67
34.600        40
34.610        47
34.620        60
34.630        87
34.640       120
34.650        27
34.660        47
34.670        73
34.680        47
34.690        67
34.700        33
34.710        60
34.720        40
34.730        47
34.740        67
34.750        33
34.760        60
34.770        33
34.780        73
34.790        20
34.800        67
34.810        73
34.820        40
34.830        53
34.840        27
34.850        87
34.860        87
34.870        47
34.880        60
34.890        47
34.900        47
34.910        40
34.920        40
34.930        47
34.940        47
34.950        60
34.960        60
34.970        93
34.980        47
34.990       100
35.000        80
35.010        33
35.020        80
35.030        27
35.040        13
35.050        73
35.060        47
35.070        27
35.080        27
35.090        40
35.100        33
35.110        33
35.120        73
35.130        73
35.140       107
35.150        47
35.160        33
35.170        47
35.180        33
35.190        47
35.200        67
35.210        80
35.220        53
35.230        60
35.240        33
35.250        40
35.260        33
35.270        67
35.280        67
35.290        33
35.300        47
35.310        53
35.320        33
35.330        47
35.340        67
35.350        33
35.360        67
35.370        33
35.380        53
35.390        40
35.400        60
35.410        67
35.420        33
35.430        33
35.440        33
35.450        87
35.460        40
35.470        60
35.480        33
35.490        40
35.500        73
35.510        33
35.520        67
35.530        40
35.540        73
35.550        47
35.560        93
35.570        47
35.580        27
35.590        53
35.600        27
35.610        60
35.620        47
35.630        73
35.640        40
35.650        67
35.660        53
35.670        40
35.680        53
35.690        47
35.700        80
35.710        60
35.720        40
35.730        53
35.740        47
35.750        67
35.760        53
35.770        33
35.780        60
35.790        60
35.800        47
35.810        67
35.820        20
35.830       100
35.840        80
35.850        67
35.860        47
35.870        53
35.880        53
35.890        80
35.900        27
35.910        53
35.920        20
35.930        73
35.940        47
35.950        80
35.960        53
35.970        60
35.980        53
35.990        60
36.000        33
36.010        60
36.020        33
36.030        60
36.040        53
36.050        33
36.060        60
36.070        60
36.080        20
36.090        27
36.100        60
36.110        40
36.120        47
36.130        60
36.140        40
36.150        40
36.160        40
36.170        53
36.180        40
36.190        60
36.200        33
36.210        47
36.220        33
36.230        40
36.240        73
36.250        47
36.260        47
36.270        53
36.280        27
36.290        53
36.300        53
36.310        40
36.320        40
36.330        27
36.340        47
36.350        47
36.360        40
36.370        33
36.380        53
36.390        33
36.400        80
36.410        33
36.420        20
36.430        60
36.440        33
36.450        60
36.460        40
36.470        53
36.480        73
36.490        27
36.500        33
36.510        40
36.520        47
36.530        80
36.540        47
36.550        73
36.560        47
36.570        53
36.580        47
36.590        33
36.600        73
36.610        40
36.620        33
36.630        53
36.640        67
36.650        47
36.660        60
36.670        27
36.680        53
36.690        67
36.700        67
36.710        80
36.720        20
36.730        60
36.740        87
36.750        47
36.760        93
36.770        73
36.780        40
36.790        40
36.800       100
36.810        27
36.820        27
36.830        87
36.840        47
36.850        53
36.860        40
36.870        40
36.880        60
36.890        53
36.900        53
36.910        73
36.920        73
36.930        47
36.940        40
36.950       100
36.960        33
36.970        87
36.980        47
36.990        47
37.000        67
37.010        53
37.020        53
37.030        53
37.040        47
37.050        53
37.060        27
37.070        33
37.080        40
37.090        73
37.100        33
37.110        33
37.120        53
37.130        40
37.140        60
37.150        53
37.160        47
37.170        27
37.180        53
37.190        40
37.200        27
37.210        47
37.220        33
37.230        40
37.240        27
37.250        47
37.260        47
37.270        27
37.280        53
37.290        33
37.300        40
37.310        33
37.320        33
37.330        47
37.340        20
37.350        67
37.360        20
37.370         7
37.380        47
37.390        67
37.400        47
37.410        27
37.420        33
37.430        60
37.440        53
37.450        20
37.460        33
37.470        47
37.480        33
37.490        40
37.500        93
37.510        40
37.520        60
37.530        47
37.540        80
37.550        33
37.560        13
37.570        33
37.580        53
37.590        40
37.600        60
37.610        33
37.620        27
37.630        27
37.640        20
37.650        40
37.660        33
37.670        53
37.680        40
37.690        47
37.700        47
37.710        47
37.720        33
37.730        67
37.740        33
37.750        33
37.760        80
37.770        40
37.780        13
37.790        60
37.800        13
37.810        20
37.820        27
37.830        13
37.840        33
37.850        40
37.860        47
37.870        13
37.880        33
37.890        40
37.900        60
37.910        13
37.920        47
37.930        47
37.940        53
37.950        40
37.960        40
37.970        33
37.980        40
37.990        47
38.000        33
38.010        13
38.020        53
38.030        40
38.040        40
38.050        40
38.060        33
38.070        53
38.080        67
38.090        13
38.100        13
38.110        20
38.120        47
38.130        20
38.140        33
38.150        20
38.160        60
38.170        20
38.180        27
38.190        13
38.200        13
38.210        67
38.220        47
38.230        27
38.240        20
38.250        27
38.260        47
38.270        47
38.280        67
38.290        53
38.300        27
38.310        73
38.320        47
38.330        33
38.340        33
38.350        47
38.360        47
38.370        60
38.380        67
38.390        53
38.400        47
38.410        20
38.420        93
38.430        60
38.440        47
38.450        80
38.460        80
38.470        80
38.480       107
38.490        80
38.500       107
38.510        80
38.520       100
38.530        73
38.540        60
38.550       127
38.560       107
38.570        80
38.580        80
38.590        93
38.600        60
38.610       100
38.620        67
38.630       127
38.640       113
38.650        73
38.660        60
38.670       113
38.680        87
38.690       127
38.700       113
38.710       107
38.720        93
38.730        87
38.740        87
38.750        40
38.760        53
38.770        53
38.780        47
38.790        47
38.800        33
38.810        60
38.820        67
38.830        53
38.840        27
38.850        33
38.860        27
38.870        33
38.880        67
38.890        47
38.900        20
38.910        47
38.920        33
38.930        60
38.940        60
38.950        40
38.960        40
38.970        53
38.980        40
38.990        33
39.000        20
39.010        27
39.020        53
39.030        60
39.040        47
39.050        40
39.060        87
39.070        67
39.080        20
39.090        33
39.100        33
39.110        53
39.120        33
39.130        27
39.140        53
39.150        33
39.160        87
39.170        27
39.180        20
39.190        33
39.200        40
39.210        60
39.220        33
39.230        80
39.240        47
39.250        13
39.260        33
39.270        27
39.280        33
39.290        40
39.300        47
39.310        60
39.320        73
39.330        60
39.340        67
39.350        60
39.360        67
39.370        87
39.380        60
39.390        27
39.400        40
39.410        53
39.420        13
39.430        87
39.440        73
39.450        47
39.460        87
39.470        87
39.480        53
39.490       120
39.500       113
39.510        80
39.520       107
39.530       107
39.540       147
39.550       113
39.560        87
39.570       100
39.580       113
39.590       100
39.600       220
39.610       167
39.620       280
39.630       220
39.640       293
39.650       200
39.660       333
39.670       360
39.680       393
39.690       426
39.700       553
39.710       666
39.720       620
39.730       660
39.740       946
39.750      1006
39.760      1173
39.770      1120
39.780      1186
39.790      1386
39.800      1259
39.810      1133
39.820      1200
39.830      1200
39.840      1013
39.850      1220
39.860       846
39.870       826
39.880       893
39.890       893
39.900       746
39.910       666
39.920       746
39.930       606
39.940       453
39.950       466
39.960       327
39.970       347
39.980       233
39.990       233
40.000       167
40.010       173
40.020       120
40.030       140
40.040       120
40.050       100
40.060       100
40.070        87
40.080        87
40.090        73
40.100        80
40.110        67
40.120       107
40.130        67
40.140        80
40.150        87
40.160        73
40.170        33
40.180        73
40.190        53
40.200        33
40.210        67
40.220        13
40.230        13
40.240        67
40.250        60
40.260        40
40.270        47
40.280        73
40.290        40
40.300        27
40.310        47
40.320        73
40.330        27
40.340        47
40.350        53
40.360        27
40.370        27
40.380        33
40.390        73
40.400        53
40.410        40
40.420        40
40.430        73
40.440        53
40.450        33
40.460        33
40.470        53
40.480        33
40.490        47
40.500        47
40.510         7
40.520        13
40.530        13
40.540        20
40.550        27
40.560        40
40.570        47
40.580        27
40.590        27
40.600        60
40.610        47
40.620        40
40.630        33
40.640        27
40.650        47
40.660        40
40.670        60
40.680        33
40.690        27
40.700        93
40.710        20
40.720        33
40.730        27
40.740        40
40.750        33
40.760        53
40.770        20
40.780        13
40.790         7
40.800        47
40.810        20
40.820        40
40.830        33
40.840        27
40.850        33
40.860        20
40.870        27
40.880        47
40.890        27
40.900        60
40.910        13
40.920        33
40.930        20
40.940        53
40.950        33
40.960        27
40.970        13
40.980        60
40.990        40
41.000        53
41.010        13
41.020        47
41.030        40
41.040        47
41.050        40
41.060        33
41.070        47
41.080        53
41.090        53
41.100        20
41.110        47
41.120        33
41.130        40
41.140        47
41.150        47
41.160        53
41.170        20
41.180        60
41.190         7
41.200        20
41.210        53
41.220        20
41.230        47
41.240        20
41.250        33
41.260        40
41.270        33
41.280        20
41.290        40
41.300        47
41.310        53
41.320        13
41.330        53
41.340        60
41.350        33
41.360        47
41.370        53
41.380        80
41.390        40
41.400        47
41.410        47
41.420        47
41.430        27
41.440         7
41.450        27
41.460        40
41.470        27
41.480        47
41.490        47
41.500        33
41.510        40
41.520        47
41.530        20
41.540        40
41.550        60
41.560        40
41.570        87
41.580        33
41.590        53
41.600        27
41.610        33
41.620        13
41.630        33
41.640        53
41.650        20
41.660        33
41.670        47
41.680        47
41.690        20
41.700        73
41.710        33
41.720        27
41.730         7
41.740        27
41.750        20
41.760        27
41.770        27
41.780        33
41.790        33
41.800        27
41.810        33
41.820        53
41.830        53
41.840        20
41.850        47
41.860        33
41.870        27
41.880        40
41.890        60
41.900        60
41.910        47
41.920        40
41.930        33
41.940        27
41.950        40
41.960        27
41.970        27
41.980        33
41.990        27
42.000        47
42.010        60
42.020        40
42.030        13
42.040        47
42.050        60
42.060        33
42.070        47
42.080        33
42.090        33
42.100        20
42.110        33
42.120        27
42.130        40
42.140        40
42.150        20
42.160         7
42.170        40
42.180        27
42.190        13
42.200        40
42.210        53
42.220        33
42.230        33
42.240        60
42.250        40
42.260        20
42.270        20
42.280        40
42.290        60
42.300        20
42.310        20
42.320        20
42.330        33
42.340        67
42.350        33
42.360        27
42.370        40
42.380        40
42.390        60
42.400        20
42.410        13
42.420        33
42.430        33
42.440        27
42.450        20
42.460        33
42.470        33
42.480        60
42.490        40
42.500        40
42.510        60
42.520        40
42.530        20
42.540        60
42.550        47
42.560        40
42.570        33
42.580        60
42.590        40
42.600        27
42.610        33
42.620        40
42.630        47
42.640        33
42.650        67
42.660        13
42.670        80
42.680        33
42.690        33
42.700        20
42.710         7
42.720        27
42.730        33
42.740        27
42.750        33
42.760        60
42.770         7
42.780        53
42.790        27
42.800        53
42.810        20
42.820        47
42.830        20
42.840        60
42.850        53
42.860        53
42.870        60
42.880         0
42.890        60
42.900        27
42.910        27
42.920        60
42.930         7
42.940        33
42.950        27
42.960        27
42.970        33
42.980        47
42.990        53
43.000        47
43.010        27
43.020        40
43.030        40
43.040        27
43.050        20
43.060         7
43.070        33
43.080        40
43.090        53
43.100        13
43.110        27
43.120        33
43.130        40
43.140        60
43.150        27
43.160        67
43.170        20
43.180        40
43.190        60
43.200        40
43.210         7
43.220        47
43.230        40
43.240        20
43.250        47
43.260        13
43.270        20
43.280        53
43.290        53
43.300        33
43.310        40
43.320        73
43.330        20
43.340        33
43.350        47
43.360        27
43.370        27
43.380        60
43.390        20
43.400        27
43.410         7
43.420        47
43.430        27
43.440        27
43.450        40
43.460        40
43.470        47
43.480        33
43.490        20
43.500        27
43.510        33
43.520        53
43.530        40
43.540        33
43.550        33
43.560        13
43.570        33
43.580        27
43.590        13
43.600        27
43.610        40
43.620        53
43.630        67
43.640        13
43.650        33
43.660        67
43.670        27
43.680        47
43.690        20
43.700        13
43.710        20
43.720         7
43.730        33
43.740        47
43.750        33
43.760        20
43.770        47
43.780        53
43.790        47
43.800        40
43.810        33
43.820        40
43.830        20
43.840        33
43.850        40
43.860        13
43.870         7
43.880        27
43.890        20
43.900        53
43.910        47
43.920        13
43.930        27
43.940        47
43.950        33
43.960        33
43.970        33
43.980        40
43.990        33
44.000        20
44.010        60
44.020        40
44.030        33
44.040        40
44.050        53
44.060        40
44.070        27
44.080        67
44.090       100
44.100        20
44.110        20
44.120        33
44.130        20
44.140        20
44.150        33
44.160        33
44.170        27
44.180        27
44.190        13
44.200        27
44.210        40
44.220        47
44.230        20
44.240        67
44.250        47
44.260        27
44.270        20
44.280        40
44.290        27
44.300        27
44.310        33
44.320        27
44.330        20
44.340        40
44.350        27
44.360        13
44.370        53
44.380        40
44.390        33
44.400        47
44.410        13
44.420        40
44.430        20
44.440        53
44.450        40
44.460        33
44.470        47
44.480        27
44.490        13
44.500        20
44.510        27
44.520        67
44.530        27
44.540        47
44.550         7
44.560        60
44.570        27
44.580        80
44.590        73
44.600        47
44.610        20
44.620        80
44.630        27
44.640        53
44.650        47
44.660        20
44.670        40
44.680        53
44.690        47
44.700        40
44.710        80
44.720        33
44.730        40
44.740        67
44.750        47
44.760        33
44.770        27
44.780        80
44.790        40
44.800        73
44.810       113
44.820        33
44.830        87
44.840        80
44.850        60
44.860        60
44.870        67
44.880        87
44.890        67
44.900        60
44.910        47
44.920       107
44.930        93
44.940       147
44.950       100
44.960       120
44.970       153
44.980       120
44.990       100
45.000       107
45.010       153
45.020       113
45.030        93
45.040        40
45.050        67
45.060        87
45.070        53
45.080        47
45.090        87
45.100        60
45.110        87
45.120        80
45.130        60
45.140        53
45.150        53
45.160        40
45.170        67
45.180        67
45.190        13
45.200        40
45.210        40
45.220        73
45.230        40
45.240        27
45.250        53
45.260        47
45.270        40
45.280        73
45.290        80
45.300        27
45.310        40
45.320        40
45.330        67
45.340        27
45.350        60
45.360        27
45.370        73
45.380        33
45.390        53
45.400        40
45.410        13
45.420        33
45.430        20
45.440        20
45.450        20
45.460        33
45.470        53
45.480        47
45.490        60
45.500        33
45.510         7
45.520        53
45.530        40
45.540        20
45.550        27
45.560        20
45.570         7
45.580        33
45.590        53
45.600        27
45.610        40
45.620        27
45.630        53
45.640        33
45.650        60
45.660        40
45.670        27
45.680        40
45.690        27
45.700        47
45.710        53
45.720        60
45.730        13
45.740        53
45.750         7
45.760        33
45.770        33
45.780        27
45.790        27
45.800        33
45.810        27
45.820        47
45.830        47
45.840        20
45.850        27
45.860        33
45.870        27
45.880        20
45.890        13
45.900        53
45.910        53
45.920        40
45.930        27
45.940        33
45.950        53
45.960        60
45.970        20
45.980        73
45.990        13
46.000        33
46.010        73
46.020        93
46.030        67
46.040        80
46.050        40
46.060        60
46.070        53
46.080        87
46.090        80
46.100        40
46.110        73
46.120        87
46.130        53
46.140        87
46.150       107
46.160       127
46.170       153
46.180       180
46.190       153
46.200       173
46.210       200
46.220       133
46.230       173
46.240       213
46.250       233
46.260       313
46.270       187
46.280       327
46.290       280
46.300       253
46.310       340
46.320       267
46.330       220
46.340       273
46.350       300
46.360       267
46.370       227
46.380       273
46.390       200
46.400       220
46.410       127
46.420       147
46.430       160
46.440       200
46.450       127
46.460       133
46.470       133
46.480       113
46.490        93
46.500       120
46.510        87
46.520        87
46.530        80
46.540        60
46.550        53
46.560        73
46.570        67
46.580        73
46.590        67
46.600        60
46.610        20
46.620        53
46.630        53
46.640        67
46.650        67
46.660        27
46.670        47
46.680        40
46.690        60
46.700        47
46.710        53
46.720        53
46.730        53
46.740        60
46.750        33
46.760        40
46.770        40
46.780        80
46.790       100
46.800        53
46.810        73
46.820        20
46.830        67
46.840        80
46.850       100
46.860        60
46.870        53
46.880        53
46.890        67
46.900        47
46.910        60
46.920        40
46.930        47
46.940        53
46.950        47
46.960        33
46.970        67
46.980        47
46.990        40
47.000        80
47.010        53
47.020        87
47.030        40
47.040        53
47.050        47
47.060        73
47.070        53
47.080        67
47.090        93
47.100       113
47.110       160
47.120       173
47.130       233
47.140       373
47.150       420
47.160       540
47.170       686
47.180       486
47.190       520
47.200       533
47.210       327
47.220       260
47.230       173
47.240       160
47.250        87
47.260       127
47.270        87
47.280       113
47.290        73
47.300        73
47.310       100
47.320        53
47.330        80
47.340        40
47.350        27
47.360       100
47.370        60
47.380        73
47.390        73
47.400        47
47.410        60
47.420        40
47.430        87
47.440        33
47.450        53
47.460        40
47.470        53
47.480        73
47.490        47
47.500        60
47.510        60
47.520        40
47.530        33
47.540        40
47.550        47
47.560        67
47.570        47
47.580        20
47.590        47
47.600        53
47.610        20
47.620        40
47.630        67
47.640         0
47.650        67
47.660        13
47.670        67
47.680        20
47.690        47
47.700        20
47.710        67
47.720        47
47.730        47
47.740        27
47.750        93
47.760        20
47.770        40
47.780        27
47.790        27
47.800        27
47.810        33
47.820        47
47.830        60
47.840        53
47.850        40
47.860        27
47.870        27
47.880        27
47.890        47
47.900        40
47.910        13
47.920        13
47.930        27
47.940        40
47.950        27
47.960        33
47.970        53
47.980        33
47.990        60
48.000        60
48.010        33
48.020        40
48.030        33
48.040        33
48.050        47
48.060        20
48.070        27
48.080        47
48.090        33
48.100        40
48.110        33
48.120        20
48.130        27
48.140        67
48.150        60
48.160        47
48.170        53
48.180        67
48.190        33
48.200        33
48.210        80
48.220        20
48.230        33
48.240        27
48.250        27
48.260        33
48.270        33
48.280        20
48.290        47
48.300        80
48.310        33
48.320        40
48.330        47
48.340        27
48.350        40
48.360        27
48.370        47
48.380        47
48.390        40
48.400        20
48.410        67
48.420        47
48.430        13
48.440        47
48.450        47
48.460         7
48.470        27
48.480        33
48.490        33
48.500        40
48.510        47
48.520        27
48.530        47
48.540        33
48.550        33
48.560        47
48.570        33
48.580        67
48.590        27
48.600        40
48.610        33
48.620        20
48.630        33
48.640        47
48.650        67
48.660        27
48.670        40
48.680        33
48.690         7
48.700        20
48.710        20
48.720        33
48.730        13
48.740        53
48.750        27
48.760        20
48.770        47
48.780        47
48.790        20
48.800        13
48.810        20
48.820        33
48.830        47
48.840        47
48.850        13
48.860        47
48.870        13
48.880        40
48.890        33
48.900        60
48.910         7
48.920        60
48.930        20
48.940        27
48.950        47
48.960        33
48.970        27
48.980        13
48.990        33
49.000        20
49.010        47
49.020        60
49.030        47
49.040        27
49.050        47
49.060        40
49.070        27
49.080        27
49.090        40
49.100        53
49.110        20
49.120        47
49.130        27
49.140        27
49.150        33
49.160        53
49.170        27
49.180        13
49.190        33
49.200        13
49.210        53
49.220        53
49.230        33
49.240        13
49.250        27
49.260         7
49.270        53
49.280        40
49.290         7
49.300        47
49.310        20
49.320        47
49.330        33
49.340        67
49.350         7
49.360        33
49.370        67
49.380        13
49.390         0
49.400        47
49.410        47
49.420        47
49.430        13
49.440        27
49.450        40
49.460        40
49.470        20
49.480        73
49.490        27
49.500        20
49.510        40
49.520        27
49.530        40
49.540        33
49.550        33
49.560        20
49.570        53
49.580        47
49.590        20
49.600        27
49.610         0
49.620        53
49.630        20
49.640        13
49.650        53
49.660        33
49.670        47
49.680        33
49.690        27
49.700        27
49.710        33
49.720        27
49.730        40
49.740        20
49.750        47
49.760        13
49.770        53
49.780        27
49.790        53
49.800        47
49.810        60
49.820        20
49.830        33
49.840        33
49.850        33
49.860        20
49.870         7
49.880        47
49.890        53
49.900        27
49.910        13
49.920        33
49.930        13
49.940        20
49.950        40
49.960        60
49.970        53
49.980        47
49.990        40
50.000        13
50.010        27
50.020        60
50.030        27
50.040        60
50.050        40
50.060        20
50.070        40
50.080        73
50.090        40
50.100        40
50.110        13
50.120        47
50.130        47
50.140        27
50.150        20
50.160        40
50.170        33
50.180        27
50.190        20
50.200        27
50.210        13
50.220        40
50.230        67
50.240        53
50.250        40
50.260        20
50.270        73
50.280        40
50.290        33
50.300        60
50.310        27
50.320        33
50.330        27
50.340        33
50.350        33
50.360        40
50.370        47
50.380        40
50.390        40
50.400        40
50.410        27
50.420        73
50.430        33
50.440        40
50.450        27
50.460        27
50.470        53
50.480        33
50.490        27
50.500        53
50.510        13
50.520        33
50.530        40
50.540        33
50.550        40
50.560        40
50.570        53
50.580        73
50.590        80
50.600        47
50.610        40
50.620        53
50.630        60
50.640       100
50.650       133
50.660        53
50.670       107
50.680       133
50.690       100
50.700       107
50.710        73
50.720       120
50.730       133
50.740       147
50.750       147
50.760       160
50.770       107
50.780       180
50.790       140
50.800       107
50.810       133
50.820       153
50.830       180
50.840       120
50.850       153
50.860       120
50.870       153
50.880       133
50.890       120
50.900       147
50.910       167
50.920       173
50.930       167
50.940       167
50.950       153
50.960       167
50.970       193
50.980       167
50.990       153
51.000       153
51.010       180
51.020       120
51.030       113
51.040       120
51.050       173
51.060       140
51.070       193
51.080       140
51.090       173
51.100       200
51.110       187
51.120       133
51.130       113
51.140       153
51.150       140
51.160       213
51.170       140
51.180       140
51.190       100
51.200       127
51.210       173
51.220       140
51.230       100
51.240       167
51.250       193
51.260       207
51.270       133
51.280       220
51.290       167
51.300       147
51.310       120
51.320       153
51.330       133
51.340       127
51.350       160
51.360       160
51.370       127
51.380       107
51.390        93
51.400       120
51.410        87
51.420       173
51.430       160
51.440        80
51.450       113
51.460       127
51.470       167
51.480       140
51.490       127
51.500       120
51.510       133
51.520       207
51.530       167
51.540       160
51.550       133
51.560       120
51.570       247
51.580       187
51.590       173
51.600       173
51.610       193
51.620       147
51.630       133
51.640       140
51.650       153
51.660       147
51.670       167
51.680       167
51.690       180
51.700       187
51.710       160
51.720       160
51.730       213
51.740       187
51.750       173
51.760       187
51.770       147
51.780       147
51.790       187
51.800       167
51.810       180
51.820       153
51.830       153
51.840       140
51.850       140
51.860       180
51.870       207
51.880       187
51.890       187
51.900       207
51.910       200
51.920       173
51.930       147
51.940        93
51.950       187
51.960       193
51.970       113
51.980       153
51.990       220
52.000       187
52.010       220
52.020       220
52.030       160
52.040       180
52.050       247
52.060       153
52.070       220
52.080       240
52.090       233
52.100       260
52.110       180
52.120       293
52.130       300
52.140       240
52.150       253
52.160       267
52.170       353
52.180       313
52.190       240
52.200       260
52.210       347
52.220       393
52.230       387
52.240       353
52.250       387
52.260       407
52.270       520
52.280       606
52.290       780
52.300       786
52.310       746
52.320      1006
52.330      1020
52.340      1006
52.350      1173
52.360      1153
52.370      1113
52.380      1053
52.390      1046
52.400      1186
52.410      1100
52.420      1173
52.430      1613
52.440      1599
52.450      1939
52.460      2192
52.470      2632
52.480      3599
52.490      4345
52.500      5325
52.510      7270
52.520     10649
52.530     16940
52.540     28109
52.550     43196
52.560     54678
52.570     61962
52.580     64354
52.590     64561
52.600     61935
52.610     53239
52.620     40304
52.630     27116
52.640     17526
52.650     13388
52.660     12015
52.670     13468
52.680     17786
52.690     24064
52.700     31294
52.710     34826
52.720     35919
52.730     36345
52.740     33640
52.750     29002
52.760     22997
52.770     14967
52.780      9729
52.790      6411
52.800      4572
52.810      3519
52.820      3152
52.830      2752
52.840      2746
52.850      2199
52.860      2199
52.870      1819
52.880      1419
52.890      1373
52.900      1113
52.910       940
52.920       766
52.930       773
52.940       613
52.950       580
52.960       540
52.970       493
52.980       453
52.990       353
53.000       413
53.010       486
53.020       433
53.030       380
53.040       393
53.050       253
53.060       267
53.070       260
53.080       340
53.090       353
53.100       313
53.110       387
53.120       300
53.130       220
53.140       307
53.150       300
53.160       300
53.170       227
53.180       260
53.190       153
53.200       307
53.210       260
53.220       233
53.230       247
53.240       233
53.250       220
53.260       247
53.270       233
53.280       220
53.290       200
53.300       227
53.310       193
53.320       207
53.330       180
53.340       280
53.350       213
53.360       227
53.370       187
53.380       140
53.390       180
53.400       187
53.410       153
53.420       140
53.430       127
53.440       200
53.450       233
53.460       167
53.470       193
53.480       247
53.490       200
53.500       140
53.510       240
53.520       167
53.530       173
53.540       200
53.550       167
53.560       213
53.570       133
53.580       147
53.590       147
53.600       147
53.610       167
53.620       200
53.630       167
53.640       133
53.650       127
53.660       133
53.670       133
53.680       180
53.690       107
53.700       160
53.710       140
53.720       113
53.730       120
53.740       160
53.750       187
53.760       107
53.770       107
53.780       200
53.790       153
53.800       127
53.810       127
53.820       193
53.830       100
53.840       193
53.850       127
53.860        93
53.870        60
53.880       140
53.890       160
53.900       173
53.910       147
53.920       107
53.930        93
53.940       180
53.950       113
53.960       133
53.970       140
53.980       147
53.990       127
54.000       120
54.010        93
54.020        93
54.030       140
54.040        93
54.050       153
54.060       113
54.070       127
54.080       107
54.090       120
54.100       153
54.110       120
54.120       140
54.130        60
54.140       120
54.150        60
54.160       173
54.170       100
54.180       147
54.190        93
54.200       113
54.210        93
54.220       127
54.230       140
54.240       167
54.250        93
54.260       140
54.270       180
54.280       167
54.290       120
54.300       120
54.310        73
54.320       127
54.330       107
54.340       107
54.350       100
54.360       100
54.370       127
54.380       127
54.390       187
54.400       100
54.410       127
54.420       113
54.430       107
54.440        80
54.450       107
54.460        53
54.470       167
54.480       107
54.490        93
54.500       100
54.510       113
54.520       167
54.530        80
54.540       100
54.550       107
54.560        60
54.570       127
54.580       107
54.590       107
54.600       133
54.610       147
54.620        87
54.630        67
54.640        93
54.650       120
54.660        87
54.670       113
54.680       180
54.690        87
54.700        80
54.710       160
54.720       120
54.730       133
54.740        80
54.750       107
54.760        47
54.770        87
54.780       127
54.790        80
54.800       100
54.810       100
54.820       107
54.830        80
54.840       107
54.850       120
54.860       107
54.870       113
54.880       100
54.890        73
54.900        87
54.910       113
54.920        93
54.930       100
54.940       120
54.950       127
54.960       107
54.970        73
54.980       133
54.990       127
55.000        60
55.010       133
55.020        67
55.030        60
55.040       107
55.050       100
55.060        87
55.070        87
55.080        87
55.090        73
55.100        53
55.110        67
55.120       120
55.130       113
55.140       113
55.150       120
55.160       107
55.170       113
55.180       113
55.190       100
55.200        53
55.210        87
55.220        93
55.230       160
55.240       113
55.250        93
55.260        67
55.270        67
55.280       113
55.290        80
55.300        87
55.310        87
55.320       100
55.330        80
55.340       140
55.350        87
55.360        47
55.370        87
55.380        73
55.390       100
55.400        67
55.410       107
55.420        87
55.430       107
55.440       120
55.450        67
55.460       120
55.470       107
55.480        93
55.490       147
55.500       140
55.510        93
55.520        47
55.530        47
55.540       107
55.550       133
55.560       127
55.570       113
55.580       113
55.590        80
55.600        93
55.610       113
55.620       120
55.630        80
55.640       120
55.650       113
55.660       120
55.670       120
55.680       140
55.690        73
55.700       120
55.710       120
55.720       127
55.730       153
55.740       127
55.750       133
55.760       140
55.770       160
55.780       107
55.790        93
55.800       100
55.810       127
55.820       147
55.830        87
55.840       127
55.850       147
55.860        93
55.870       120
55.880       100
55.890       113
55.900       147
55.910       127
55.920        87
55.930       107
55.940       120
55.950        73
55.960        73
55.970        93
55.980        73
55.990        67
56.000        87
56.010       100
56.020       120
56.030        93
56.040        87
56.050        67
56.060        87
56.070        73
56.080       113
56.090        93
56.100        87
56.110        80
56.120        87
56.130       107
56.140       100
56.150        60
56.160        93
56.170        60
56.180        93
56.190       100
56.200        87
56.210        87
56.220       120
56.230        73
56.240        47
56.250        87
56.260        60
56.270       107
56.280        80
56.290       113
56.300        53
56.310        40
56.320        60
56.330        47
56.340       120
56.350        53
56.360        80
56.370        93
56.380       133
56.390        67
56.400        93
56.410        93
56.420       120
56.430        60
56.440        40
56.450        87
56.460        73
56.470       113
56.480       100
56.490        67
56.500        67
56.510        67
56.520        67
56.530        60
56.540       107
56.550       127
56.560        80
56.570        53
56.580        53
56.590       100
56.600        53
56.610       100
56.620        60
56.630        73
56.640        87
56.650       127
56.660        60
56.670        87
56.680        80
56.690       100
56.700       100
56.710        80
56.720       133
56.730        67
56.740        93
56.750        87
56.760       107
56.770        67
56.780        87
56.790       107
56.800        67
56.810        67
56.820        73
56.830       100
56.840        60
56.850       107
56.860        93
56.870        73
56.880        87
56.890        53
56.900        40
56.910        67
56.920        87
56.930       120
56.940       120
56.950        67
56.960        73
56.970       100
56.980       133
56.990        60
57.000        87
57.010        67
57.020        47
57.030        60
57.040        47
57.050        93
57.060        73
57.070        67
57.080       100
57.090        67
57.100       113
57.110        53
57.120       100
57.130       140
57.140       127
57.150        40
57.160        73
57.170       100
57.180        47
57.190        87
57.200        47
57.210        53
57.220        80
57.230        87
57.240        60
57.250        67
57.260       120
57.270        53
57.280        73
57.290        60
57.300        87
57.310        67
57.320        73
57.330       107
57.340        40
57.350        60
57.360        67
57.370        60
57.380       127
57.390        53
57.400        67
57.410        93
57.420       100
57.430        73
57.440        47
57.450        53
57.460        93
57.470        73
57.480       113
57.490        93
57.500        73
57.510        67
57.520       113
57.530        73
57.540       100
57.550       107
57.560        80
57.570        33
57.580        73
57.590        53
57.600        80
57.610        87
57.620        93
57.630        67
57.640       100
57.650        87
57.660        33
57.670        73
57.680        53
57.690        80
57.700        80
57.710        53
57.720        53
57.730        67
57.740        67
57.750        67
57.760       107
57.770        47
57.780        53
57.790        80
57.800        40
57.810        67
57.820       107
57.830        67
57.840        67
57.850        93
57.860        53
57.870        67
57.880        40
57.890        80
57.900        67
57.910        87
57.920        47
57.930        87
57.940        73
57.950       100
57.960        53
57.970        73
57.980        40
57.990        73
58.000        67
58.010        73
58.020        93
58.030       100
58.040        53
58.050        27
58.060       107
58.070        80
58.080        67
58.090        67
58.100        53
58.110        67
58.120        73
58.130        67
58.140        73
58.150        73
58.160        60
58.170       153
58.180        60
58.190        47
58.200        73
58.210        27
58.220        80
58.230        73
58.240        67
58.250        53
58.260        47
58.270        93
58.280        40
58.290        73
58.300        47
58.310        53
58.320        60
58.330        60
58.340        93
58.350        40
58.360        60
58.370        53
58.380        60
58.390        60
58.400        40
58.410        60
58.420        87
58.430        27
58.440        67
58.450        60
58.460        53
58.470        67
58.480       100
58.490        53
58.500        87
58.510        67
58.520        53
58.530        27
58.540        53
58.550        60
58.560        73
58.570        40
58.580        40
58.590        93
58.600        27
58.610        67
58.620        93
58.630        27
58.640        93
58.650        60
58.660        80
58.670        40
58.680        73
58.690        60
58.700        40
58.710       107
58.720        60
58.730        67
58.740        60
58.750        33
58.760        47
58.770        73
58.780        53
58.790       107
58.800        47
58.810        20
58.820        60
58.830        60
58.840        33
58.850        93
58.860        67
58.870        33
58.880        67
58.890        53
58.900        40
58.910        87
58.920       107
58.930        87
58.940        47
58.950        80
58.960        60
58.970        53
58.980        47
58.990        53
59.000        73
59.010        47
59.020        80
59.030        40
59.040        47
59.050        47
59.060       120
59.070        27
59.080        33
59.090        80
59.100        73
59.110       113
59.120        73
59.130        67
59.140        33
59.150        47
59.160        47
59.170        60
59.180        53
59.190        33
59.200        67
59.210        73
59.220       107
59.230        60
59.240        73
59.250        53
59.260        33
59.270        47
59.280        40
59.290        67
59.300        47
59.310        93
59.320        67
59.330        60
59.340        73
59.350        53
59.360        60
59.370        67
59.380        87
59.390        67
59.400        60
59.410        93
59.420        40
59.430        40
59.440        33
59.450        73
59.460        53
59.470        60
59.480        53
59.490        33
59.500        67
59.510        53
59.520        87
59.530        87
59.540       100
59.550        60
59.560        53
59.570        53
59.580        67
59.590        73
59.600        87
59.610        40
59.620        73
59.630        80
59.640        73
59.650        60
59.660        53
59.670        80
59.680        47
59.690        40
59.700        60
59.710        67
59.720        40
59.730        67
59.740        40
59.750       100
59.760        53
59.770        47
59.780        67
59.790        67
59.800        73
59.810        53
59.820        53
59.830        47
59.840        53
59.850        40
59.860        20
59.870        53
59.880        67
59.890        67
59.900        47
59.910        67
59.920        60
59.930        53
59.940        47
59.950        67
59.960        27
59.970        53
59.980        20
59.990        53
60.000        53
