20.000        80
20.010        47
20.020       120
20.030        53
20.040        60
20.050        40
20.060       100
20.070        73
20.080        60
20.090        87
20.100        40
20.110        73
20.120        33
20.130        13
20.140        93
20.150        47
20.160        60
20.170        60
20.180        87
20.190       127
20.200        73
20.210        87
20.220       100
20.230        80
20.240        73
20.250        73
20.260        67
20.270       120
20.280        73
20.290       100
20.300        33
20.310        60
20.320       100
20.330        73
20.340        73
20.350        93
20.360        53
20.370        80
20.380        60
20.390       107
20.400        80
20.410        53
20.420        87
20.430        67
20.440        47
20.450        67
20.460        87
20.470       107
20.480        93
20.490       100
20.500        60
20.510        60
20.520        53
20.530        73
20.540       100
20.550        93
20.560       107
20.570       113
20.580        27
20.590        87
20.600       120
20.610        53
20.620        80
20.630        93
20.640        67
20.650       120
20.660       107
20.670        60
20.680        80
20.690        67
20.700        67
20.710       100
20.720       100
20.730        67
20.740        80
20.750        73
20.760        40
20.770        47
20.780       100
20.790        53
20.800        53
20.810        67
20.820        93
20.830        80
20.840        80
20.850        80
20.860        47
20.870        67
20.880        60
20.890        53
20.900        87
20.910        60
20.920       133
20.930       100
20.940        73
20.950       107
20.960        53
20.970        93
20.980        53
20.990       100
21.000        60
21.010       107
21.020       120
21.030       100
21.040        60
21.050        80
21.060        80
21.070        80
21.080        73
21.090       100
21.100        60
21.110        67
21.120        87
21.130        60
21.140       113
21.150        93
21.160        80
21.170       120
21.180        93
21.190        73
21.200        87
21.210        73
21.220       120
21.230        93
21.240       107
21.250        80
21.260       100
21.270        73
21.280        73
21.290        93
21.300        73
21.310       113
21.320        73
21.330        80
21.340        73
21.350        93
21.360       113
21.370       107
21.380       120
21.390       100
21.400        87
21.410       100
21.420       107
21.430        73
21.440        87
21.450        60
21.460        60
21.470       100
21.480       120
21.490        93
21.500       133
21.510        67
21.520       120
21.530        93
21.540        47
21.550       127
21.560       167
21.570        73
21.580        67
21.590        53
21.600       100
21.610        80
21.620        87
21.630        87
21.640       100
21.650        67
21.660        87
21.670        80
21.680       140
21.690       147
21.700        87
21.710       120
21.720       113
21.730        47
21.740       107
21.750       127
21.760        73
21.770       127
21.780       107
21.790        93
21.800        93
21.810       173
21.820       100
21.830       140
21.840       120
21.850       153
21.860       113
21.870       147
21.880        93
21.890        93
21.900       193
21.910       133
21.920       107
21.930       160
21.940       140
21.950       173
21.960       207
21.970       153
21.980       180
21.990       180
22.000       153
22.010        93
22.020       133
22.030       187
22.040       113
22.050       120
22.060       140
22.070       140
22.080        80
22.090       120
22.100       193
22.110       120
22.120       120
22.130       113
22.140        80
22.150        80
22.160       107
22.170       107
22.180       113
22.190       140
22.200       100
22.210       133
22.220       133
22.230       120
22.240       107
22.250       113
22.260        73
22.270       140
22.280        87
22.290       133
22.300       107
22.310       113
22.320       140
22.330        93
22.340       160
22.350       140
22.360       107
22.370       147
22.380        87
22.390       133
22.400       120
22.410       147
22.420       113
22.430       133
22.440       133
22.450       133
22.460       167
22.470        80
22.480       127
22.490       140
22.500       127
22.510       113
22.520       107
22.530       140
22.540       127
22.550       113
22.560       120
22.570       193
22.580       133
22.590        73
22.600       133
22.610       140
22.620       100
22.630       120
22.640       100
22.650       113
22.660       127
22.670       127
22.680        93
22.690       120
22.700       120
22.710       133
22.720       120
22.730       200
22.740       133
22.750       173
22.760       140
22.770       147
22.780        93
22.790        60
22.800        80
22.810       140
22.820       140
22.830        80
22.840       173
22.850       100
22.860       120
22.870       120
22.880       133
22.890       113
22.900       167
22.910       147
22.920       207
22.930       113
22.940       113
22.950       120
22.960       127
22.970       107
22.980        87
22.990       160
23.000       140
23.010        93
23.020       160
23.030       140
23.040       220
23.050       327
23.060       340
23.070       353
23.080       373
23.090       533
23.100       360
23.110       373
23.120       280
23.130       267
23.140       200
23.150       200
23.160       193
23.170       153
23.180       140
23.190       180
23.200       100
23.210       140
23.220       187
23.230       127
23.240       187
23.250       107
23.260       133
23.270       140
23.280       187
23.290       127
23.300       133
23.310       127
23.320       200
23.330        93
23.340       120
23.350       107
23.360       167
23.370       187
23.380       167
23.390       140
23.400       120
23.410       147
23.420       200
23.430       180
23.440       127
23.450       133
23.460       167
23.470       107
23.480        87
23.490       127
23.500       153
23.510       200
23.520       127
23.530       147
23.540       127
23.550       200
23.560        93
23.570       173
23.580        73
23.590       173
23.600       133
23.610       173
23.620       113
23.630       160
23.640       153
23.650       140
23.660       140
23.670       140
23.680       113
23.690        93
23.700        73
23.710        67
23.720        80
23.730       140
23.740       193
23.750       127
23.760       127
23.770       113
23.780       113
23.790       127
23.800        67
23.810       173
23.820       153
23.830       153
23.840       120
23.850       133
23.860       120
23.870       113
23.880       153
23.890       147
23.900        73
23.910       173
23.920       140
23.930       127
23.940       113
23.950       160
23.960       113
23.970       120
23.980        93
23.990       147
24.000       147
24.010       113
24.020       133
24.030       200
24.040       100
24.050       140
24.060        87
24.070       107
24.080       127
24.090       160
24.100       100
24.110       133
24.120       140
24.130       120
24.140       113
24.150       147
24.160       100
24.170       107
24.180       147
24.190       113
24.200       167
24.210       140
24.220       127
24.230       107
24.240       160
24.250       147
24.260       187
24.270       127
24.280       160
24.290       120
24.300       120
24.310       133
24.320       113
24.330       147
24.340       140
24.350        93
24.360       133
24.370       127
24.380        53
24.390       153
24.400       107
24.410       120
24.420       147
24.430       120
24.440       147
24.450       160
24.460       160
24.470       107
24.480       193
24.490       193
24.500       127
24.510       167
24.520        80
24.530       120
24.540       140
24.550       140
24.560       153
24.570       107
24.580       100
24.590       120
24.600       113
24.610       153
24.620       127
24.630       153
24.640       107
24.650       120
24.660       107
24.670       147
24.680       107
24.690       140
24.700       273
24.710       127
24.720       160
24.730       173
24.740       153
24.750       193
24.760       227
24.770       233
24.780       113
24.790       193
24.800       220
24.810       180
24.820       187
24.830       273
24.840       167
24.850       187
24.860       253
24.870       207
24.880       233
24.890       180
24.900       213
24.910       193
24.920       247
24.930       173
24.940       213
24.950       120
24.960       260
24.970       253
24.980       200
24.990       213
25.000       180
25.010       173
25.020       187
25.030       233
25.040       213
25.050       193
25.060       247
25.070       247
25.080       260
25.090       173
25.100       193
25.110       207
25.120       133
25.130       220
25.140       207
25.150       247
25.160       267
25.170       240
25.180       187
25.190       193
25.200       193
25.210       213
25.220       220
25.230       187
25.240       233
25.250       220
25.260       173
25.270       220
25.280       273
25.290       220
25.300       193
25.310       267
25.320       367
25.330       367
25.340       293
25.350       273
25.360       300
25.370       433
25.380       380
25.390       380
25.400       526
25.410       673
25.420       693
25.430       726
25.440      1053
25.450      1133
25.460      1399
25.470      1186
25.480      1693
25.490      1819
25.500      1993
25.510      1966
25.520      2566
25.530      3485
25.540      5844
25.550     11715
25.560     19519
25.570     26269
25.580     30594
25.590     31174
25.600     31967
25.610     32807
25.620     32074
25.630     28682
25.640     22551
25.650     19879
25.660     18299
25.670     17360
25.680     15707
25.690     12342
25.700      8423
25.710      4818
25.720      3305
25.730      2772
25.740      2326
25.750      1953
25.760      1566
25.770      1486
25.780      1246
25.790      1020
25.800      1000
25.810       800
25.820       666
25.830       580
25.840       540
25.850       446
25.860       333
25.870       387
25.880       347
25.890       320
25.900       307
25.910       227
25.920       253
25.930       240
25.940       253
25.950       247
25.960       227
25.970       253
25.980       193
25.990       253
26.000       233
26.010       180
26.020       180
26.030       187
26.040       253
26.050       173
26.060       173
26.070       193
26.080       267
26.090       220
26.100       187
26.110       220
26.120       153
26.130       140
26.140       207
26.150       233
26.160       267
26.170       147
26.180       187
26.190       173
26.200       220
26.210       167
26.220       187
26.230       120
26.240       133
26.250       260
26.260       173
26.270       133
26.280       133
26.290       260
26.300       180
26.310       167
26.320       187
26.330       147
26.340       140
26.350       187
26.360       160
26.370       213
26.380       240
26.390       247
26.400       180
26.410       173
26.420       187
26.430       200
26.440       153
26.450       160
26.460       173
26.470       113
26.480       153
26.490       180
26.500       173
26.510       160
26.520       120
26.530       140
26.540       213
26.550       180
26.560       153
26.570       120
26.580       200
26.590       140
26.600       160
26.610       120
26.620       247
26.630       127
26.640       167
26.650       160
26.660       160
26.670       140
26.680       140
26.690       173
26.700       160
26.710       160
26.720       113
26.730       133
26.740       160
26.750       107
26.760       167
26.770       173
26.780       113
26.790       153
26.800       193
26.810       133
26.820       200
26.830       120
26.840       107
26.850       160
26.860       167
26.870       247
26.880       167
26.890       147
26.900       173
26.910       100
26.920       120
26.930       173
26.940       173
26.950       173
26.960       180
26.970       120
26.980       107
26.990       153
27.000       107
27.010       120
27.020       180
27.030       133
27.040       140
27.050       120
27.060       120
27.070        93
27.080       147
27.090       127
27.100       200
27.110       173
27.120       227
27.130       153
27.140       127
27.150       133
27.160       127
27.170       160
27.180       113
27.190       147
27.200       167
27.210       100
27.220       180
27.230       133
27.240       213
27.250       140
27.260       193
27.270       160
27.280       187
27.290       187
27.300       147
27.310       107
27.320       120
27.330       147
27.340       140
27.350       153
27.360       107
27.370       193
27.380       133
27.390       153
27.400        93
27.410       160
27.420       140
27.430       120
27.440       173
27.450       147
27.460       200
27.470        87
27.480       100
27.490       133
27.500       113
27.510       100
27.520       147
27.530       213
27.540       127
27.550       127
27.560       120
27.570       133
27.580       167
27.590       213
27.600       167
27.610       127
27.620        93
27.630        73
27.640       213
27.650       120
27.660       207
27.670       107
27.680       120
27.690        73
27.700       113
27.710       153
27.720       133
27.730       167
27.740       140
27.750       107
27.760        87
27.770        87
27.780       133
27.790       167
27.800       227
27.810       127
27.820       153
27.830        93
27.840       127
27.850       160
27.860       180
27.870       153
27.880       127
27.890       107
27.900       107
27.910        73
27.920       160
27.930       187
27.940       153
27.950       147
27.960       107
27.970       160
27.980       153
27.990       160
28.000       173
28.010        73
28.020       140
28.030       127
28.040        93
28.050       133
28.060       120
28.070       140
28.080       140
28.090       147
28.100       133
28.110       120
28.120       100
28.130       133
28.140       140
28.150       107
28.160       127
28.170       140
28.180       147
28.190        93
28.200       113
28.210       133
28.220       120
28.230       107
28.240       140
28.250       173
28.260       127
28.270       127
28.280        93
28.290       113
28.300       153
28.310       160
28.320       147
28.330       153
28.340       140
28.350       153
28.360       120
28.370       187
28.380        87
28.390       120
28.400       173
28.410       127
28.420       153
28.430       153
28.440       220
28.450       140
28.460       140
28.470       147
28.480       133
28.490       140
28.500       127
28.510       160
28.520       140
28.530       127
28.540       160
28.550        87
28.560        80
28.570       113
28.580       133
28.590       147
28.600       107
28.610       160
28.620        87
28.630       127
28.640       147
28.650        67
28.660       127
28.670       100
28.680       113
28.690        80
28.700       147
28.710       107
28.720       120
28.730       113
28.740       180
28.750       180
28.760       147
28.770       153
28.780       100
28.790       140
28.800       100
28.810        87
28.820       133
28.830       113
28.840       180
28.850       160
28.860        93
28.870       133
28.880       100
28.890       127
28.900       113
28.910       187
28.920       107
28.930       133
28.940       107
28.950       113
28.960        93
28.970       153
28.980       107
28.990        67
29.000       127
29.010       140
29.020        93
29.030        80
29.040       120
29.050       147
29.060        93
29.070        93
29.080       167
29.090       200
29.100       133
29.110       127
29.120       127
29.130       160
29.140       120
29.150       100
29.160       107
29.170       160
29.180        73
29.190        93
29.200        93
29.210       140
29.220       113
29.230       127
29.240       100
29.250       160
29.260       113
29.270       113
29.280       120
29.290       133
29.300       107
29.310        93
29.320       133
29.330        67
29.340       127
29.350       127
29.360        87
29.370       100
29.380       100
29.390        60
29.400       127
29.410       113
29.420       127
29.430        80
29.440       127
29.450       127
29.460       120
29.470        87
29.480       127
29.490       153
29.500        80
29.510       107
29.520        53
29.530       107
29.540       120
29.550        93
29.560       100
29.570       133
29.580       100
29.590        73
29.600       100
29.610       120
29.620        87
29.630       180
29.640       133
29.650        80
29.660       107
29.670       127
29.680       140
29.690       113
29.700       133
29.710        80
29.720        93
29.730       133
29.740        93
29.750       107
29.760       127
29.770       147
29.780       133
29.790       100
29.800        93
29.810        93
29.820       140
29.830        93
29.840        67
29.850       107
29.860       120
29.870       127
29.880       127
29.890       120
29.900       100
29.910       120
29.920       107
29.930        93
29.940        73
29.950       100
29.960       160
29.970       120
29.980       133
29.990        87
30.000       140
30.010        80
30.020       127
30.030       120
30.040        93
30.050       107
30.060        93
30.070       120
30.080       107
30.090        87
30.100       133
30.110        73
30.120       107
30.130       107
30.140        73
30.150        60
30.160        80
30.170        93
30.180        73
30.190       113
30.200        67
30.210       113
30.220       107
30.230        87
30.240        93
30.250       107
30.260       133
30.270        87
30.280       113
30.290       153
30.300        87
30.310        53
30.320       107
30.330       127
30.340       107
30.350       140
30.360       113
30.370       133
30.380       113
30.390        80
30.400       140
30.410       100
30.420       133
30.430        87
30.440        93
30.450        87
30.460       133
30.470        87
30.480        53
30.490       100
30.500        73
30.510        87
30.520        93
30.530       140
30.540       147
30.550        87
30.560        93
30.570       127
30.580       147
30.590       107
30.600       100
30.610       100
30.620       127
30.630        93
30.640        87
30.650        80
30.660       120
30.670        67
30.680       107
30.690        93
30.700        67
30.710        67
30.720       100
30.730       120
30.740        93
30.750       120
30.760       160
30.770       107
30.780       120
30.790       100
30.800        93
30.810        87
30.820       107
30.830        80
30.840       107
30.850        73
30.860       120
30.870       100
30.880        87
30.890       120
30.900       100
30.910        87
30.920       133
30.930        60
30.940       113
30.950       100
30.960       140
30.970       100
30.980       120
30.990        93
31.000       120
31.010       153
31.020        87
31.030       173
31.040       120
31.050       220
31.060       173
31.070       193
31.080       213
31.090       193
31.100       207
31.110       193
31.120       207
31.130       173
31.140       320
31.150       287
31.160       373
31.170       253
31.180       220
31.190       360
31.200       506
31.210       327
31.220       553
31.230       586
31.240       566
31.250       460
31.260       446
31.270       440
31.280       380
31.290       460
31.300       426
31.310       300
31.320       267
31.330       260
31.340       267
31.350       187
31.360       240
31.370       247
31.380       180
31.390       180
31.400       167
31.410       127
31.420       167
31.430       133
31.440       113
31.450       120
31.460        93
31.470        87
31.480       160
31.490       127
31.500        87
31.510       113
31.520       107
31.530        87
31.540       120
31.550       140
31.560       153
31.570       113
31.580        47
31.590       173
31.600        87
31.610        73
31.620        73
31.630        87
31.640        73
31.650        47
31.660       100
31.670       147
31.680        93
31.690        93
31.700        93
31.710        67
31.720        93
31.730        87
31.740        47
31.750        93
31.760        53
31.770        87
31.780        87
31.790        73
31.800       113
31.810       113
31.820        60
31.830       100
31.840        87
31.850       100
31.860        67
31.870        73
31.880        73
31.890        47
31.900        53
31.910        80
31.920        80
31.930        80
31.940        67
31.950        53
31.960       107
31.970       113
31.980        60
31.990        60
32.000       107
32.010        80
32.020        67
32.030        80
32.040       100
32.050        93
32.060       107
32.070        93
32.080        67
32.090        93
32.100        47
32.110        40
32.120       107
32.130        47
32.140        67
32.150        93
32.160        67
32.170        60
32.180       100
32.190       100
32.200        93
32.210       100
32.220        80
32.230        60
32.240        60
32.250        67
32.260        40
32.270        40
32.280        73
32.290        93
32.300        87
32.310        93
32.320        73
32.330        80
32.340       107
32.350        60
32.360       133
32.370        67
32.380       100
32.390        53
32.400        67
32.410        73
32.420        40
32.430       107
32.440       120
32.450        60
32.460        53
32.470       120
32.480        87
32.490        53
32.500        87
32.510        47
32.520        73
32.530        67
32.540        53
32.550       120
32.560        93
32.570        73
32.580        67
32.590        60
32.600        53
32.610        73
32.620        60
32.630        53
32.640       100
32.650        80
32.660       113
32.670        53
32.680        60
32.690        60
32.700        53
32.710        93
32.720       127
32.730       107
32.740       113
32.750       113
32.760       107
32.770       133
32.780        80
32.790       100
32.800        53
32.810       100
32.820        67
32.830        87
32.840        67
32.850        67
32.860        80
32.870        67
32.880        67
32.890        60
32.900        40
32.910        47
32.920        47
32.930        87
32.940       113
32.950        60
32.960       100
32.970       100
32.980        47
32.990        67
33.000        53
33.010        53
33.020        80
33.030        33
33.040        47
33.050        53
33.060        47
33.070        40
33.080        27
33.090        80
33.100        67
33.110        80
33.120        53
33.130        93
33.140        60
33.150        53
33.160        60
33.170        93
33.180        87
33.190        67
33.200        80
33.210        20
33.220        80
33.230        47
33.240        40
33.250        53
33.260        93
33.270        53
33.280        60
33.290        67
33.300       107
33.310        40
33.320        67
33.330        87
33.340        53
33.350        73
33.360        73
33.370        87
33.380        40
33.390        87
33.400       107
33.410        60
33.420        67
33.430        60
33.440        47
33.450       100
33.460        60
33.470        60
33.480        53
33.490        67
33.500        73
33.510        73
33.520        87
33.530        60
33.540        40
33.550        53
33.560        93
33.570        47
33.580        53
33.590        80
33.600        80
33.610        53
33.620        80
33.630        80
33.640       100
33.650       107
33.660        73
33.670        73
33.680        60
33.690        73
33.700        87
33.710        93
33.720        33
33.730        33
33.740        53
33.750        73
33.760        40
33.770        87
33.780       107
33.790        27
33.800        47
33.810        67
33.820        87
33.830        60
33.840       120
33.850        87
33.860        60
33.870        67
33.880       107
33.890        87
33.900        67
33.910        87
33.920        27
33.930        73
33.940        93
33.950        33
33.960        53
33.970        53
33.980        67
33.990        40
34.000        60
34.010        80
34.020        47
34.030        73
34.040        47
34.050        47
34.060        47
34.070       100
34.080        73
34.090        67
34.100        80
34.110        80
34.120        53
34.130        67
34.140       100
34.150        47
34.160        33
34.170        87
34.180        53
34.190        87
34.200        60
34.210        53
34.220        73
34.230        80
34.240        67
34.250       107
34.260        80
34.270        33
34.280        40
34.290        73
34.300        87
34.310        40
34.320        87
34.330        67
34.340        53
34.350        87
34.360        53
34.370        40
34.380        40
34.390        67
34.400        13
34.410        27
34.420        67
34.430        73
34.440       107
34.450        33
34.460        40
34.470       107
34.480        87
34.490        33
34.500        60
34.510        60
34.520        73
34.530        93
34.540        80
34.550        60
34.560        53
34.570        87
34.580        47
34.590        33
34.600        40
34.610        40
34.620        40
34.630        27
34.640        47
34.650        67
34.660        47
34.670        60
34.680        60
34.690        40
34.700        47
34.710        20
34.720        87
34.730        53
34.740        40
34.750        80
34.760        80
34.770       100
34.780        47
34.790        33
34.800        27
34.810        33
34.820        67
34.830        73
34.840        40
34.850        53
34.860        60
34.870        73
34.880        80
34.890        67
34.900        47
34.910        67
34.920        60
34.930        33
34.940        47
34.950        27
34.960        73
34.970        40
34.980        53
34.990        93
35.000        73
35.010        47
35.020        67
35.030        40
35.040       107
35.050        60
35.060        47
35.070        93
35.080        60
35.090        40
35.100        27
35.110        73
35.120        47
35.130        80
35.140        60
35.150        80
35.160        60
35.170        80
35.180        40
35.190        27
35.200        87
35.210        73
35.220        73
35.230        53
35.240        40
35.250        53
35.260        80
35.270        87
35.280        47
35.290        60
35.300        20
35.310        80
35.320        20
35.330        47
35.340        40
35.350        67
35.360        73
35.370        60
35.380        27
35.390        27
35.400        47
35.410        40
35.420        33
35.430        47
35.440        73
35.450        67
35.460        67
35.470        67
35.480        20
35.490        40
35.500        73
35.510        60
35.520        40
35.530        67
35.540        60
35.550        93
35.560        67
35.570        73
35.580        73
35.590        40
35.600        47
35.610        33
35.620        47
35.630        53
35.640        27
35.650        53
35.660        67
35.670        73
35.680        53
35.690        40
35.700        47
35.710        60
35.720        40
35.730        27
35.740        33
35.750        47
35.760        67
35.770        80
35.780        40
35.790        60
35.800        47
35.810        60
35.820        47
35.830        60
35.840        87
35.850        40
35.860        80
35.870        47
35.880        40
35.890        93
35.900        47
35.910        73
35.920       140
35.930        53
35.940        67
35.950        53
35.960        53
35.970        53
35.980        40
35.990        40
36.000        53
36.010       107
36.020        87
36.030        47
36.040        73
36.050        60
36.060        67
36.070        53
36.080        80
36.090        93
36.100        67
36.110        53
36.120        53
36.130        60
36.140        87
36.150        53
36.160        60
36.170        33
36.180        53
36.190        87
36.200        53
36.210        80
36.220        67
36.230        53
36.240        27
36.250        67
36.260        73
36.270        67
36.280        47
36.290        87
36.300        60
36.310        47
36.320        73
36.330        60
36.340        67
36.350        60
36.360        40
36.370        60
36.380        67
36.390        73
36.400        53
36.410        60
36.420        33
36.430        53
36.440        60
36.450        53
36.460        60
36.470        53
36.480        33
36.490        60
36.500        60
36.510       100
36.520        33
36.530        87
36.540        40
36.550        27
36.560        40
36.570        47
36.580        53
36.590        40
36.600        67
36.610        40
36.620        60
36.630        73
36.640        40
36.650        73
36.660        67
36.670        27
36.680        67
36.690        73
36.700        60
36.710        60
36.720        53
36.730        60
36.740        67
36.750        73
36.760        53
36.770        60
36.780        60
36.790        53
36.800        47
36.810        33
36.820        47
36.830        60
36.840        20
36.850        80
36.860        33
36.870        40
36.880        73
36.890        53
36.900        60
36.910        87
36.920        53
36.930        27
36.940        47
36.950        80
36.960        33
36.970        53
36.980        40
36.990        53
37.000        40
37.010        47
37.020        40
37.030        40
37.040        60
37.050        73
37.060        60
37.070        73
37.080        33
37.090        67
37.100        67
37.110        60
37.120        33
37.130        60
37.140        87
37.150        53
37.160        80
37.170        60
37.180        47
37.190        47
37.200        20
37.210        67
37.220        40
37.230        67
37.240        87
37.250        47
37.260        60
37.270        73
37.280        47
37.290        60
37.300        60
37.310       113
37.320        53
37.330        47
37.340        53
37.350        87
37.360        47
37.370        60
37.380        47
37.390        33
37.400        73
37.410        47
37.420        53
37.430        47
37.440        27
37.450        67
37.460        47
37.470        40
37.480        47
37.490        13
37.500        73
37.510        53
37.520        20
37.530        47
37.540        47
37.550        67
37.560        33
37.570        33
37.580        40
37.590        40
37.600        27
37.610        53
37.620        47
37.630        27
37.640        73
37.650        60
37.660        27
37.670        20
37.680        60
37.690        40
37.700        33
37.710        53
37.720        67
37.730        53
37.740        40
37.750        47
37.760        27
37.770        53
37.780        27
37.790        20
37.800        47
37.810        53
37.820        67
37.830        47
37.840        60
37.850        60
37.860        60
37.870        80
37.880        67
37.890        33
37.900        47
37.910        60
37.920        47
37.930        47
37.940        33
37.950        93
37.960        40
37.970        40
37.980        67
37.990        53
38.000        27
38.010        40
38.020        53
38.030        53
38.040        47
38.050        33
38.060        67
38.070        13
38.080        53
38.090        47
38.100        47
38.110        60
38.120        53
38.130        40
38.140        60
38.150        33
38.160        47
38.170        53
38.180        27
38.190        40
38.200        40
38.210        87
38.220        40
38.230        67
38.240        53
38.250        47
38.260        53
38.270        40
38.280        27
38.290        60
38.300        33
38.310        53
38.320        67
38.330        67
38.340        67
38.350        60
38.360        60
38.370        80
38.380        67
38.390        80
38.400        67
38.410        73
38.420        67
38.430        87
38.440       120
38.450       100
38.460       133
38.470       113
38.480       127
38.490       127
38.500       113
38.510       140
38.520       127
38.530        73
38.540       133
38.550       107
38.560       120
38.570       160
38.580       100
38.590       120
38.600       127
38.610        67
38.620       113
38.630        67
38.640        80
38.650        80
38.660        60
38.670        60
38.680        80
38.690        73
38.700        33
38.710        60
38.720        47
38.730        80
38.740        73
38.750        53
38.760        53
38.770        47
38.780        40
38.790        47
38.800        60
38.810        47
38.820        73
38.830        53
38.840        60
38.850        53
38.860        33
38.870        47
38.880        33
38.890        80
38.900        40
38.910        67
38.920        80
38.930        47
38.940        67
38.950        33
38.960        27
38.970        60
38.980        67
38.990        67
39.000        53
39.010        33
39.020        40
39.030        53
39.040        60
39.050        13
39.060        67
39.070        60
39.080        47
39.090        47
39.100        47
39.110        60
39.120        40
39.130        60
39.140        47
39.150        80
39.160        73
39.170        67
39.180        73
39.190        40
39.200        73
39.210        33
39.220        80
39.230        67
39.240        60
39.250        40
39.260        67
39.270        93
39.280        47
39.290        47
39.300        53
39.310        53
39.320        53
39.330        33
39.340        53
39.350        87
39.360        27
39.370        47
39.380        40
39.390        67
39.400        20
39.410        53
39.420        33
39.430        53
39.440        67
39.450        73
39.460        53
39.470        47
39.480        60
39.490        47
39.500        80
39.510        40
39.520        47
39.530        47
39.540       100
39.550        33
39.560        67
39.570        33
39.580        60
39.590        73
39.600        47
39.610       107
39.620       107
39.630       127
39.640       133
39.650       153
39.660       127
39.670       167
39.680       153
39.690       173
39.700       193
39.710       233
39.720       287
39.730       267
39.740       367
39.750       293
39.760       393
39.770       446
39.780       573
39.790       620
39.800       700
39.810       793
39.820       966
39.830       853
39.840      1006
39.850      1133
39.860       860
39.870       840
39.880       786
39.890       820
39.900       580
39.910       640
39.920       720
39.930       453
39.940       626
39.950       513
39.960       466
39.970       453
39.980       393
39.990       353
40.000       273
40.010       200
40.020       160
40.030       187
40.040       107
40.050       133
40.060        87
40.070        93
40.080       107
40.090        87
40.100       120
40.110       100
40.120        47
40.130        80
40.140        33
40.150        33
40.160        53
40.170        60
40.180        47
40.190        73
40.200        87
40.210        73
40.220        33
40.230        47
40.240        60
40.250        40
40.260        73
40.270        87
40.280        53
40.290        27
40.300        60
40.310        73
40.320        67
40.330        40
40.340        47
40.350        33
40.360        60
40.370        33
40.380        20
40.390        40
40.400        40
40.410        73
40.420        47
40.430        67
40.440        47
40.450        27
40.460        40
40.470        20
40.480        53
40.490        27
40.500        33
40.510        20
40.520        53
40.530        47
40.540        27
40.550        33
40.560        40
40.570        33
40.580        47
40.590        20
40.600        60
40.610        47
40.620        40
40.630        33
40.640        27
40.650        20
40.660        27
40.670        53
40.680        73
40.690        53
40.700        27
40.710        47
40.720        47
40.730        53
40.740         7
40.750        27
40.760        47
40.770        47
40.780        33
40.790        47
40.800        33
40.810        40
40.820        73
40.830        47
40.840        40
40.850        73
40.860        40
40.870        20
40.880        27
40.890        27
40.900        73
40.910        20
40.920        27
40.930        47
40.940        40
40.950        40
40.960        47
40.970        53
40.980        20
40.990        27
41.000        40
41.010        27
41.020        60
41.030        40
41.040        40
41.050        33
41.060        67
41.070        60
41.080        27
41.090        20
41.100        60
41.110        40
41.120        33
41.130        40
41.140        27
41.150        53
41.160        47
41.170        40
41.180        33
41.190        47
41.200        60
41.210        47
41.220        27
41.230        47
41.240        60
41.250        47
41.260        67
41.270        53
41.280         7
41.290        73
41.300        47
41.310        47
41.320        53
41.330        87
41.340        20
41.350        47
41.360        27
41.370        53
41.380        47
41.390        33
41.400        27
41.410        73
41.420        40
41.430        67
41.440        40
41.450        33
41.460        33
41.470        20
41.480        40
41.490        20
41.500        27
41.510        13
41.520        33
41.530        40
41.540        67
41.550        67
41.560        47
41.570        33
41.580        40
41.590        33
41.600        33
41.610         7
41.620        40
41.630        27
41.640        40
41.650        13
41.660        33
41.670        60
41.680        27
41.690        40
41.700        53
41.710        33
41.720        20
41.730        13
41.740        33
41.750        47
41.760        73
41.770        47
41.780         0
41.790        27
41.800        47
41.810        40
41.820        53
41.830        20
41.840        40
41.850        20
41.860        20
41.870        53
41.880        53
41.890        27
41.900        53
41.910        40
41.920        20
41.930        27
41.940        40
41.950        40
41.960        33
41.970        33
41.980        27
41.990        33
42.000        47
42.010        53
42.020        27
42.030        20
42.040        27
42.050        53
42.060        47
42.070        27
42.080        27
42.090        47
42.100        27
42.110        60
42.120        13
42.130        40
42.140        40
42.150        40
42.160        53
42.170        27
42.180        33
42.190        20
42.200        40
42.210        47
42.220        47
42.230        20
42.240        40
42.250        33
42.260        20
42.270        40
42.280        53
42.290        27
42.300        20
42.310        40
42.320        33
42.330        27
42.340        33
42.350        47
42.360        33
42.370        53
42.380        60
42.390        67
42.400        47
42.410        27
42.420        87
42.430        53
42.440        47
42.450        60
42.460        33
42.470        60
42.480        53
42.490        40
42.500        40
42.510        47
42.520        93
42.530        20
42.540        67
42.550        33
42.560        40
42.570        47
42.580        33
42.590        40
42.600        13
42.610        40
42.620        33
42.630        47
42.640        20
42.650        40
42.660        27
42.670        40
42.680        67
42.690        33
42.700        33
42.710        20
42.720        20
42.730        13
42.740        27
42.750        33
42.760        20
42.770        60
42.780        40
42.790        27
42.800        40
42.810        47
42.820        13
42.830        47
42.840        27
42.850         7
42.860        13
42.870        53
42.880        40
42.890        40
42.900        20
42.910        47
42.920        47
42.930        40
42.940        40
42.950        53
42.960        60
42.970        33
42.980        20
42.990        47
43.000        27
43.010        47
43.020        40
43.030         7
43.040        33
43.050        40
43.060        47
43.070        20
43.080        47
43.090        27
43.100        47
43.110        13
43.120        13
43.130        27
43.140        27
43.150        47
43.160        27
43.170        53
43.180        20
43.190        27
43.200        47
43.210        33
43.220        33
43.230        20
43.240        33
43.250        20
43.260        87
43.270        47
43.280        27
43.290        40
43.300        47
43.310        40
43.320        40
43.330        53
43.340        20
43.350        33
43.360        40
43.370        60
43.380        20
43.390        33
43.400        13
43.410        60
43.420        33
43.430        47
43.440        53
43.450        20
43.460        33
43.470        27
43.480        40
43.490        47
43.500        20
43.510        20
43.520        53
43.530        27
43.540        47
43.550        27
43.560        53
43.570        33
43.580        53
43.590        27
43.600        33
43.610        67
43.620         7
43.630        40
43.640        73
43.650        20
43.660        47
43.670        47
43.680        27
43.690        20
43.700        33
43.710        53
43.720        13
43.730        53
43.740        47
43.750        67
43.760        40
43.770         7
43.780        60
43.790        20
43.800        67
43.810        33
43.820        13
43.830        40
43.840        27
43.850        27
43.860        13
43.870        27
43.880        60
43.890        40
43.900        67
43.910        20
43.920         7
43.930        20
43.940        40
43.950        40
43.960        40
43.970        33
43.980        33
43.990        13
44.000        33
44.010        60
44.020        13
44.030        27
44.040        33
44.050        33
44.060        40
44.070        53
44.080        33
44.090        33
44.100        53
44.110        47
44.120        40
44.130        20
44.140        47
44.150        33
44.160        13
44.170        40
44.180        20
44.190        20
44.200        13
44.210        67
44.220        47
44.230        33
44.240        27
44.250        27
44.260        33
44.270        33
44.280        53
44.290        20
44.300        33
44.310        20
44.320        27
44.330        33
44.340        60
44.350        53
44.360        60
44.370        60
44.380        27
44.390        33
44.400        20
44.410        53
44.420        40
44.430        47
44.440        53
44.450        40
44.460        53
44.470        40
44.480        40
44.490        53
44.500        33
44.510        40
44.520        40
44.530        47
44.540        53
44.550        60
44.560        73
44.570        60
44.580        73
44.590        40
44.600        33
44.610        47
44.620        20
44.630        60
44.640        60
44.650        67
44.660        80
44.670        53
44.680        40
44.690        80
44.700        60
44.710        93
44.720        67
44.730        87
44.740       107
44.750       100
44.760       167
44.770       113
44.780       147
44.790       113
44.800        87
44.810        93
44.820        73
44.830        93
44.840        93
44.850       113
44.860       127
44.870       113
44.880       127
44.890       140
44.900       100
44.910       140
44.920       133
44.930        73
44.940        60
44.950       113
44.960       127
44.970       100
44.980       107
44.990       127
45.000        60
45.010        80
45.020        53
45.030        93
45.040       107
45.050        40
45.060        53
45.070        60
45.080        53
45.090        47
45.100        60
45.110        87
45.120        60
45.130        53
45.140        53
45.150        73
45.160        73
45.170        73
45.180        60
45.190        60
45.200        33
45.210        40
45.220        60
45.230        27
45.240        33
45.250        27
45.260        53
45.270        27
45.280        27
45.290        73
45.300        27
45.310        60
45.320        27
45.330        27
45.340        20
45.350        40
45.360        27
45.370        40
45.380        53
45.390        40
45.400        27
45.410        40
45.420        73
45.430        47
45.440        33
45.450        47
45.460        47
45.470        47
45.480        47
45.490        40
45.500        13
45.510        40
45.520        40
45.530        73
45.540        40
45.550        40
45.560        20
45.570        27
45.580        33
45.590        33
45.600        60
45.610        40
45.620        40
45.630        27
45.640        47
45.650        40
45.660        47
45.670         7
45.680        20
45.690        67
45.700        47
45.710        73
45.720         7
45.730        60
45.740        13
45.750        20
45.760        27
45.770        67
45.780        27
45.790        27
45.800        33
45.810        40
45.820        60
45.830        27
45.840        20
45.850        60
45.860        47
45.870        40
45.880        20
45.890        33
45.900        47
45.910        40
45.920        40
45.930        53
45.940        40
45.950        53
45.960        33
45.970        33
45.980        27
45.990        40
46.000        47
46.010        60
46.020        40
46.030        33
46.040        60
46.050        40
46.060        33
46.070        20
46.080        13
46.090        33
46.100        20
46.110        47
46.120        27
46.130        27
46.140        33
46.150        33
46.160        33
46.170        40
46.180        27
46.190        33
46.200        40
46.210        47
46.220        27
46.230        47
46.240        60
46.250        60
46.260        33
46.270        20
46.280        87
46.290        27
46.300        73
46.310        27
46.320        53
46.330        53
46.340        33
46.350        40
46.360        33
46.370        60
46.380        27
46.390        40
46.400        33
46.410        53
46.420        47
46.430        33
46.440        40
46.450        73
46.460        40
46.470        13
46.480        53
46.490        40
46.500        73
46.510        53
46.520        40
46.530        60
46.540        40
46.550        40
46.560        33
46.570        60
46.580        40
46.590        53
46.600        40
46.610        40
46.620        27
46.630        53
46.640        33
46.650        33
46.660        27
46.670        40
46.680        40
46.690        27
46.700        40
46.710        73
46.720        20
46.730        67
46.740        33
46.750        53
46.760        40
46.770        67
46.780        53
46.790       120
46.800        27
46.810        80
46.820        47
46.830        33
46.840        73
46.850        40
46.860       107
46.870        53
46.880        33
46.890        60
46.900        27
46.910        60
46.920        47
46.930        33
46.940        73
46.950        47
46.960        40
46.970        53
46.980        73
46.990        93
47.000        93
47.010        67
47.020       107
47.030        27
47.040        47
47.050        60
47.060        13
47.070        67
47.080       100
47.090       100
47.100        53
47.110       107
47.120       113
47.130       160
47.140       313
47.150       293
47.160       446
47.170       493
47.180       526
47.190       580
47.200       580
47.210       520
47.220       420
47.230       446
47.240       227
47.250       240
47.260       120
47.270       100
47.280       127
47.290        60
47.300        87
47.310       100
47.320       133
47.330        53
47.340       120
47.350        67
47.360        47
47.370        73
47.380       100
47.390        60
47.400        60
47.410        47
47.420        40
47.430        80
47.440        27
47.450        13
47.460        53
47.470        33
47.480        40
47.490        27
47.500        33
47.510        33
47.520        67
47.530        47
47.540        67
47.550        47
47.560        33
47.570        47
47.580        67
47.590        40
47.600        47
47.610        27
47.620        80
47.630        33
47.640        40
47.650        47
47.660        33
47.670        13
47.680        60
47.690        60
47.700        53
47.710        53
47.720        27
47.730        47
47.740        60
47.750        47
47.760        27
47.770        73
47.780        60
47.790        20
47.800        67
47.810        47
47.820        20
47.830        20
47.840        67
47.850        40
47.860        27
47.870        33
47.880        53
47.890        33
47.900        40
47.910        27
47.920        53
47.930        33
47.940        33
47.950        20
47.960        47
47.970        27
47.980        33
47.990        33
48.000        20
48.010        47
48.020        47
48.030        33
48.040        67
48.050        40
48.060        67
48.070         7
48.080        40
48.090        40
48.100        47
48.110        60
48.120        60
48.130        40
48.140        33
48.150        33
48.160        53
48.170        40
48.180        53
48.190        53
48.200        67
48.210        73
48.220        53
48.230        47
48.240        13
48.250        40
48.260        67
48.270        40
48.280        27
48.290        47
48.300        53
48.310        40
48.320        40
48.330        60
48.340        47
48.350        20
48.360        40
48.370        20
48.380        40
48.390        27
48.400        47
48.410        53
48.420        20
48.430        47
48.440        60
48.450        20
48.460         7
48.470        47
48.480        27
48.490        27
48.500        20
48.510        47
48.520        60
48.530        33
48.540        13
48.550        33
48.560        33
48.570        33
48.580        40
48.590        20
48.600        27
48.610        33
48.620        20
48.630        40
48.640        33
48.650        33
48.660        60
48.670        47
48.680        33
48.690        40
48.700        60
48.710        40
48.720        47
48.730        47
48.740        33
48.750         7
48.760        27
48.770        60
48.780        53
48.790        33
48.800        40
48.810        40
48.820        60
48.830        40
48.840        73
48.850        20
48.860        60
48.870        27
48.880        27
48.890        27
48.900        20
48.910        27
48.920        53
48.930        40
48.940        20
48.950        40
48.960        27
48.970        60
48.980        93
48.990        20
49.000        27
49.010        40
49.020        27
49.030        27
49.040        67
49.050        27
49.060        47
49.070        47
49.080        53
49.090        20
49.100        47
49.110        27
49.120        60
49.130         7
49.140        20
49.150        47
49.160        53
49.170        20
49.180        27
49.190        33
49.200        27
49.210        47
49.220        33
49.230        20
49.240        20
49.250        40
49.260        73
49.270        40
49.280        27
49.290        27
49.300        40
49.310        33
49.320        20
49.330        47
49.340        13
49.350        33
49.360        40
49.370        40
49.380        33
49.390        40
49.400        33
49.410        60
49.420        33
49.430        33
49.440        53
49.450        60
49.460        13
49.470         7
49.480        53
49.490        20
49.500         7
49.510         7
49.520        27
49.530        33
49.540        40
49.550        27
49.560        53
49.570         7
49.580        40
49.590        20
49.600         7
49.610         0
49.620        13
49.630        47
49.640         7
49.650        40
49.660        27
49.670        20
49.680        33
49.690        27
49.700        13
49.710        20
49.720        27
49.730        33
49.740        33
49.750        33
49.760        33
49.770        27
49.780         7
49.790        20
49.800        53
49.810        67
49.820        33
49.830        53
49.840        27
49.850        33
49.860        47
49.870        33
49.880        40
49.890        53
49.900        27
49.910        40
49.920        47
49.930        67
49.940        47
49.950        87
49.960         7
49.970        27
49.980        20
49.990        13
50.000        53
50.010        60
50.020        33
50.030        33
50.040        47
50.050        60
50.060        20
50.070        20
50.080        47
50.090        47
50.100        20
50.110        40
50.120        53
50.130        20
50.140        20
50.150        27
50.160        20
50.170        60
50.180        27
50.190        40
50.200        47
50.210        40
50.220        67
50.230        20
50.240        27
50.250        20
50.260        67
50.270        40
50.280        33
50.290        13
50.300        47
50.310        73
50.320        33
50.330        73
50.340        20
50.350        47
50.360        33
50.370        53
50.380        60
50.390        60
50.400        60
50.410        47
50.420        20
50.430        33
50.440        53
50.450        53
50.460        20
50.470        27
50.480        33
50.490        47
50.500        20
50.510        40
50.520        53
50.530        60
50.540        40
50.550        60
50.560        33
50.570        33
50.580        27
50.590        40
50.600        80
50.610        47
50.620        60
50.630        33
50.640        73
50.650        67
50.660        67
50.670        80
50.680        93
50.690       160
50.700       107
50.710       167
50.720       133
50.730       107
50.740       200
50.750       133
50.760       140
50.770       120
50.780       133
50.790       167
50.800       113
50.810       127
50.820       140
50.830       120
50.840       160
50.850       133
50.860       140
50.870       120
50.880       133
50.890       133
50.900       180
50.910       160
50.920       107
50.930       180
50.940       147
50.950       200
50.960       220
50.970       173
50.980       167
50.990       193
51.000       133
51.010       133
51.020       120
51.030       180
51.040       140
51.050       133
51.060       160
51.070       100
51.080       120
51.090       127
51.100       180
51.110       113
51.120       147
51.130        60
51.140       187
51.150       173
51.160       113
51.170       160
51.180       133
51.190       213
51.200       133
51.210       113
51.220       107
51.230       120
51.240       153
51.250       187
51.260       180
51.270       140
51.280       113
51.290       153
51.300       133
51.310       213
51.320       167
51.330        80
51.340       207
51.350       140
51.360       160
51.370       167
51.380       220
51.390       133
51.400       133
51.410       147
51.420       173
51.430       153
51.440       200
51.450       140
51.460       100
51.470       207
51.480       173
51.490       140
51.500       187
51.510       147
51.520       153
51.530       107
51.540       160
51.550       147
51.560       140
51.570       147
51.580       133
51.590       153
51.600       207
51.610       133
51.620       180
51.630       153
51.640       153
51.650       140
51.660       160
51.670        93
51.680       100
51.690       240
51.700       147
51.710       147
51.720       193
51.730       167
51.740       147
51.750       200
51.760       167
51.770       193
51.780       227
51.790       140
51.800       173
51.810       227
51.820       120
51.830       147
51.840       153
51.850       200
51.860       173
51.870       280
51.880       200
51.890       193
51.900       240
51.910       173
51.920       207
51.930       167
51.940       260
51.950       187
51.960       187
51.970       120
51.980       193
51.990       200
52.000       220
52.010       180
52.020       253
52.030       153
52.040       220
52.050       160
52.060       220
52.070       273
52.080       240
52.090       227
52.100       240
52.110       380
52.120       240
52.130       207
52.140       247
52.150       220
52.160       200
52.170       320
52.180       260
52.190       267
52.200       247
52.210       247
52.220       307
52.230       407
52.240       380
52.250       466
52.260       407
52.270       573
52.280       500
52.290       626
52.300       673
52.310       853
52.320       913
52.330       966
52.340       846
52.350       900
52.360      1193
52.370      1386
52.380      1233
52.390      1486
52.400      1613
52.410      1779
52.420      1933
52.430      2099
52.440      2739
52.450      3059
52.460      3145
52.470      3479
52.480      3878
52.490      4412
52.500      5511
52.510      6697
52.520      9523
52.530     15221
52.540     25123
52.550     36912
52.560     49214
52.570     57444
52.580     63081
52.590     64081
52.600     61209
52.610     55178
52.620     43509
52.630     29795
52.640     20678
52.650     14654
52.660     12255
52.670     13381
52.680     16227
52.690     22824
52.700     28095
52.710     32034
52.720     34606
52.730     35066
52.740     33140
52.750     28808
52.760     22804
52.770     15361
52.780     10109
52.790      6564
52.800      4625
52.810      3619
52.820      3165
52.830      2739
52.840      2446
52.850      2086
52.860      2192
52.870      1986
52.880      1486
52.890      1333
52.900      1220
52.910       933
52.920       873
52.930       786
52.940       600
52.950       640
52.960       573
52.970       500
52.980       420
52.990       446
53.000       493
53.010       393
53.020       360
53.030       426
53.040       380
53.050       280
53.060       300
53.070       293
53.080       367
53.090       280
53.100       320
53.110       307
53.120       287
53.130       280
53.140       287
53.150       187
53.160       253
53.170       300
53.180       287
53.190       240
53.200       287
53.210       273
53.220       127
53.230       247
53.240       160
53.250       247
53.260       213
53.270       253
53.280       180
53.290       173
53.300       200
53.310       200
53.320       247
53.330       187
53.340       153
53.350       173
53.360       213
53.370       240
53.380       233
53.390       153
53.400       140
53.410       193
53.420       193
53.430       227
53.440       180
53.450       140
53.460       247
53.470       140
53.480       160
53.490       220
53.500       173
53.510       173
53.520       160
53.530       153
53.540       173
53.550       133
53.560       120
53.570       140
53.580       227
53.590       160
53.600       187
53.610       127
53.620       120
53.630       127
53.640       187
53.650       160
53.660       133
53.670       153
53.680       127
53.690       167
53.700       127
53.710       153
53.720       167
53.730       180
53.740       153
53.750       133
53.760       140
53.770        87
53.780       140
53.790       113
53.800       140
53.810       153
53.820       153
53.830       133
53.840       120
53.850       133
53.860       133
53.870       147
53.880       107
53.890       113
53.900        87
53.910       107
53.920       153
53.930       113
53.940       113
53.950       120
53.960       127
53.970       160
53.980       100
53.990       153
54.000       100
54.010       113
54.020       127
54.030       120
54.040       120
54.050       113
54.060        93
54.070        80
54.080       107
54.090        87
54.100       113
54.110       120
54.120       147
54.130       100
54.140       107
54.150       113
54.160       107
54.170       147
54.180       180
54.190       127
54.200        93
54.210       160
54.220       107
54.230        73
54.240       113
54.250       113
54.260       213
54.270       127
54.280        87
54.290       133
54.300        67
54.310       120
54.320       133
54.330       127
54.340       113
54.350        87
54.360       147
54.370       133
54.380       127
54.390        87
54.400        93
54.410       120
54.420       187
54.430        67
54.440       147
54.450       160
54.460       107
54.470        87
54.480       100
54.490        87
54.500       107
54.510       113
54.520       120
54.530       120
54.540       160
54.550       153
54.560       140
54.570       100
54.580       120
54.590       160
54.600       113
54.610       133
54.620       107
54.630        60
54.640       100
54.650       100
54.660       133
54.670       153
54.680       153
54.690       140
54.700       127
54.710       100
54.720        93
54.730       100
54.740       113
54.750        47
54.760        93
54.770        67
54.780       120
54.790        80
54.800        87
54.810        80
54.820        80
54.830       107
54.840       120
54.850       120
54.860       133
54.870        80
54.880        60
54.890        93
54.900       113
54.910       100
54.920        67
54.930        53
54.940        87
54.950       113
54.960        80
54.970       100
54.980       133
54.990       107
55.000       107
55.010        87
55.020       120
55.030        67
55.040        80
55.050        67
55.060        93
55.070        87
55.080        60
55.090        67
55.100       113
55.110       100
55.120       113
55.130       107
55.140        80
55.150       100
55.160       127
55.170        67
55.180       120
55.190        67
55.200       113
55.210       127
55.220        67
55.230       107
55.240        67
55.250       113
55.260       107
55.270        93
55.280        93
55.290       133
55.300        80
55.310        87
55.320        87
55.330        80
55.340        87
55.350       113
55.360       107
55.370       133
55.380        80
55.390        93
55.400        87
55.410       100
55.420       133
55.430       107
55.440        93
55.450       113
55.460        80
55.470        80
55.480        93
55.490       100
55.500       133
55.510       147
55.520       147
55.530       100
55.540       127
55.550       100
55.560       173
55.570       167
55.580       107
55.590       193
55.600       187
55.610       153
55.620        93
55.630       140
55.640       100
55.650       107
55.660       220
55.670       193
55.680       153
55.690       100
55.700       153
55.710       200
55.720       133
55.730       180
55.740       153
55.750       147
55.760       140
55.770       187
55.780       107
55.790       133
55.800        93
55.810       100
55.820       127
55.830       147
55.840       153
55.850       147
55.860       100
55.870        87
55.880        60
55.890        87
55.900        67
55.910        73
55.920        80
55.930        87
55.940        73
55.950        67
55.960       107
55.970       100
55.980        53
55.990        80
56.000       113
56.010        93
56.020       100
56.030       100
56.040       120
56.050        67
56.060        87
56.070        67
56.080        73
56.090        73
56.100       127
56.110        67
56.120        47
56.130       100
56.140        73
56.150       100
56.160        73
56.170       107
56.180        53
56.190       100
56.200        80
56.210        80
56.220       107
56.230        87
56.240        73
56.250        60
56.260        67
56.270        80
56.280        80
56.290        67
56.300        73
56.310        53
56.320        80
56.330        60
56.340       100
56.350        80
56.360        47
56.370        80
56.380        87
56.390        87
56.400        67
56.410        87
56.420        67
56.430        67
56.440        67
56.450        93
56.460        67
56.470        73
56.480        67
56.490        67
56.500        80
56.510        67
56.520        67
56.530        73
56.540        53
56.550        80
56.560        60
56.570        40
56.580        47
56.590        33
56.600        67
56.610        87
56.620       100
56.630        80
56.640        80
56.650       100
56.660        67
56.670       113
56.680        60
56.690        73
56.700        87
56.710       113
56.720        67
56.730        80
56.740       100
56.750        67
56.760        73
56.770        60
56.780        73
56.790        27
56.800        67
56.810        20
56.820        87
56.830        80
56.840        53
56.850        60
56.860        80
56.870        53
56.880        40
56.890       113
56.900        60
56.910        80
56.920       107
56.930       120
56.940        40
56.950        80
56.960        33
56.970        60
56.980        93
56.990        53
57.000        60
57.010       107
57.020        93
57.030        67
57.040        80
57.050        40
57.060        87
57.070        60
57.080        53
57.090        67
57.100        60
57.110        53
57.120        27
57.130        80
57.140        87
57.150        73
57.160        80
57.170        73
57.180        73
57.190        93
57.200        93
57.210        80
57.220        60
57.230        47
57.240        87
57.250        60
57.260        53
57.270        33
57.280       100
57.290        80
57.300        73
57.310        60
57.320        53
57.330        67
57.340        80
57.350        60
57.360        93
57.370       107
57.380       113
57.390        33
57.400       100
57.410        80
57.420       120
57.430        60
57.440        67
57.450        33
57.460        53
57.470        73
57.480        60
57.490        73
57.500        87
57.510       100
57.520        47
57.530        67
57.540        60
57.550        73
57.560        40
57.570        80
57.580        73
57.590       100
57.600        87
57.610        80
57.620        53
57.630        47
57.640        87
57.650        60
57.660        47
57.670        80
57.680        27
57.690        27
57.700        67
57.710       100
57.720        87
57.730        67
57.740        60
57.750        53
57.760        67
57.770        67
57.780        47
57.790       120
57.800        93
57.810        53
57.820        73
57.830        47
57.840        73
57.850        47
57.860        60
57.870        73
57.880        73
57.890        80
57.900        53
57.910        47
57.920        73
57.930        80
57.940        53
57.950        87
57.960        80
57.970        67
57.980        80
57.990        60
58.000        73
58.010        27
58.020        60
58.030        93
58.040        80
58.050       107
58.060        53
58.070        47
58.080        67
58.090        40
58.100        40
58.110        67
58.120        40
58.130        60
58.140        47
58.150        60
58.160        93
58.170        53
58.180        60
58.190        67
58.200        53
58.210        27
58.220        47
58.230        33
58.240        67
58.250        73
58.260        53
58.270        47
58.280        40
58.290        73
58.300        60
58.310        20
58.320        13
58.330        47
58.340        33
58.350        67
58.360        40
58.370        53
58.380        53
58.390        47
58.400        73
58.410        47
58.420        60
58.430        60
58.440        60
58.450        73
58.460        73
58.470        33
58.480        53
58.490        40
58.500        53
58.510        40
58.520        67
58.530        67
58.540        40
58.550       100
58.560        47
58.570        47
58.580        33
58.590        67
58.600        47
58.610        20
58.620        60
58.630        27
58.640        47
58.650        60
58.660        73
58.670        53
58.680        47
58.690        67
58.700        93
58.710        67
58.720        60
58.730        53
58.740        47
58.750        73
58.760        67
58.770        60
58.780        33
58.790        67
58.800        33
58.810        60
58.820        47
58.830         7
58.840        53
58.850        40
58.860        47
58.870        53
58.880        47
58.890        93
58.900        47
58.910        33
58.920        20
58.930        93
58.940        60
58.950        73
58.960        40
58.970        67
58.980        60
58.990        27
59.000        60
59.010        67
59.020        87
59.030        80
59.040        13
59.050        27
59.060        53
59.070        20
59.080        67
59.090        60
59.100        47
59.110        40
59.120        47
59.130        60
59.140        53
59.150        80
59.160        87
59.170        53
59.180        73
59.190        53
59.200        67
59.210        20
59.220        67
59.230        47
59.240        80
59.250        47
59.260        73
59.270        40
59.280        20
59.290        40
59.300        40
59.310        73
59.320        33
59.330        47
59.340        47
59.350        40
59.360        60
59.370        47
59.380        60
59.390        47
59.400        67
59.410        60
59.420        47
59.430        53
59.440        40
59.450        53
59.460        40
59.470        80
59.480        40
59.490        60
59.500        53
59.510        80
59.520        40
59.530        60
59.540        73
59.550        40
59.560        53
59.570        73
59.580        27
59.590        33
59.600        53
59.610        53
59.620        73
59.630        40
59.640        73
59.650        40
59.660        27
59.670        20
59.680        80
59.690        60
59.700        40
59.710        80
59.720        40
59.730        53
59.740        40
59.750        67
59.760        20
59.770        40
59.780        47
59.790        40
59.800        53
59.810        67
59.820        40
59.830        60
59.840        20
59.850        47
59.860        27
59.870        33
59.880        73
59.890        47
59.900        87
59.910        53
59.920        33
59.930        60
59.940        33
59.950        53
59.960        80
59.970        60
59.980        33
59.990        33
60.000        33
