20.000        27
20.010        27
20.020        53
20.030        13
20.040        47
20.050        60
20.060        40
20.070        40
20.080        47
20.090        80
20.100        67
20.110        87
20.120        73
20.130        80
20.140        40
20.150        67
20.160        47
20.170        40
20.180        73
20.190        53
20.200        27
20.210        47
20.220        33
20.230        53
20.240        27
20.250        47
20.260        20
20.270        33
20.280        60
20.290        33
20.300        73
20.310        47
20.320        87
20.330        73
20.340        33
20.350        47
20.360        27
20.370        60
20.380        73
20.390        27
20.400        20
20.410        33
20.420        33
20.430        20
20.440        53
20.450        20
20.460        60
20.470        20
20.480        47
20.490        47
20.500        40
20.510        47
20.520        53
20.530        60
20.540        47
20.550        33
20.560        53
20.570        13
20.580        53
20.590        47
20.600        47
20.610        73
20.620        47
20.630        60
20.640        67
20.650        60
20.660        73
20.670        27
20.680        40
20.690        93
20.700        53
20.710        47
20.720        27
20.730        33
20.740        60
20.750        40
20.760        40
20.770        40
20.780        73
20.790        47
20.800         0
20.810        47
20.820        33
20.830        40
20.840        33
20.850       120
20.860        60
20.870        53
20.880        53
20.890        93
20.900        27
20.910        60
20.920        47
20.930        67
20.940        80
20.950        40
20.960        93
20.970        33
20.980        53
20.990        40
21.000        53
21.010        67
21.020        67
21.030        67
21.040        67
21.050        33
21.060        73
21.070        60
21.080        53
21.090        20
21.100        73
21.110        40
21.120        67
21.130        67
21.140        33
21.150        80
21.160        20
21.170        40
21.180        80
21.190        93
21.200        60
21.210        60
21.220        47
21.230        87
21.240        73
21.250        67
21.260        93
21.270        73
21.280        53
21.290        53
21.300        80
21.310        47
21.320        40
21.330        60
21.340        60
21.350       107
21.360        53
21.370        93
21.380       107
21.390        80
21.400        87
21.410        47
21.420        67
21.430        67
21.440        60
21.450       100
21.460        93
21.470        80
21.480        87
21.490       127
21.500       133
21.510        80
21.520       127
21.530        87
21.540        87
21.550       107
21.560        93
21.570       100
21.580       100
21.590       127
21.600       120
21.610       133
21.620       153
21.630       133
21.640       160
21.650       147
21.660       180
21.670        87
21.680       213
21.690       100
21.700       180
21.710       133
21.720       140
21.730       153
21.740       167
21.750       180
21.760       153
21.770       140
21.780       153
21.790       160
21.800       153
21.810       160
21.820       153
21.830       120
21.840       127
21.850       147
21.860        80
21.870       160
21.880       127
21.890       120
21.900       140
21.910        67
21.920       113
21.930        73
21.940       100
21.950       133
21.960        60
21.970        60
21.980        67
21.990        47
22.000        80
22.010        87
22.020        87
22.030        67
22.040        53
22.050        27
22.060        47
22.070        27
22.080        53
22.090        60
22.100        47
22.110        40
22.120        87
22.130        87
22.140        60
22.150        67
22.160        53
22.170        40
22.180        40
22.190        47
22.200        53
22.210        53
22.220        67
22.230       100
22.240        53
22.250        80
22.260        47
22.270        73
22.280        53
22.290        40
22.300        67
22.310        53
22.320        40
22.330        60
22.340        47
22.350        40
22.360        47
22.370        47
22.380        47
22.390        13
22.400        40
22.410        47
22.420        47
22.430        47
22.440        53
22.450        40
22.460        13
22.470        40
22.480        53
22.490        53
22.500        40
22.510        53
22.520         7
22.530        47
22.540        27
22.550        27
22.560        60
22.570        53
22.580        20
22.590        13
22.600        53
22.610        20
22.620        40
22.630        73
22.640        87
22.650        73
22.660        53
22.670        33
22.680        40
22.690        73
22.700        40
22.710        53
22.720        27
22.730        60
22.740        40
22.750        20
22.760        33
22.770        53
22.780        27
22.790        40
22.800        27
22.810        40
22.820        53
22.830        27
22.840        53
22.850        53
22.860        33
22.870        27
22.880        60
22.890        60
22.900        53
22.910        47
22.920        47
22.930        93
22.940        33
22.950        40
22.960        47
22.970        27
22.980        40
22.990        67
23.000        67
23.010        27
23.020        53
23.030        53
23.040        40
23.050        60
23.060        47
23.070        47
23.080        67
23.090        80
23.100        40
23.110        67
23.120        33
23.130        27
23.140        47
23.150        73
23.160        27
23.170        20
23.180        33
23.190        53
23.200        33
23.210        40
23.220        40
23.230        87
23.240        20
23.250        33
23.260        60
23.270        33
23.280        40
23.290        40
23.300        40
23.310        60
23.320        40
23.330        47
23.340        47
23.350        60
23.360        33
23.370        13
23.380        40
23.390        27
23.400        33
23.410        67
23.420        47
23.430        73
23.440        33
23.450        47
23.460        53
23.470        93
23.480        33
23.490        20
23.500        33
23.510        27
23.520        53
23.530        33
23.540        47
23.550        73
23.560        33
23.570        47
23.580        73
23.590        53
23.600        60
23.610        27
23.620        40
23.630        20
23.640        40
23.650        73
23.660        20
23.670        53
23.680        67
23.690        67
23.700        27
23.710        20
23.720        33
23.730        40
23.740        20
23.750        13
23.760        27
23.770        33
23.780        20
23.790        53
23.800        40
23.810        13
23.820        40
23.830        33
23.840        60
23.850        20
23.860        67
23.870         7
23.880        40
23.890        27
23.900        27
23.910        40
23.920        53
23.930        27
23.940        27
23.950        27
23.960        13
23.970        33
23.980        67
23.990        40
24.000        33
24.010        47
24.020        20
24.030        40
24.040        27
24.050        40
24.060        33
24.070        93
24.080        40
24.090        27
24.100         7
24.110        60
24.120        33
24.130        40
24.140        40
24.150        47
24.160        20
24.170        13
24.180        33
24.190        20
24.200        27
24.210        33
24.220        27
24.230        27
24.240        33
24.250        40
24.260         7
24.270        27
24.280        20
24.290        20
24.300        27
24.310        67
24.320        60
24.330        20
24.340        40
24.350        27
24.360        40
24.370        40
24.380        40
24.390        53
24.400        27
24.410        47
24.420        60
24.430        33
24.440        27
24.450        47
24.460        27
24.470        47
24.480        33
24.490        80
24.500        47
24.510        60
24.520        53
24.530        40
24.540         7
24.550        27
24.560        67
24.570        80
24.580        67
24.590        33
24.600        40
24.610        60
24.620        27
24.630        47
24.640        87
24.650        20
24.660        47
24.670        40
24.680        53
24.690        20
24.700        67
24.710        33
24.720        47
24.730        40
24.740        67
24.750        27
24.760        13
24.770        47
24.780        33
24.790        47
24.800        53
24.810        27
24.820        73
24.830        67
24.840        40
24.850        67
24.860        40
24.870        20
24.880        20
24.890        40
24.900        33
24.910        80
24.920        40
24.930        27
24.940         7
24.950        27
24.960        73
24.970        33
24.980        33
24.990        40
25.000        20
25.010        47
25.020        33
25.030        33
25.040        60
25.050        53
25.060        40
25.070        53
25.080        27
25.090        27
25.100        20
25.110        33
25.120        20
25.130        67
25.140        27
25.150        53
25.160        27
25.170        33
25.180        27
25.190         7
25.200        40
25.210        33
25.220        40
25.230        13
25.240        53
25.250        47
25.260        53
25.270        27
25.280        47
25.290        20
25.300        47
25.310        27
25.320        40
25.330        40
25.340        73
25.350        40
25.360        40
25.370        13
25.380        73
25.390        33
25.400        27
25.410        13
25.420        20
25.430        33
25.440        33
25.450        47
25.460        20
25.470        20
25.480        67
25.490        40
25.500        27
25.510        80
25.520        27
25.530        47
25.540        47
25.550        53
25.560        80
25.570        80
25.580        87
25.590       100
25.600        47
25.610        27
25.620        53
25.630       107
25.640        40
25.650        47
25.660        33
25.670        40
25.680        67
25.690        73
25.700        33
25.710        53
25.720        20
25.730        33
25.740        40
25.750        53
25.760        20
25.770        40
25.780        53
25.790        53
25.800        40
25.810        80
25.820        27
25.830        47
25.840        27
25.850        40
25.860        20
25.870        33
25.880        53
25.890        33
25.900        53
25.910        47
25.920        27
25.930        53
25.940        33
25.950        33
25.960        47
25.970        27
25.980        13
25.990        47
26.000        13
26.010        40
26.020        27
26.030        13
26.040        33
26.050        27
26.060        27
26.070        20
26.080        33
26.090        60
26.100        20
26.110        53
26.120        40
26.130        47
26.140        40
26.150        60
26.160        20
26.170        33
26.180        73
26.190        20
26.200        20
26.210        27
26.220        53
26.230        60
26.240        13
26.250        47
26.260        40
26.270        13
26.280        20
26.290        33
26.300        27
26.310        33
26.320         7
26.330        27
26.340        33
26.350        33
26.360        27
26.370        53
26.380        40
26.390        40
26.400        20
26.410        53
26.420        27
26.430        27
26.440        60
26.450        53
26.460        33
26.470        53
26.480        27
26.490        47
26.500        47
26.510        40
26.520        33
26.530        60
26.540        73
26.550        27
26.560        33
26.570        33
26.580        53
26.590        27
26.600        53
26.610        27
26.620         7
26.630        33
26.640        13
26.650        53
26.660        47
26.670        33
26.680        27
26.690        33
26.700        80
26.710        20
26.720        40
26.730        20
26.740        47
26.750        40
26.760        33
26.770        20
26.780        20
26.790         7
26.800        27
26.810        27
26.820        27
26.830        33
26.840        47
26.850        13
26.860         7
26.870        40
26.880        47
26.890        13
26.900        33
26.910        27
26.920        27
26.930        20
26.940        20
26.950        27
26.960        27
26.970        20
26.980        47
26.990        20
27.000        53
27.010        13
27.020        33
27.030        33
27.040        53
27.050        40
27.060        13
27.070        20
27.080        40
27.090        27
27.100        20
27.110        60
27.120        40
27.130         7
27.140        33
27.150        33
27.160         7
27.170        73
27.180        27
27.190         7
27.200        33
27.210        47
27.220        27
27.230         7
27.240        67
27.250        33
27.260         7
27.270        33
27.280        33
27.290        60
27.300        33
27.310        60
27.320        33
27.330        47
27.340         7
27.350        13
27.360        20
27.370        60
27.380        13
27.390        33
27.400        20
27.410        13
27.420        33
27.430        27
27.440        73
27.450        13
27.460        33
27.470        20
27.480        27
27.490        40
27.500        53
27.510        20
27.520        20
27.530        40
27.540        33
27.550        27
27.560        40
27.570        33
27.580        13
27.590        13
27.600        33
27.610        33
27.620        20
27.630        20
27.640        13
27.650        40
27.660        40
27.670        40
27.680        20
27.690        27
27.700        67
27.710        13
27.720        40
27.730        33
27.740        40
27.750        27
27.760        67
27.770        27
27.780        40
27.790        40
27.800        40
27.810        40
27.820        47
27.830        33
27.840        73
27.850        80
27.860        47
27.870        20
27.880        27
27.890        27
27.900        33
27.910        27
27.920        40
27.930        60
27.940        60
27.950        27
27.960        27
27.970        47
27.980        67
27.990        13
28.000        40
28.010        33
28.020        80
28.030        67
28.040        60
28.050        27
28.060        53
28.070        60
28.080        67
28.090        53
28.100        40
28.110        27
28.120        47
28.130        33
28.140        60
28.150        13
28.160        20
28.170        40
28.180        20
28.190        40
28.200        33
28.210        53
28.220        33
28.230        27
28.240        47
28.250        40
28.260        40
28.270        47
28.280        13
28.290        40
28.300        13
28.310        20
28.320        40
28.330        27
28.340        20
28.350        47
28.360        20
28.370        47
28.380        20
28.390        33
28.400        27
28.410        40
28.420        53
28.430        20
28.440        20
28.450        53
28.460        33
28.470        27
28.480        20
28.490        53
28.500        27
28.510        53
28.520        13
28.530        20
28.540        40
28.550         7
28.560        47
28.570        20
28.580        33
28.590        27
28.600        40
28.610        40
28.620        53
28.630        27
28.640        40
28.650        27
28.660        47
28.670        33
28.680        53
28.690        13
28.700        67
28.710        47
28.720        20
28.730        13
28.740        40
28.750        27
28.760        20
28.770        40
28.780        33
28.790        53
28.800        27
28.810        40
28.820        13
28.830        67
28.840        13
28.850        27
28.860        20
28.870        73
28.880        20
28.890        60
28.900        20
28.910        53
28.920        27
28.930        20
28.940        40
28.950        20
28.960        20
28.970        53
28.980        33
28.990        40
29.000        27
29.010        53
29.020        33
29.030        20
29.040        47
29.050        40
29.060        33
29.070        27
29.080        80
29.090        40
29.100        40
29.110         7
29.120        20
29.130        20
29.140        47
29.150        13
29.160        13
29.170        47
29.180        27
29.190        27
29.200        40
29.210        20
29.220        40
29.230        20
29.240        27
29.250        47
29.260        13
29.270        33
29.280        27
29.290        13
29.300        27
29.310        40
29.320        27
29.330        33
29.340        47
29.350         7
29.360        40
29.370        13
29.380        13
29.390        27
29.400        20
29.410        53
29.420        53
29.430        53
29.440        27
29.450        47
29.460        73
29.470        40
29.480        27
29.490        27
29.500        40
29.510         7
29.520        20
29.530        33
29.540        13
29.550        47
29.560        27
29.570        33
29.580        40
29.590        40
29.600        47
29.610        20
29.620        33
29.630        27
29.640        47
29.650        13
29.660        20
29.670        40
29.680        47
29.690        33
29.700        67
29.710        47
29.720        27
29.730        33
29.740        47
29.750        40
29.760        40
29.770        53
29.780        27
29.790        47
29.800        60
29.810        20
29.820         7
29.830         7
29.840        20
29.850        40
29.860         7
29.870        53
29.880        40
29.890        20
29.900        40
29.910        60
29.920        33
29.930        40
29.940        40
29.950        47
29.960        60
29.970        20
29.980        47
29.990        67
30.000        13
30.010        47
30.020        33
30.030        47
30.040        47
30.050        40
30.060        47
30.070        33
30.080        33
30.090        27
30.100        33
30.110        40
30.120        53
30.130        53
30.140        47
30.150        67
30.160        33
30.170        40
30.180        80
30.190        13
30.200        87
30.210       107
30.220        47
30.230        87
30.240        93
30.250        40
30.260        60
30.270        53
30.280        40
30.290         7
30.300        53
30.310        73
30.320       100
30.330        40
30.340        80
30.350        40
30.360        47
30.370        60
30.380        67
30.390        27
30.400        33
30.410        67
30.420        40
30.430        53
30.440        67
30.450        67
30.460        40
30.470        67
30.480        87
30.490        93
30.500        87
30.510        73
30.520        53
30.530        80
30.540        40
30.550        60
30.560        67
30.570        80
30.580       127
30.590        80
30.600       107
30.610       107
30.620        73
30.630       100
30.640       133
30.650       100
30.660        73
30.670        73
30.680       127
30.690       107
30.700       160
30.710       120
30.720       127
30.730       187
30.740       227
30.750       193
30.760       227
30.770       213
30.780       240
30.790       320
30.800       313
30.810       440
30.820       373
30.830       473
30.840       546
30.850       520
30.860       586
30.870       553
30.880       740
30.890       853
30.900       873
30.910       860
30.920       940
30.930      1140
30.940      1186
30.950      1306
30.960      1446
30.970      1413
30.980      1826
30.990      1939
31.000      1973
31.010      2292
31.020      2439
31.030      2326
31.040      2486
31.050      2799
31.060      2806
31.070      3065
31.080      3379
31.090      3339
31.100      3205
31.110      3239
31.120      2892
31.130      2906
31.140      2985
31.150      2726
31.160      2479
31.170      2319
31.180      2312
31.190      1933
31.200      1639
31.210      1453
31.220      1393
31.230      1326
31.240      1206
31.250       933
31.260       766
31.270       733
31.280       580
31.290       593
31.300       347
31.310       393
31.320       287
31.330       327
31.340       247
31.350       287
31.360       247
31.370       120
31.380       133
31.390       133
31.400       173
31.410       100
31.420       133
31.430       147
31.440        87
31.450       127
31.460       107
31.470       113
31.480       113
31.490       113
31.500       113
31.510        87
31.520        73
31.530       107
31.540       133
31.550        67
31.560        93
31.570        67
31.580        47
31.590        80
31.600        87
31.610        80
31.620        60
31.630        53
31.640       107
31.650        80
31.660        73
31.670        80
31.680        53
31.690        47
31.700        40
31.710        73
31.720        67
31.730        73
31.740        33
31.750        80
31.760        93
31.770        53
31.780        47
31.790       100
31.800        73
31.810        47
31.820        73
31.830        40
31.840        73
31.850        47
31.860        53
31.870        80
31.880        47
31.890        93
31.900        67
31.910        47
31.920        47
31.930        53
31.940        47
31.950        53
31.960        47
31.970        47
31.980        53
31.990        47
32.000        53
32.010        47
32.020        47
32.030        60
32.040        53
32.050        47
32.060        40
32.070        73
32.080        13
32.090        67
32.100        33
32.110        33
32.120        40
32.130        67
32.140        33
32.150        67
32.160        33
32.170        80
32.180        33
32.190        47
32.200        27
32.210        20
32.220        40
32.230        93
32.240        67
32.250        60
32.260        53
32.270        53
32.280        53
32.290        67
32.300        47
32.310        53
32.320        67
32.330        33
32.340        73
32.350        33
32.360        60
32.370        67
32.380        33
32.390        73
32.400        40
32.410        33
32.420        60
32.430        40
32.440        53
32.450        27
32.460        13
32.470        27
32.480        47
32.490        47
32.500        60
32.510        27
32.520        27
32.530        73
32.540        33
32.550        47
32.560        47
32.570        47
32.580        40
32.590        40
32.600        47
32.610        53
32.620        47
32.630        40
32.640        53
32.650        53
32.660        40
32.670        33
32.680        40
32.690        27
32.700        47
32.710        27
32.720        40
32.730        47
32.740        27
32.750        40
32.760        33
32.770        40
32.780        20
32.790        27
32.800        87
32.810        33
32.820        20
32.830        73
32.840        60
32.850        20
32.860        20
32.870        20
32.880        40
32.890        33
32.900        33
32.910        40
32.920        27
32.930        27
32.940        40
32.950        27
32.960        27
32.970        53
32.980        33
32.990        40
33.000        20
33.010        33
33.020        13
33.030        20
33.040        20
33.050        40
33.060        80
33.070        40
33.080        20
33.090        53
33.100        40
33.110        40
33.120        40
33.130        47
33.140        13
33.150        47
33.160        53
33.170        53
33.180        53
33.190        47
33.200        53
33.210        53
33.220        27
33.230        53
33.240        33
33.250        20
33.260        53
33.270        40
33.280        33
33.290        47
33.300        47
33.310        20
33.320         7
33.330        20
33.340        53
33.350        53
33.360        47
33.370        13
33.380        80
33.390        33
33.400        33
33.410        33
33.420        27
33.430        40
33.440        13
33.450        60
33.460        13
33.470        27
33.480        47
33.490        33
33.500        20
33.510        27
33.520        27
33.530        40
33.540        33
33.550        47
33.560        47
33.570        33
33.580        33
33.590        20
33.600        60
33.610        20
33.620        47
33.630        47
33.640        80
33.650        53
33.660        27
33.670         7
33.680        20
33.690        20
33.700        27
33.710        40
33.720        40
33.730        47
33.740        40
33.750        53
33.760        20
33.770        53
33.780        40
33.790        20
33.800        60
33.810        20
33.820        20
33.830        40
33.840        33
33.850        13
33.860        27
33.870        60
33.880        40
33.890        53
33.900        13
33.910        27
33.920        33
33.930        13
33.940        13
33.950        27
33.960        27
33.970        27
33.980        80
33.990        33
34.000        40
34.010        40
34.020        27
34.030        53
34.040        13
34.050        27
34.060        33
34.070        33
34.080        20
34.090        47
34.100        33
34.110         7
34.120         7
34.130        27
34.140        13
34.150        47
34.160        20
34.170        33
34.180        47
34.190        40
34.200        53
34.210        20
34.220        27
34.230        33
34.240        40
34.250        33
34.260        13
34.270        20
34.280        40
34.290        33
34.300        40
34.310        20
34.320        33
34.330        27
34.340        40
34.350        67
34.360        40
34.370        53
34.380        47
34.390        27
34.400        33
34.410         7
34.420        67
34.430        20
34.440        27
34.450        27
34.460        33
34.470        33
34.480        27
34.490        53
34.500        40
34.510        20
34.520        53
34.530        27
34.540        60
34.550        33
34.560        40
34.570        13
34.580        13
34.590        27
34.600        27
34.610        53
34.620        40
34.630        20
34.640        33
34.650        27
34.660        47
34.670        33
34.680        47
34.690        40
34.700        33
34.710        33
34.720        27
34.730         7
34.740        87
34.750        40
34.760        27
34.770        27
34.780        13
34.790        47
34.800        27
34.810        20
34.820        20
34.830        40
34.840        47
34.850        47
34.860        60
34.870        53
34.880        33
34.890        27
34.900        33
34.910        40
34.920        27
34.930        80
34.940        67
34.950        53
34.960        67
34.970        60
34.980        87
34.990        67
35.000        67
35.010        53
35.020        53
35.030        67
35.040        67
35.050        73
35.060        47
35.070        47
35.080        87
35.090        80
35.100        67
35.110        93
35.120       147
35.130       193
35.140       220
35.150       327
35.160       313
35.170       307
35.180       353
35.190       313
35.200       213
35.210       247
35.220       133
35.230       113
35.240       180
35.250       173
35.260       180
35.270       193
35.280       140
35.290        80
35.300        60
35.310        53
35.320        53
35.330        60
35.340        33
35.350        73
35.360        60
35.370        40
35.380        27
35.390        47
35.400        47
35.410        47
35.420        33
35.430        40
35.440        20
35.450        40
35.460        27
35.470        40
35.480        13
35.490        20
35.500        27
35.510        20
35.520        40
35.530        33
35.540         7
35.550        40
35.560        20
35.570        27
35.580        47
35.590        33
35.600        40
35.610        20
35.620        53
35.630        20
35.640        27
35.650        53
35.660        47
35.670        40
35.680         7
35.690        20
35.700        27
35.710        20
35.720        27
35.730        40
35.740        27
35.750        13
35.760        40
35.770        13
35.780        40
35.790        13
35.800        33
35.810        13
35.820        27
35.830        13
35.840        20
35.850        33
35.860        40
35.870        60
35.880        20
35.890        20
35.900        40
35.910        13
35.920        13
35.930        20
35.940        27
35.950        87
35.960        40
35.970         7
35.980        13
35.990        20
36.000        33
36.010        20
36.020         7
36.030        13
36.040        33
36.050        13
36.060        33
36.070        27
36.080        33
36.090        40
36.100        27
36.110         7
36.120        47
36.130        13
36.140        60
36.150        27
36.160        53
36.170        27
36.180        13
36.190        47
36.200        33
36.210        33
36.220         7
36.230        20
36.240        33
36.250        33
36.260        13
36.270         7
36.280        60
36.290        20
36.300        20
36.310        33
36.320        27
36.330        33
36.340        20
36.350        13
36.360        47
36.370        20
36.380        13
36.390        27
36.400        40
36.410        13
36.420        40
36.430        20
36.440        33
36.450        27
36.460        13
36.470        27
36.480        20
36.490        27
36.500        33
36.510        33
36.520         7
36.530        13
36.540        20
36.550         7
36.560        20
36.570        40
36.580        27
36.590        27
36.600        33
36.610        47
36.620        33
36.630         0
36.640        33
36.650        27
36.660        27
36.670        33
36.680         7
36.690        20
36.700        13
36.710        20
36.720        20
36.730        40
36.740        13
36.750        13
36.760        20
36.770        53
36.780        20
36.790        73
36.800        33
36.810        33
36.820        33
36.830        13
36.840        13
36.850        27
36.860        33
36.870        27
36.880        40
36.890        20
36.900        33
36.910        40
36.920        47
36.930        40
36.940        33
36.950        40
36.960        27
36.970        20
36.980         7
36.990        33
37.000        20
37.010        20
37.020         7
37.030        40
37.040        20
37.050        47
37.060        33
37.070        20
37.080        20
37.090         7
37.100        33
37.110        13
37.120        40
37.130        13
37.140        13
37.150        27
37.160        40
37.170        47
37.180        47
37.190        13
37.200        20
37.210        33
37.220        27
37.230        13
37.240        20
37.250        33
37.260         7
37.270        13
37.280        40
37.290         7
37.300        40
37.310        27
37.320        27
37.330        27
37.340        27
37.350        27
37.360        27
37.370        27
37.380        47
37.390        40
37.400        33
37.410        27
37.420        33
37.430        20
37.440        40
37.450        47
37.460        47
37.470        47
37.480        53
37.490        40
37.500        40
37.510        33
37.520        20
37.530        67
37.540        53
37.550        20
37.560        40
37.570         7
37.580        27
37.590        67
37.600        27
37.610        73
37.620        60
37.630        27
37.640        53
37.650        53
37.660        53
37.670        53
37.680        47
37.690        27
37.700        47
37.710        27
37.720        13
37.730        27
37.740        20
37.750        67
37.760        47
37.770        67
37.780        53
37.790        73
37.800        40
37.810        53
37.820        67
37.830        40
37.840        73
37.850        80
37.860        60
37.870        27
37.880        13
37.890        73
37.900        73
37.910        27
37.920        33
37.930        33
37.940        53
37.950        13
37.960        33
37.970        27
37.980        33
37.990        27
38.000        33
38.010        40
38.020        13
38.030        27
38.040        20
38.050         7
38.060        53
38.070        33
38.080        33
38.090        20
38.100        53
38.110        40
38.120        60
38.130        33
38.140        13
38.150        20
38.160        20
38.170        20
38.180         7
38.190        33
38.200         7
38.210        47
38.220        27
38.230        40
38.240        20
38.250        20
38.260        27
38.270        27
38.280        20
38.290        60
38.300        53
38.310        40
38.320        40
38.330        40
38.340        67
38.350        13
38.360        53
38.370        60
38.380        13
38.390        53
38.400        27
38.410        67
38.420        53
38.430        47
38.440        60
38.450        33
38.460        13
38.470        60
38.480        47
38.490        33
38.500        60
38.510        33
38.520        60
38.530        33
38.540        47
38.550        60
38.560        53
38.570        13
38.580        33
38.590        20
38.600        20
38.610        27
38.620        60
38.630        60
38.640        27
38.650        33
38.660        33
38.670         7
38.680         7
38.690        33
38.700        20
38.710         7
38.720        13
38.730        53
38.740         7
38.750        40
38.760        60
38.770        40
38.780        33
38.790         7
38.800        20
38.810        13
38.820        27
38.830        27
38.840        20
38.850        20
38.860        27
38.870         7
38.880        27
38.890        13
38.900        33
38.910        33
38.920        20
38.930        27
38.940        40
38.950        27
38.960        20
38.970        40
38.980        13
38.990        40
39.000        67
39.010        27
39.020        53
39.030        27
39.040        47
39.050        40
39.060        13
39.070        40
39.080        67
39.090        67
39.100        53
39.110        20
39.120        27
39.130        13
39.140        13
39.150        27
39.160        47
39.170         7
39.180        27
39.190         0
39.200        20
39.210        27
39.220        40
39.230        13
39.240        33
39.250        13
39.260        27
39.270         7
39.280        33
39.290        20
39.300        13
39.310        27
39.320        13
39.330        27
39.340        20
39.350        20
39.360        27
39.370        27
39.380        33
39.390        33
39.400        27
39.410        40
39.420        20
39.430        27
39.440        33
39.450        33
39.460         7
39.470        47
39.480        20
39.490        60
39.500        27
39.510        27
39.520        27
39.530        13
39.540        20
39.550        53
39.560         7
39.570        20
39.580        27
39.590        27
39.600        33
39.610         7
39.620        40
39.630        13
39.640        33
39.650        27
39.660        20
39.670         7
39.680        27
39.690         7
39.700        20
39.710        20
39.720        20
39.730        40
39.740        27
39.750        20
39.760        20
39.770        20
39.780         7
39.790        33
39.800        33
39.810        20
39.820        27
39.830        20
39.840        20
39.850         7
39.860        60
39.870        20
39.880        13
39.890        33
39.900         7
39.910        40
39.920        20
39.930        27
39.940        27
39.950        27
39.960        27
39.970        20
39.980        27
39.990        47
40.000        33
40.010        20
40.020        20
40.030        13
40.040        13
40.050        13
40.060        13
40.070        20
40.080        40
40.090        33
40.100        33
40.110        13
40.120        13
40.130        27
40.140        27
40.150        13
40.160        27
40.170         7
40.180        27
40.190        13
40.200        13
40.210        27
40.220         7
40.230        13
40.240        20
40.250        13
40.260        20
40.270        27
40.280        20
40.290         0
40.300         7
40.310        33
40.320        53
40.330        27
40.340        20
40.350        13
40.360        40
40.370        13
40.380        27
40.390        20
40.400        27
40.410        20
40.420         7
40.430        33
40.440        13
40.450        27
40.460         7
40.470        27
40.480         7
40.490        47
40.500        13
40.510        33
40.520        20
40.530        20
40.540        13
40.550        20
40.560        13
40.570         0
40.580        13
40.590        47
40.600        20
40.610         0
40.620        47
40.630        13
40.640        33
40.650        27
40.660        40
40.670        13
40.680        13
40.690        27
40.700        40
40.710        33
40.720        13
40.730        33
40.740        13
40.750        40
40.760        20
40.770        27
40.780        13
40.790        27
40.800         7
40.810        13
40.820        27
40.830        20
40.840         7
40.850        33
40.860        27
40.870        20
40.880         7
40.890        20
40.900        13
40.910         7
40.920        27
40.930        27
40.940        27
40.950        33
40.960        33
40.970        53
40.980        47
40.990        13
41.000        33
41.010         0
41.020        33
41.030        13
41.040        33
41.050        27
41.060        27
41.070        27
41.080        33
41.090        20
41.100        60
41.110        27
41.120         7
41.130        27
41.140        13
41.150        20
41.160         7
41.170        20
41.180        13
41.190        13
41.200        13
41.210        13
41.220         7
41.230         7
41.240        13
41.250        13
41.260        20
41.270        13
41.280        13
41.290         7
41.300        47
41.310        20
41.320        27
41.330         7
41.340        27
41.350        27
41.360        13
41.370        20
41.380        60
41.390        40
41.400        27
41.410        40
41.420        27
41.430        20
41.440        40
41.450        73
41.460         7
41.470        13
41.480        13
41.490        27
41.500        13
41.510        33
41.520        40
41.530        20
41.540        20
41.550        27
41.560        33
41.570        33
41.580        20
41.590        40
41.600        33
41.610        33
41.620        40
41.630        87
41.640        47
41.650        80
41.660       120
41.670       100
41.680       133
41.690        80
41.700       167
41.710       100
41.720       133
41.730       107
41.740        87
41.750        73
41.760        73
41.770       113
41.780        73
41.790        80
41.800        67
41.810        73
41.820        13
41.830        60
41.840        53
41.850        53
41.860        27
41.870        60
41.880        40
41.890         7
41.900        13
41.910        20
41.920         7
41.930        20
41.940        27
41.950        40
41.960        53
41.970        13
41.980        20
41.990        27
42.000         7
42.010        13
42.020        40
42.030        13
42.040        20
42.050        33
42.060        13
42.070        13
42.080        33
42.090        13
42.100        20
42.110        27
42.120        27
42.130        27
42.140        27
42.150         7
42.160        33
42.170         0
42.180        13
42.190        33
42.200        33
42.210        20
42.220        20
42.230        33
42.240        27
42.250        13
42.260        20
42.270        13
42.280         7
42.290        20
42.300        33
42.310        27
42.320        33
42.330        33
42.340        20
42.350        27
42.360        27
42.370        40
42.380        20
42.390         0
42.400        40
42.410        20
42.420         0
42.430        13
42.440        20
42.450        27
42.460        13
42.470        13
42.480        40
42.490        27
42.500        27
42.510        53
42.520        13
42.530        33
42.540         7
42.550         0
42.560        20
42.570        27
42.580         7
42.590        27
42.600        13
42.610         7
42.620        20
42.630        13
42.640        27
42.650        20
42.660        13
42.670        27
42.680        33
42.690        13
42.700        13
42.710        47
42.720        33
42.730        27
42.740        27
42.750        27
42.760        33
42.770        27
42.780         0
42.790        40
42.800         7
42.810         7
42.820        27
42.830        13
42.840        27
42.850        13
42.860        13
42.870        20
42.880        20
42.890         7
42.900        20
42.910        27
42.920         7
42.930        60
42.940        20
42.950        20
42.960        20
42.970        20
42.980         7
42.990        40
43.000        20
43.010        20
43.020         7
43.030        27
43.040        40
43.050        20
43.060        27
43.070        60
43.080        13
43.090         7
43.100        47
43.110        40
43.120        33
43.130        53
43.140        40
43.150        33
43.160        27
43.170        27
43.180        47
43.190        27
43.200        27
43.210        33
43.220        27
43.230        27
43.240        33
43.250        20
43.260        27
43.270        13
43.280        47
43.290        20
43.300        40
43.310        67
43.320        40
43.330        73
43.340        67
43.350       120
43.360       160
43.370       127
43.380       127
43.390       107
43.400       107
43.410        87
43.420        93
43.430        73
43.440        40
43.450        47
43.460        73
43.470       100
43.480        73
43.490       107
43.500        87
43.510        53
43.520        47
43.530        40
43.540        67
43.550        33
43.560        40
43.570        47
43.580        20
43.590        27
43.600        40
43.610        67
43.620        27
43.630        20
43.640        13
43.650        20
43.660        33
43.670        47
43.680        27
43.690        33
43.700        27
43.710        53
43.720        13
43.730        47
43.740        53
43.750        13
43.760        53
43.770        27
43.780        53
43.790        47
43.800        47
43.810        33
43.820        33
43.830        33
43.840        47
43.850        53
43.860        20
43.870        40
43.880        40
43.890        40
43.900        33
43.910        53
43.920        40
43.930        27
43.940        20
43.950        67
43.960        53
43.970        87
43.980        60
43.990        33
44.000        27
44.010        40
44.020        27
44.030        40
44.040        87
44.050        73
44.060        80
44.070        40
44.080        87
44.090        73
44.100        80
44.110       107
44.120        93
44.130        80
44.140        60
44.150       120
44.160        60
44.170        93
44.180        93
44.190        53
44.200        87
44.210       133
44.220        80
44.230        67
44.240       167
44.250       113
44.260       127
44.270       127
44.280        93
44.290       173
44.300        93
44.310       160
44.320       160
44.330       167
44.340       167
44.350       120
44.360       160
44.370       107
44.380       180
44.390       167
44.400       127
44.410       140
44.420       147
44.430       100
44.440       160
44.450       140
44.460       133
44.470       140
44.480       140
44.490       160
44.500       133
44.510       120
44.520        87
44.530        93
44.540       133
44.550        60
44.560        73
44.570        93
44.580        40
44.590        93
44.600       100
44.610        47
44.620        67
44.630        60
44.640        73
44.650        73
44.660        73
44.670        73
44.680        93
44.690        87
44.700        33
44.710        73
44.720        73
44.730        47
44.740        27
44.750        80
44.760        60
44.770        40
44.780        73
44.790        33
44.800        47
44.810        47
44.820        13
44.830        40
44.840        53
44.850        27
44.860        47
44.870        53
44.880        40
44.890        60
44.900        40
44.910         7
44.920        33
44.930        47
44.940        47
44.950        33
44.960        33
44.970        27
44.980        20
44.990        27
45.000        20
45.010        40
45.020        27
45.030        27
45.040        53
45.050        13
45.060        33
45.070        33
45.080        53
45.090        40
45.100        27
45.110        20
45.120        27
45.130        47
45.140        20
45.150        13
45.160        40
45.170        40
45.180        20
45.190        33
45.200        33
45.210        13
45.220        27
45.230        33
45.240        20
45.250        20
45.260         7
45.270        33
45.280        20
45.290        13
45.300        27
45.310        20
45.320        13
45.330        13
45.340        27
45.350        33
45.360        27
45.370        20
45.380         7
45.390        13
45.400        33
45.410        20
45.420        27
45.430        20
45.440        60
45.450        40
45.460        40
45.470        13
45.480        27
45.490        20
45.500        13
45.510         7
45.520        27
45.530        27
45.540        20
45.550        20
45.560         7
45.570        33
45.580         0
45.590        13
45.600        13
45.610        27
45.620        27
45.630        20
45.640        33
45.650        13
45.660        33
45.670         7
45.680        20
45.690        27
45.700        20
45.710        33
45.720        40
45.730        20
45.740        13
45.750         7
45.760        33
45.770        20
45.780         7
45.790         7
45.800         7
45.810         7
45.820        20
45.830        20
45.840        33
45.850        20
45.860        20
45.870         7
45.880        20
45.890        20
45.900        47
45.910        20
45.920        27
45.930        33
45.940        40
45.950         7
45.960         7
45.970        20
45.980        27
45.990        20
46.000        27
46.010        13
46.020        13
46.030        27
46.040        27
46.050         0
46.060        27
46.070        13
46.080        13
46.090         7
46.100        27
46.110        20
46.120        20
46.130         7
46.140        20
46.150         7
46.160         0
46.170        47
46.180        27
46.190        20
46.200         7
46.210         7
46.220        20
46.230         7
46.240        33
46.250        27
46.260        27
46.270        20
46.280        33
46.290        13
46.300        13
46.310         7
46.320        13
46.330        47
46.340        27
46.350        33
46.360        20
46.370        13
46.380        13
46.390        33
46.400         7
46.410        13
46.420        20
46.430        27
46.440         7
46.450        13
46.460         7
46.470        53
46.480        20
46.490        33
46.500         7
46.510        13
46.520        13
46.530         0
46.540        27
46.550        20
46.560        33
46.570        13
46.580        13
46.590        13
46.600        20
46.610         7
46.620        20
46.630        20
46.640        20
46.650        13
46.660        13
46.670        27
46.680        13
46.690        33
46.700        13
46.710         7
46.720        27
46.730        33
46.740        13
46.750        27
46.760        33
46.770        13
46.780        13
46.790         0
46.800        33
46.810         7
46.820        20
46.830        20
46.840        33
46.850         0
46.860         7
46.870         7
46.880        13
46.890         7
46.900         0
46.910        13
46.920        13
46.930        33
46.940        20
46.950         7
46.960        13
46.970         0
46.980        20
46.990        20
47.000         0
47.010        27
47.020        13
47.030        13
47.040        13
47.050        27
47.060         7
47.070        27
47.080         0
47.090        20
47.100         0
47.110        27
47.120        40
47.130         7
47.140         7
47.150        20
47.160        13
47.170         0
47.180         0
47.190        27
47.200        20
47.210         7
47.220        60
47.230         0
47.240        27
47.250        20
47.260        20
47.270        20
47.280         7
47.290        20
47.300        20
47.310         7
47.320        27
47.330        53
47.340        20
47.350        20
47.360         7
47.370        40
47.380        20
47.390        20
47.400         7
47.410        27
47.420         7
47.430        27
47.440         7
47.450         0
47.460        27
47.470        20
47.480        40
47.490        33
47.500        47
47.510        13
47.520         7
47.530         7
47.540        13
47.550        27
47.560        33
47.570        27
47.580         7
47.590        20
47.600         7
47.610        20
47.620        20
47.630         7
47.640        13
47.650         7
47.660         7
47.670        33
47.680         7
47.690         7
47.700         7
47.710        20
47.720        20
47.730        13
47.740         7
47.750        20
47.760         7
47.770        13
47.780        13
47.790        27
47.800         7
47.810        20
47.820        13
47.830        33
47.840         7
47.850        13
47.860         7
47.870         7
47.880         0
47.890        13
47.900        27
47.910         7
47.920         0
47.930        27
47.940        20
47.950         7
47.960        27
47.970         7
47.980        13
47.990        13
48.000        20
48.010        20
48.020        13
48.030        27
48.040        13
48.050        27
48.060        20
48.070        27
48.080        13
48.090        27
48.100        27
48.110        33
48.120        33
48.130        27
48.140         0
48.150         7
48.160        13
48.170         7
48.180        20
48.190        33
48.200         0
48.210        27
48.220        33
48.230        13
48.240         7
48.250        33
48.260        20
48.270        20
48.280         0
48.290         7
48.300        20
48.310         7
48.320         0
48.330         7
48.340        13
48.350        20
48.360        20
48.370        13
48.380        13
48.390        20
48.400        13
48.410         7
48.420        20
48.430        40
48.440        20
48.450        13
48.460        20
48.470         7
48.480        13
48.490        13
48.500         7
48.510        27
48.520        13
48.530         0
48.540        20
48.550        13
48.560         7
48.570        27
48.580        13
48.590        20
48.600        13
48.610        20
48.620         0
48.630        20
48.640         7
48.650        13
48.660        27
48.670         7
48.680        13
48.690        27
48.700        20
48.710        27
48.720        20
48.730        13
48.740        27
48.750        20
48.760         0
48.770        27
48.780         7
48.790         7
48.800        27
48.810         0
48.820        13
48.830        33
48.840        13
48.850        20
48.860         7
48.870        33
48.880        13
48.890        47
48.900        13
48.910         0
48.920        40
48.930        20
48.940        13
48.950         7
48.960        20
48.970         0
48.980        13
48.990        47
49.000        27
49.010         0
49.020        13
49.030        13
49.040        33
49.050        40
49.060        33
49.070        20
49.080        13
49.090        13
49.100        20
49.110        20
49.120        13
49.130         7
49.140        13
49.150        20
49.160        33
49.170        13
49.180         0
49.190        13
49.200         7
49.210        27
49.220        20
49.230        20
49.240        13
49.250        20
49.260        13
49.270         0
49.280        27
49.290         7
49.300         7
49.310         7
49.320         7
49.330        20
49.340         7
49.350        20
49.360        20
49.370         7
49.380         7
49.390        27
49.400        13
49.410        20
49.420        20
49.430         7
49.440         0
49.450         7
49.460        20
49.470         7
49.480        47
49.490         7
49.500        27
49.510        20
49.520         7
49.530         7
49.540        13
49.550         7
49.560        20
49.570        20
49.580         0
49.590        20
49.600        13
49.610        27
49.620        33
49.630         0
49.640        27
49.650         7
49.660        27
49.670        20
49.680        27
49.690        13
49.700        13
49.710        13
49.720        13
49.730        33
49.740         7
49.750         7
49.760        27
49.770        13
49.780        27
49.790         0
49.800        20
49.810        27
49.820        13
49.830        13
49.840        33
49.850        20
49.860        20
49.870        27
49.880         7
49.890         0
49.900        20
49.910        20
49.920        27
49.930        20
49.940         7
49.950        27
49.960        13
49.970        13
49.980        13
49.990        53
50.000        47
50.010        27
50.020        40
50.030        13
50.040        20
50.050        47
50.060        40
50.070        20
50.080        20
50.090        27
50.100        13
50.110        13
50.120        13
50.130        33
50.140         7
50.150        20
50.160        20
50.170        20
50.180        27
50.190        27
50.200         7
50.210         7
50.220         7
50.230        13
50.240        13
50.250        20
50.260        13
50.270        40
50.280        13
50.290        20
50.300        13
50.310        20
50.320        13
50.330         7
50.340         0
50.350        33
50.360        13
50.370        13
50.380        13
50.390        27
50.400        13
50.410        20
50.420        20
50.430        27
50.440        13
50.450        13
50.460        33
50.470        27
50.480        27
50.490        13
50.500         7
50.510        27
50.520        47
50.530        20
50.540         0
50.550        13
50.560         7
50.570        13
50.580        20
50.590         0
50.600        13
50.610        13
50.620         7
50.630         7
50.640         7
50.650        13
50.660       167
50.670        27
50.680        13
50.690         0
50.700        13
50.710        20
50.720        13
50.730        13
50.740        13
50.750        13
50.760        20
50.770        20
50.780        20
50.790        20
50.800        13
50.810         7
50.820        13
50.830        13
50.840        13
50.850        13
50.860        20
50.870        27
50.880        13
50.890         0
50.900         7
50.910        13
50.920        13
50.930        13
50.940        13
50.950        20
50.960        27
50.970        27
50.980         7
50.990        13
51.000        20
51.010         7
51.020        20
51.030        27
51.040         0
51.050        13
51.060        13
51.070         7
51.080        27
51.090         7
51.100        27
51.110         0
51.120        27
51.130        33
51.140        20
51.150         7
51.160        20
51.170         7
51.180        27
51.190        20
51.200        20
51.210        20
51.220        20
51.230        20
51.240        13
51.250         7
51.260         0
51.270        27
51.280        13
51.290        20
51.300         7
51.310        20
51.320        13
51.330         0
51.340        13
51.350        27
51.360        13
51.370         0
51.380         7
51.390        20
51.400        20
51.410        27
51.420        13
51.430        13
51.440         7
51.450         0
51.460        27
51.470        27
51.480         0
51.490         7
51.500        13
51.510        20
51.520        20
51.530        27
51.540        13
51.550        13
51.560         7
51.570        27
51.580         7
51.590        27
51.600         7
51.610        13
51.620        20
51.630         7
51.640        40
51.650        13
51.660        40
51.670         0
51.680        13
51.690         7
51.700        13
51.710         7
51.720        20
51.730         0
51.740        20
51.750        13
51.760        13
51.770        13
51.780         0
51.790        27
51.800        20
51.810        13
51.820        33
51.830        13
51.840         7
51.850         7
51.860         7
51.870        33
51.880         0
51.890         0
51.900        27
51.910        13
51.920         0
51.930        20
51.940        13
51.950        27
51.960        20
51.970        20
51.980        33
51.990         7
52.000         7
52.010         7
52.020         7
52.030         7
52.040         7
52.050         7
52.060        20
52.070        33
52.080         0
52.090         7
52.100         7
52.110        20
52.120         7
52.130         7
52.140        13
52.150        27
52.160         7
52.170         7
52.180        13
52.190         7
52.200         7
52.210        20
52.220         7
52.230         7
52.240        20
52.250         7
52.260         0
52.270        13
52.280        20
52.290         7
52.300         0
52.310         0
52.320         7
52.330        27
52.340        20
52.350         0
52.360        27
52.370        20
52.380        13
52.390        13
52.400        20
52.410        20
52.420         7
52.430         0
52.440        27
52.450        13
52.460        13
52.470        60
52.480        13
52.490        20
52.500        53
52.510        53
52.520        40
52.530        67
52.540        80
52.550       113
52.560        87
52.570       133
52.580       120
52.590       173
52.600       107
52.610       153
52.620        93
52.630        73
52.640        20
52.650        47
52.660        27
52.670        33
52.680        40
52.690        33
52.700        33
52.710        20
52.720       127
52.730       113
52.740        33
52.750        80
52.760        67
52.770        27
52.780        27
52.790        33
52.800        33
52.810        40
52.820         7
52.830        27
52.840         7
52.850        13
52.860        13
52.870        13
52.880        13
52.890        20
52.900        13
52.910        13
52.920        27
52.930        20
52.940        20
52.950         0
52.960        20
52.970         7
52.980         0
52.990        13
53.000        13
53.010         0
53.020        20
53.030        40
53.040         7
53.050         0
53.060        33
53.070        33
53.080        27
53.090        13
53.100        20
53.110        20
53.120        20
53.130         0
53.140        27
53.150        13
53.160        13
53.170         7
53.180         0
53.190        13
53.200         7
53.210        13
53.220         7
53.230        27
53.240        20
53.250         0
53.260        13
53.270         7
53.280         7
53.290        33
53.300        13
53.310        20
53.320        20
53.330        13
53.340        20
53.350        40
53.360        13
53.370        20
53.380        13
53.390        33
53.400        20
53.410        13
53.420         7
53.430        20
53.440         7
53.450         7
53.460        27
53.470        13
53.480        20
53.490         7
53.500         0
53.510        20
53.520        20
53.530        13
53.540         0
53.550        20
53.560         7
53.570        20
53.580         0
53.590         7
53.600        13
53.610        20
53.620         0
53.630        33
53.640         7
53.650        20
53.660        13
53.670        13
53.680         7
53.690        27
53.700        20
53.710        20
53.720        27
53.730         7
53.740        20
53.750         7
53.760         7
53.770         7
53.780         0
53.790        20
53.800        27
53.810        13
53.820        27
53.830        13
53.840        13
53.850        20
53.860        20
53.870        20
53.880        27
53.890        33
53.900        40
53.910         0
53.920        13
53.930         0
53.940        20
53.950        13
53.960        20
53.970        33
53.980        20
53.990         7
54.000         7
54.010         0
54.020        13
54.030         7
54.040        13
54.050         0
54.060         0
54.070         0
54.080         7
54.090        13
54.100        20
54.110        40
54.120         0
54.130        20
54.140        13
54.150        13
54.160         0
54.170         7
54.180         0
54.190         7
54.200        27
54.210        13
54.220        13
54.230        13
54.240        27
54.250        27
54.260         7
54.270        27
54.280         0
54.290        13
54.300        20
54.310        40
54.320        33
54.330        13
54.340        27
54.350         7
54.360         0
54.370        27
54.380        13
54.390         7
54.400        13
54.410        13
54.420        13
54.430         0
54.440        27
54.450         7
54.460        33
54.470         0
54.480        20
54.490         7
54.500        40
54.510         7
54.520         7
54.530        20
54.540        33
54.550        13
54.560        20
54.570        13
54.580         7
54.590        13
54.600         7
54.610        27
54.620        13
54.630        20
54.640        13
54.650        27
54.660        33
54.670        13
54.680         7
54.690        27
54.700         0
54.710        33
54.720        20
54.730        13
54.740         7
54.750         0
54.760         0
54.770         7
54.780        13
54.790        20
54.800        13
54.810        13
54.820        27
54.830        40
54.840        40
54.850        13
54.860        13
54.870         0
54.880         0
54.890         7
54.900        20
54.910         7
54.920        13
54.930        13
54.940        13
54.950        47
54.960        27
54.970        13
54.980         7
54.990         7
55.000        13
55.010        20
55.020         0
55.030         7
55.040         0
55.050         7
55.060        27
55.070         0
55.080        20
55.090        47
55.100        40
55.110         7
55.120        13
55.130         7
55.140        27
55.150        40
55.160         7
55.170        20
55.180        27
55.190        13
55.200        13
55.210        20
55.220        33
55.230        33
55.240        20
55.250        13
55.260        13
55.270        73
55.280        33
55.290        20
55.300        47
55.310        47
55.320        20
55.330        53
55.340        40
55.350        20
55.360        20
55.370        33
55.380        33
55.390        27
55.400        33
55.410        33
55.420        20
55.430        40
55.440        33
55.450        47
55.460        53
55.470        33
55.480        33
55.490        33
55.500        20
55.510        33
55.520         7
55.530        13
55.540        33
55.550        53
55.560        13
55.570        20
55.580         7
55.590        27
55.600        40
55.610        33
55.620        27
55.630        20
55.640        27
55.650        27
55.660        53
55.670        33
55.680        20
55.690        13
55.700        27
55.710        27
55.720        13
55.730        53
55.740        20
55.750        27
55.760        13
55.770        40
55.780        20
55.790        20
55.800        13
55.810        13
55.820        13
55.830         7
55.840         7
55.850        27
55.860        27
55.870        13
55.880        13
55.890        20
55.900        20
55.910        20
55.920        33
55.930        13
55.940        20
55.950        20
55.960        13
55.970        13
55.980         0
55.990        13
56.000         0
56.010         7
56.020        13
56.030        13
56.040        13
56.050        13
56.060        40
56.070        13
56.080        13
56.090        13
56.100        20
56.110        27
56.120         7
56.130         7
56.140         7
56.150        20
56.160        20
56.170         7
56.180         7
56.190        20
56.200        13
56.210        13
56.220        20
56.230        13
56.240         7
56.250        33
56.260        13
56.270        13
56.280         0
56.290         7
56.300        13
56.310         7
56.320         0
56.330        33
56.340         7
56.350        13
56.360        20
56.370         7
56.380         7
56.390        13
56.400        20
56.410         7
56.420        20
56.430        13
56.440        13
56.450        27
56.460        13
56.470        13
56.480         7
56.490        27
56.500         0
56.510        33
56.520        20
56.530        13
56.540         7
56.550         7
56.560        13
56.570         0
56.580        13
56.590        20
56.600        13
56.610        20
56.620        13
56.630        13
56.640        13
56.650        33
56.660         0
56.670        13
56.680        27
56.690        27
56.700        13
56.710        13
56.720         7
56.730        13
56.740        13
56.750         7
56.760         0
56.770        20
56.780         7
56.790         7
56.800         0
56.810        33
56.820        27
56.830         7
56.840        27
56.850        13
56.860         7
56.870        20
56.880        13
56.890        27
56.900         0
56.910        20
56.920        13
56.930         0
56.940        13
56.950        20
56.960        13
56.970        13
56.980        13
56.990        20
57.000         0
57.010         7
57.020        20
57.030        13
57.040         7
57.050        27
57.060        13
57.070         0
57.080        20
57.090        27
57.100        27
57.110        13
57.120        20
57.130         7
57.140        20
57.150        13
57.160        13
57.170        27
57.180         7
57.190        47
57.200         7
57.210         7
57.220        20
57.230        27
57.240        47
57.250        33
57.260         7
57.270        20
57.280        13
57.290        20
57.300        33
57.310         7
57.320        20
57.330         7
57.340        13
57.350        33
57.360        47
57.370        40
57.380         0
57.390        33
57.400        33
57.410         0
57.420        67
57.430        20
57.440        33
57.450        53
57.460        53
57.470        60
57.480        80
57.490       107
57.500       107
57.510       140
57.520       100
57.530       193
57.540       147
57.550       180
57.560       127
57.570       107
57.580       107
57.590        33
57.600        33
57.610        60
57.620        47
57.630        53
57.640        53
57.650        47
57.660        93
57.670        40
57.680        67
57.690        80
57.700        87
57.710        73
57.720        60
57.730        80
57.740        33
57.750         7
57.760        13
57.770         7
57.780        33
57.790        33
57.800        33
57.810         7
57.820        40
57.830         0
57.840        20
57.850        13
57.860        13
57.870        13
57.880        20
57.890        13
57.900         7
57.910        27
57.920        27
57.930        13
57.940        33
57.950        13
57.960         0
57.970        20
57.980        13
57.990        13
58.000        33
58.010        20
58.020         7
58.030        13
58.040        13
58.050        27
58.060         7
58.070        13
58.080        20
58.090        13
58.100        13
58.110        13
58.120        20
58.130        13
58.140        20
58.150        13
58.160         7
58.170         7
58.180        20
58.190        13
58.200        27
58.210         7
58.220        13
58.230         0
58.240         7
58.250         7
58.260        20
58.270        20
58.280        20
58.290        20
58.300        27
58.310         0
58.320        13
58.330        13
58.340        13
58.350         7
58.360         7
58.370         7
58.380        13
58.390        20
58.400         7
58.410         0
58.420         7
58.430        13
58.440         7
58.450        13
58.460         7
58.470        20
58.480         7
58.490        13
58.500        27
58.510        13
58.520         7
58.530        20
58.540        13
58.550         0
58.560        13
58.570         7
58.580         7
58.590        13
58.600         0
58.610         0
58.620        27
58.630        13
58.640        13
58.650         7
58.660         0
58.670        27
58.680        13
58.690         7
58.700         0
58.710         0
58.720         7
58.730         7
58.740         7
58.750         7
58.760        20
58.770        13
58.780         7
58.790        33
58.800        20
58.810         0
58.820        20
58.830        27
58.840         0
58.850         0
58.860         0
58.870        20
58.880         0
58.890         0
58.900         7
58.910        27
58.920        13
58.930         7
58.940        20
58.950        13
58.960        13
58.970         7
58.980         0
58.990         7
59.000        20
59.010         7
59.020        27
59.030         7
59.040         7
59.050        33
59.060        27
59.070         7
59.080         0
59.090        13
59.100        13
59.110         0
59.120         7
59.130        33
59.140         0
59.150        27
59.160        13
59.170        20
59.180         7
59.190         0
59.200        27
59.210         7
59.220        13
59.230        13
59.240        27
59.250        20
59.260        13
59.270        27
59.280        20
59.290         7
59.300        13
59.310         0
59.320        13
59.330        33
59.340        20
59.350        20
59.360         7
59.370         7
59.380        13
59.390        13
59.400        33
59.410        13
59.420         7
59.430         7
59.440        13
59.450         7
59.460        13
59.470        20
59.480        20
59.490        20
59.500        20
59.510        33
59.520        13
59.530        33
59.540        13
59.550        13
59.560        13
59.570        27
59.580        27
59.590        20
59.600         7
59.610         7
59.620         0
59.630         7
59.640         0
59.650         0
59.660         0
59.670         7
59.680        13
59.690         7
59.700         7
59.710         7
59.720         7
59.730         7
59.740        20
59.750        13
59.760         7
59.770        13
59.780         7
59.790        20
59.800         7
59.810         7
59.820        20
59.830         7
59.840        13
59.850        13
59.860         7
59.870        13
59.880        27
59.890        27
59.900         7
59.910        20
59.920        20
59.930        27
59.940         7
59.950         0
59.960        13
59.970         7
59.980        27
59.990        27
60.000        13
