20.000        40
20.010        40
20.020        47
20.030        27
20.040        60
20.050        20
20.060        27
20.070        47
20.080        60
20.090        67
20.100        47
20.110        33
20.120        47
20.130        40
20.140        60
20.150        33
20.160        40
20.170        47
20.180        33
20.190        53
20.200        53
20.210        53
20.220        20
20.230        27
20.240        47
20.250        27
20.260        53
20.270        53
20.280        40
20.290        60
20.300        60
20.310        20
20.320        47
20.330        33
20.340        73
20.350        27
20.360        13
20.370        47
20.380        53
20.390        20
20.400        80
20.410        40
20.420        47
20.430        40
20.440        40
20.450        53
20.460        60
20.470         7
20.480        73
20.490        67
20.500        40
20.510        47
20.520        40
20.530        60
20.540        40
20.550        53
20.560        27
20.570        60
20.580        13
20.590        67
20.600        40
20.610        53
20.620        67
20.630        27
20.640        73
20.650        40
20.660        60
20.670        33
20.680        53
20.690        67
20.700        47
20.710        53
20.720        60
20.730        53
20.740        67
20.750        47
20.760        60
20.770        53
20.780        47
20.790        33
20.800        27
20.810        40
20.820        47
20.830        27
20.840        67
20.850        27
20.860        67
20.870        67
20.880        53
20.890        80
20.900        47
20.910        40
20.920        47
20.930        47
20.940        33
20.950        40
20.960        60
20.970        73
20.980        33
20.990        20
21.000        27
21.010        33
21.020        67
21.030        47
21.040        33
21.050        67
21.060        20
21.070        47
21.080        33
21.090        53
21.100        40
21.110        40
21.120        73
21.130        80
21.140        47
21.150        47
21.160        27
21.170        40
21.180        40
21.190        33
21.200        73
21.210        53
21.220        20
21.230        53
21.240        73
21.250        33
21.260        87
21.270        67
21.280        73
21.290        33
21.300        13
21.310       100
21.320        27
21.330        73
21.340        60
21.350        67
21.360        40
21.370        47
21.380        67
21.390        60
21.400        87
21.410        60
21.420        33
21.430        93
21.440        80
21.450       107
21.460       100
21.470        47
21.480        73
21.490        60
21.500        67
21.510        60
21.520        60
21.530        93
21.540       100
21.550       140
21.560        67
21.570       100
21.580       107
21.590       127
21.600       140
21.610       120
21.620        73
21.630       140
21.640        87
21.650       140
21.660       140
21.670       120
21.680       127
21.690        93
21.700       113
21.710        73
21.720       107
21.730       140
21.740       100
21.750       113
21.760       113
21.770        80
21.780        80
21.790        53
21.800        60
21.810        53
21.820       107
21.830        47
21.840        67
21.850        53
21.860        60
21.870        53
21.880        73
21.890        40
21.900        73
21.910        53
21.920        93
21.930        47
21.940        33
21.950        60
21.960        27
21.970        33
21.980        80
21.990        67
22.000        33
22.010        60
22.020        40
22.030        27
22.040        27
22.050        47
22.060        33
22.070        67
22.080        40
22.090        33
22.100        60
22.110        53
22.120        27
22.130        20
22.140        33
22.150        27
22.160        40
22.170        93
22.180        33
22.190        60
22.200        67
22.210       113
22.220        40
22.230        20
22.240        67
22.250        53
22.260        20
22.270        27
22.280        60
22.290        27
22.300        47
22.310        53
22.320        27
22.330        53
22.340        33
22.350        40
22.360        27
22.370        40
22.380        40
22.390        13
22.400        53
22.410        47
22.420        20
22.430        73
22.440        33
22.450        27
22.460        73
22.470        53
22.480        60
22.490        27
22.500        33
22.510        27
22.520        60
22.530        40
22.540        40
22.550        47
22.560        40
22.570        67
22.580        33
22.590        40
22.600        27
22.610        20
22.620        53
22.630        33
22.640        40
22.650        53
22.660        27
22.670        20
22.680        60
22.690        40
22.700        47
22.710        80
22.720        53
22.730        13
22.740        20
22.750         7
22.760        73
22.770        40
22.780        67
22.790        53
22.800        53
22.810        47
22.820        60
22.830        73
22.840        47
22.850        60
22.860        53
22.870        53
22.880        13
22.890        47
22.900        27
22.910        20
22.920        40
22.930        73
22.940        53
22.950        27
22.960        60
22.970        67
22.980        93
22.990        40
23.000        40
23.010        67
23.020        40
23.030        33
23.040        73
23.050        67
23.060        60
23.070        47
23.080        20
23.090        13
23.100        33
23.110        60
23.120        67
23.130        33
23.140        27
23.150        47
23.160        53
23.170        27
23.180        53
23.190        27
23.200        47
23.210        27
23.220        53
23.230        60
23.240        40
23.250        27
23.260        20
23.270        67
23.280        13
23.290        27
23.300        47
23.310        40
23.320        47
23.330        60
23.340        33
23.350        87
23.360        67
23.370        53
23.380         7
23.390        67
23.400        47
23.410        73
23.420        53
23.430        27
23.440        53
23.450        20
23.460        60
23.470        67
23.480        40
23.490        33
23.500        33
23.510        47
23.520        47
23.530        80
23.540        40
23.550        13
23.560        27
23.570        53
23.580        80
23.590        47
23.600        60
23.610        73
23.620        20
23.630        47
23.640        27
23.650        13
23.660        47
23.670        27
23.680        47
23.690        60
23.700        53
23.710        40
23.720        53
23.730        20
23.740        67
23.750        53
23.760        47
23.770        13
23.780        40
23.790        20
23.800        73
23.810        13
23.820        60
23.830        53
23.840        20
23.850        33
23.860        33
23.870         7
23.880        40
23.890        20
23.900        40
23.910        53
23.920        47
23.930        33
23.940        33
23.950        33
23.960        53
23.970        47
23.980         7
23.990        47
24.000        27
24.010        33
24.020        27
24.030        33
24.040        60
24.050        47
24.060        60
24.070        47
24.080        40
24.090        33
24.100        40
24.110        33
24.120        47
24.130        53
24.140        53
24.150        60
24.160        40
24.170        53
24.180        27
24.190        47
24.200        33
24.210        33
24.220        33
24.230        27
24.240        20
24.250        27
24.260        60
24.270        47
24.280        40
24.290        20
24.300        33
24.310        13
24.320        60
24.330         7
24.340        33
24.350        33
24.360        47
24.370        27
24.380        40
24.390        40
24.400        40
24.410        33
24.420        53
24.430        73
24.440        20
24.450        13
24.460        40
24.470        47
24.480        33
24.490        33
24.500        80
24.510        53
24.520        73
24.530        40
24.540        40
24.550        53
24.560        67
24.570        27
24.580       100
24.590        73
24.600        33
24.610        67
24.620        47
24.630        67
24.640        40
24.650        40
24.660        33
24.670        20
24.680        53
24.690        47
24.700        47
24.710        73
24.720        53
24.730        87
24.740        60
24.750        80
24.760        60
24.770        67
24.780        53
24.790        53
24.800        67
24.810        53
24.820        60
24.830        53
24.840        60
24.850        67
24.860        80
24.870        53
24.880        80
24.890        47
24.900        60
24.910        53
24.920        27
24.930        47
24.940        60
24.950        60
24.960        53
24.970        73
24.980        40
24.990        20
25.000        33
25.010        87
25.020        27
25.030        67
25.040        47
25.050        73
25.060        20
25.070        33
25.080        60
25.090        67
25.100        47
25.110        47
25.120        40
25.130        20
25.140        33
25.150        47
25.160        53
25.170        93
25.180        73
25.190        73
25.200        60
25.210       107
25.220       107
25.230       167
25.240       207
25.250       180
25.260       307
25.270       373
25.280       460
25.290       673
25.300       686
25.310       953
25.320      1313
25.330      1373
25.340      1506
25.350      1453
25.360      1706
25.370      1879
25.380      1793
25.390      1719
25.400      1806
25.410      1733
25.420      1586
25.430      1613
25.440      1346
25.450      1180
25.460      1173
25.470       940
25.480       780
25.490       920
25.500      1160
25.510      1053
25.520      1353
25.530      1386
25.540      1606
25.550      1759
25.560      1733
25.570      1386
25.580      1273
25.590      1180
25.600      1073
25.610       786
25.620       866
25.630       726
25.640       560
25.650       426
25.660       287
25.670       167
25.680       153
25.690       173
25.700        93
25.710        60
25.720        67
25.730        67
25.740        53
25.750        73
25.760        47
25.770        53
25.780        80
25.790        53
25.800        60
25.810       100
25.820        47
25.830        87
25.840        67
25.850        67
25.860        93
25.870        80
25.880        80
25.890        47
25.900       100
25.910        53
25.920        73
25.930        47
25.940        33
25.950        40
25.960        47
25.970        20
25.980        80
25.990        87
26.000        60
26.010        33
26.020        47
26.030        53
26.040        67
26.050        47
26.060        27
26.070        67
26.080        27
26.090        53
26.100        67
26.110        60
26.120        53
26.130        53
26.140        73
26.150        47
26.160        47
26.170        40
26.180        33
26.190        73
26.200        60
26.210        53
26.220        67
26.230        53
26.240        33
26.250        40
26.260        20
26.270        53
26.280        27
26.290        67
26.300        47
26.310        60
26.320        20
26.330        40
26.340        20
26.350        47
26.360        73
26.370        33
26.380        53
26.390        60
26.400        47
26.410        67
26.420        47
26.430        67
26.440        40
26.450        60
26.460        40
26.470        60
26.480        80
26.490        27
26.500        73
26.510        60
26.520        27
26.530        60
26.540        40
26.550        40
26.560        47
26.570        33
26.580        73
26.590        67
26.600        33
26.610        47
26.620        67
26.630        53
26.640        40
26.650        27
26.660        33
26.670        60
26.680        53
26.690        60
26.700        33
26.710        27
26.720        27
26.730        40
26.740        60
26.750        47
26.760        73
26.770        47
26.780        40
26.790        40
26.800        40
26.810        40
26.820        40
26.830        53
26.840         0
26.850        27
26.860        47
26.870        20
26.880        47
26.890        13
26.900        20
26.910        93
26.920        40
26.930        27
26.940        53
26.950        87
26.960        40
26.970        80
26.980        20
26.990        33
27.000        47
27.010        40
27.020        40
27.030        47
27.040        60
27.050        93
27.060        33
27.070        20
27.080        27
27.090        20
27.100        60
27.110        40
27.120        33
27.130        53
27.140        40
27.150        53
27.160        27
27.170        27
27.180        47
27.190        40
27.200        67
27.210        33
27.220        13
27.230        47
27.240        40
27.250        47
27.260        47
27.270        33
27.280        67
27.290        53
27.300        53
27.310        47
27.320        60
27.330        53
27.340        20
27.350        53
27.360        53
27.370        33
27.380        20
27.390         7
27.400        33
27.410        33
27.420        20
27.430        53
27.440        60
27.450        47
27.460        47
27.470        53
27.480        27
27.490        27
27.500        40
27.510        40
27.520        47
27.530        40
27.540        33
27.550        47
27.560        33
27.570        60
27.580        40
27.590        33
27.600        27
27.610        60
27.620        27
27.630        60
27.640        67
27.650        60
27.660       120
27.670        47
27.680        60
27.690        67
27.700        33
27.710        33
27.720        40
27.730        53
27.740        80
27.750        40
27.760        53
27.770        67
27.780        40
27.790        93
27.800        60
27.810        53
27.820        40
27.830        67
27.840        33
27.850        53
27.860        67
27.870        53
27.880        47
27.890        60
27.900        67
27.910        60
27.920        53
27.930        93
27.940        73
27.950        40
27.960        53
27.970        67
27.980        73
27.990        60
28.000        73
28.010        47
28.020        47
28.030        33
28.040        40
28.050        60
28.060        60
28.070        47
28.080        60
28.090        27
28.100        27
28.110        33
28.120        53
28.130        67
28.140        53
28.150        53
28.160        80
28.170        67
28.180        27
28.190        67
28.200        27
28.210        47
28.220        27
28.230        47
28.240        53
28.250        40
28.260        67
28.270        33
28.280        40
28.290        33
28.300        47
28.310        27
28.320        40
28.330        27
28.340        40
28.350        33
28.360        13
28.370        33
28.380        33
28.390        33
28.400        27
28.410        53
28.420        13
28.430        33
28.440        33
28.450        40
28.460        33
28.470        53
28.480        47
28.490        47
28.500        33
28.510        53
28.520        40
28.530        47
28.540        27
28.550        40
28.560        40
28.570        53
28.580        27
28.590        67
28.600        33
28.610        47
28.620        27
28.630        33
28.640        47
28.650        40
28.660        47
28.670        13
28.680        40
28.690        33
28.700        47
28.710        33
28.720        40
28.730        33
28.740        67
28.750        20
28.760        53
28.770        60
28.780        33
28.790        27
28.800        53
28.810        40
28.820        53
28.830        33
28.840        20
28.850        67
28.860        40
28.870        40
28.880        33
28.890        27
28.900        40
28.910        87
28.920        73
28.930        47
28.940        40
28.950        27
28.960        73
28.970        40
28.980        47
28.990        20
29.000        13
29.010        33
29.020        73
29.030        53
29.040        33
29.050        87
29.060        40
29.070        27
29.080        53
29.090        47
29.100        60
29.110        67
29.120        47
29.130        53
29.140        87
29.150        33
29.160        40
29.170        73
29.180        60
29.190        40
29.200        40
29.210        87
29.220        73
29.230        80
29.240        60
29.250        93
29.260        53
29.270        87
29.280        73
29.290       140
29.300        60
29.310        73
29.320        73
29.330        93
29.340        40
29.350       100
29.360        93
29.370        80
29.380        47
29.390        53
29.400        67
29.410        53
29.420        40
29.430        20
29.440        33
29.450        53
29.460        47
29.470        33
29.480        53
29.490        60
29.500        47
29.510        53
29.520        67
29.530        73
29.540        60
29.550        40
29.560        13
29.570        33
29.580        67
29.590        53
29.600        33
29.610        40
29.620        60
29.630        47
29.640        60
29.650        47
29.660        67
29.670        20
29.680        27
29.690        20
29.700        53
29.710        20
29.720        13
29.730        40
29.740        40
29.750        47
29.760        47
29.770        53
29.780        27
29.790        33
29.800        67
29.810        53
29.820        13
29.830        67
29.840       100
29.850        67
29.860        40
29.870        33
29.880        80
29.890        53
29.900        53
29.910        80
29.920        33
29.930        60
29.940        67
29.950        53
29.960        67
29.970        60
29.980        60
29.990        40
30.000        47
30.010        60
30.020        60
30.030        47
30.040        40
30.050        27
30.060        40
30.070        33
30.080        67
30.090        27
30.100        47
30.110        87
30.120        67
30.130        47
30.140        60
30.150        27
30.160        27
30.170        47
30.180        60
30.190        47
30.200        27
30.210        87
30.220        53
30.230        67
30.240        67
30.250        13
30.260        20
30.270        53
30.280        53
30.290        67
30.300        73
30.310        47
30.320        33
30.330        27
30.340        53
30.350        40
30.360        53
30.370        67
30.380        67
30.390        67
30.400        20
30.410        53
30.420        80
30.430        73
30.440        73
30.450        67
30.460        33
30.470        80
30.480        53
30.490        60
30.500        80
30.510        47
30.520        73
30.530        67
30.540        60
30.550        53
30.560        73
30.570       107
30.580        47
30.590        53
30.600        33
30.610       100
30.620        73
30.630        67
30.640        87
30.650       100
30.660       113
30.670        53
30.680       147
30.690       107
30.700        67
30.710       133
30.720        87
30.730       100
30.740       167
30.750       167
30.760       173
30.770       193
30.780       233
30.790       287
30.800       320
30.810       353
30.820       340
30.830       440
30.840       480
30.850       480
30.860       566
30.870       706
30.880       646
30.890       820
30.900       673
30.910      1100
30.920      1113
30.930      1033
30.940      1306
30.950      1453
30.960      1406
30.970      1553
30.980      1433
30.990      1486
31.000      1586
31.010      1599
31.020      1666
31.030      1386
31.040      1493
31.050      1493
31.060      1259
31.070      1066
31.080      1146
31.090      1153
31.100       893
31.110       786
31.120       706
31.130       686
31.140       573
31.150       426
31.160       480
31.170       433
31.180       300
31.190       307
31.200       313
31.210       233
31.220       213
31.230       153
31.240       167
31.250       187
31.260        93
31.270       153
31.280       113
31.290        87
31.300       100
31.310        73
31.320        73
31.330       113
31.340        60
31.350        80
31.360       113
31.370       133
31.380        80
31.390        73
31.400        33
31.410        80
31.420        73
31.430        80
31.440        60
31.450        73
31.460        60
31.470        67
31.480        67
31.490        40
31.500        67
31.510        40
31.520        73
31.530        67
31.540        40
31.550       113
31.560       100
31.570        40
31.580        47
31.590        47
31.600        73
31.610        80
31.620        40
31.630        33
31.640        93
31.650        27
31.660        47
31.670        80
31.680        60
31.690        33
31.700       113
31.710        80
31.720        47
31.730        53
31.740        40
31.750        40
31.760        73
31.770        53
31.780        73
31.790        80
31.800       127
31.810        80
31.820        40
31.830        73
31.840        60
31.850        60
31.860        40
31.870        73
31.880        87
31.890        73
31.900        53
31.910        53
31.920        33
31.930        53
31.940        60
31.950        53
31.960        67
31.970        53
31.980        60
31.990        53
32.000        13
32.010        80
32.020        47
32.030        33
32.040        73
32.050        40
32.060        60
32.070        53
32.080        60
32.090         7
32.100        60
32.110        40
32.120        67
32.130        60
32.140        60
32.150        60
32.160        73
32.170        80
32.180        87
32.190        20
32.200        40
32.210        40
32.220        60
32.230        67
32.240        53
32.250        73
32.260        53
32.270        67
32.280        40
32.290        60
32.300        47
32.310        20
32.320        53
32.330        73
32.340        53
32.350        47
32.360        47
32.370        87
32.380        47
32.390        40
32.400        60
32.410        93
32.420        33
32.430        40
32.440        47
32.450        47
32.460        33
32.470        67
32.480        80
32.490       100
32.500        93
32.510        53
32.520        53
32.530        67
32.540        93
32.550        67
32.560        60
32.570        40
32.580        80
32.590        47
32.600        67
32.610        60
32.620        20
32.630        33
32.640        33
32.650        60
32.660        27
32.670        47
32.680        47
32.690        47
32.700        47
32.710        47
32.720        67
32.730        40
32.740        60
32.750        40
32.760        47
32.770        33
32.780        53
32.790        33
32.800        33
32.810        47
32.820        53
32.830        40
32.840        40
32.850        13
32.860        27
32.870        73
32.880        60
32.890        47
32.900        67
32.910        60
32.920        60
32.930        47
32.940        80
32.950        47
32.960        87
32.970        40
32.980        33
32.990        27
33.000        47
33.010        53
33.020        67
33.030        73
33.040        47
33.050        47
33.060        67
33.070        67
33.080        40
33.090        67
33.100        60
33.110        33
33.120        33
33.130        53
33.140        67
33.150        53
33.160        73
33.170        27
33.180        53
33.190        40
33.200        33
33.210        47
33.220        47
33.230        53
33.240        53
33.250        20
33.260        53
33.270        53
33.280        53
33.290        33
33.300        53
33.310        40
33.320        53
33.330        13
33.340        73
33.350        87
33.360        53
33.370        67
33.380        27
33.390        53
33.400        40
33.410        27
33.420        27
33.430        47
33.440        40
33.450        53
33.460        40
33.470        67
33.480        47
33.490        73
33.500        60
33.510        33
33.520        53
33.530        47
33.540        47
33.550        73
33.560        27
33.570        27
33.580        67
33.590        60
33.600        60
33.610        47
33.620        33
33.630        27
33.640        80
33.650        87
33.660        40
33.670        60
33.680        60
33.690        53
33.700        27
33.710        53
33.720        67
33.730        47
33.740        53
33.750        27
33.760        60
33.770        60
33.780        67
33.790        67
33.800        33
33.810        60
33.820        53
33.830        40
33.840        40
33.850        67
33.860        33
33.870        80
33.880        47
33.890        40
33.900        60
33.910        60
33.920        53
33.930        53
33.940        67
33.950        53
33.960        27
33.970        60
33.980        33
33.990        67
34.000        40
34.010        53
34.020        47
34.030        60
34.040        60
34.050        47
34.060        40
34.070        33
34.080        47
34.090        47
34.100        47
34.110        87
34.120        80
34.130        87
34.140        33
34.150        87
34.160        53
34.170        87
34.180        93
34.190        40
34.200        60
34.210        53
34.220        27
34.230        60
34.240        47
34.250        60
34.260        93
34.270        60
34.280        40
34.290        80
34.300        73
34.310        67
34.320        60
34.330        73
34.340        33
34.350        53
34.360        53
34.370        87
34.380        93
34.390        40
34.400        80
34.410        87
34.420        60
34.430        73
34.440        87
34.450        67
34.460        67
34.470        73
34.480        60
34.490        87
34.500        53
34.510        53
34.520        53
34.530        53
34.540        60
34.550        53
34.560        53
34.570        67
34.580        93
34.590        47
34.600        47
34.610        53
34.620        53
34.630        67
34.640        60
34.650        27
34.660        47
34.670        60
34.680        47
34.690        67
34.700        53
34.710        47
34.720        33
34.730        93
34.740        67
34.750        33
34.760        67
34.770        67
34.780        67
34.790       107
34.800        20
34.810        33
34.820        80
34.830        93
34.840        40
34.850       120
34.860        67
34.870        67
34.880        80
34.890        33
34.900        80
34.910        47
34.920        73
34.930        27
34.940        80
34.950        40
34.960        33
34.970       113
34.980        93
34.990        47
35.000        27
35.010        53
35.020        67
35.030        67
35.040        40
35.050        20
35.060        80
35.070        80
35.080        93
35.090        60
35.100        47
35.110        47
35.120        80
35.130        60
35.140        67
35.150        53
35.160        80
35.170        40
35.180        40
35.190        53
35.200        40
35.210        40
35.220        73
35.230        33
35.240        60
35.250        53
35.260        60
35.270        73
35.280        40
35.290        53
35.300        60
35.310        67
35.320        53
35.330        60
35.340        53
35.350        33
35.360        60
35.370        60
35.380        60
35.390        40
35.400        60
35.410        33
35.420        80
35.430        67
35.440        80
35.450        27
35.460        53
35.470       100
35.480       113
35.490        60
35.500        80
35.510        67
35.520        80
35.530        47
35.540        93
35.550       107
35.560        73
35.570        60
35.580       107
35.590        73
35.600        47
35.610        67
35.620        60
35.630        60
35.640        87
35.650        67
35.660       100
35.670        80
35.680        73
35.690        67
35.700        67
35.710        93
35.720        67
35.730       107
35.740        53
35.750        87
35.760        80
35.770       107
35.780        80
35.790        93
35.800        67
35.810        47
35.820        87
35.830        60
35.840        60
35.850        60
35.860        93
35.870        67
35.880        53
35.890        73
35.900        87
35.910       100
35.920        87
35.930       100
35.940        93
35.950        73
35.960       107
35.970        93
35.980        87
35.990        73
36.000        67
36.010        93
36.020        40
36.030        60
36.040        87
36.050        87
36.060        80
36.070        80
36.080        80
36.090        60
36.100        80
36.110        67
36.120        80
36.130       107
36.140        93
36.150        80
36.160       100
36.170        93
36.180        73
36.190        67
36.200        40
36.210        87
36.220        53
36.230        67
36.240        87
36.250        67
36.260        73
36.270        80
36.280        53
36.290        60
36.300        80
36.310       100
36.320        40
36.330        93
36.340        87
36.350       100
36.360        87
36.370       107
36.380       107
36.390        67
36.400        60
36.410        80
36.420        73
36.430        73
36.440       100
36.450        80
36.460        40
36.470        67
36.480        87
36.490        53
36.500        73
36.510        60
36.520        53
36.530        53
36.540        80
36.550        47
36.560        33
36.570        73
36.580        60
36.590        93
36.600        73
36.610        73
36.620        73
36.630        93
36.640        47
36.650        67
36.660        53
36.670        73
36.680        60
36.690        40
36.700        47
36.710       127
36.720        80
36.730        33
36.740        60
36.750        73
36.760        40
36.770        53
36.780        60
36.790        67
36.800        67
36.810        60
36.820        80
36.830        73
36.840        73
36.850        73
36.860        47
36.870        47
36.880        47
36.890        53
36.900        27
36.910        67
36.920        60
36.930        73
36.940        53
36.950        73
36.960        67
36.970        87
36.980        27
36.990        33
37.000        73
37.010        20
37.020        47
37.030        67
37.040        60
37.050        33
37.060        60
37.070        47
37.080       100
37.090        67
37.100        73
37.110        47
37.120        60
37.130        60
37.140        47
37.150        73
37.160        40
37.170        53
37.180        73
37.190        47
37.200        27
37.210        73
37.220        53
37.230        60
37.240        87
37.250        53
37.260        53
37.270        93
37.280        60
37.290        40
37.300        67
37.310        27
37.320        47
37.330        67
37.340        80
37.350        73
37.360        20
37.370        67
37.380        47
37.390        73
37.400        27
37.410        60
37.420        67
37.430        40
37.440        93
37.450        80
37.460        53
37.470        53
37.480        53
37.490        67
37.500        27
37.510        67
37.520        33
37.530        53
37.540        60
37.550        87
37.560        47
37.570        73
37.580        80
37.590        47
37.600        73
37.610        80
37.620        73
37.630        53
37.640        33
37.650        87
37.660        53
37.670        60
37.680        33
37.690        53
37.700        33
37.710        53
37.720        93
37.730        67
37.740        60
37.750        60
37.760        67
37.770        20
37.780        67
37.790        67
37.800        40
37.810        60
37.820        60
37.830        40
37.840        80
37.850        73
37.860        60
37.870       113
37.880        93
37.890        60
37.900        67
37.910        87
37.920        40
37.930       100
37.940        33
37.950        53
37.960        67
37.970        53
37.980        40
37.990        87
38.000        60
38.010        60
38.020        47
38.030        33
38.040        67
38.050        67
38.060        53
38.070        73
38.080        87
38.090       107
38.100        93
38.110        80
38.120       100
38.130        60
38.140        40
38.150        67
38.160        40
38.170        33
38.180       107
38.190        47
38.200        67
38.210       120
38.220        33
38.230        27
38.240        40
38.250        47
38.260       100
38.270        53
38.280        33
38.290        47
38.300        53
38.310       100
38.320        87
38.330        87
38.340        93
38.350        80
38.360        47
38.370        47
38.380        93
38.390        60
38.400        80
38.410        60
38.420        93
38.430        87
38.440        87
38.450        93
38.460        93
38.470        67
38.480        93
38.490        40
38.500        40
38.510        93
38.520        60
38.530        67
38.540        47
38.550        33
38.560        60
38.570        73
38.580        33
38.590        40
38.600        73
38.610        67
38.620        53
38.630        67
38.640        47
38.650        60
38.660        60
38.670        87
38.680        53
38.690        60
38.700        73
38.710        60
38.720        47
38.730        40
38.740        33
38.750        53
38.760        60
38.770        60
38.780        73
38.790        20
38.800        53
38.810        60
38.820        60
38.830       107
38.840        93
38.850        73
38.860        40
38.870        33
38.880        60
38.890        40
38.900        47
38.910        47
38.920        60
38.930        20
38.940        47
38.950        60
38.960        67
38.970        20
38.980        27
38.990        80
39.000        67
39.010        47
39.020       107
39.030        60
39.040        93
39.050        27
39.060        47
39.070        80
39.080        60
39.090        60
39.100        93
39.110        67
39.120        53
39.130        47
39.140        67
39.150        67
39.160        53
39.170        80
39.180        40
39.190        67
39.200        40
39.210        60
39.220        53
39.230        53
39.240        67
39.250        73
39.260        60
39.270        40
39.280        47
39.290        93
39.300        67
39.310        47
39.320        67
39.330        27
39.340        53
39.350       100
39.360        33
39.370        47
39.380        27
39.390        60
39.400        87
39.410        93
39.420        73
39.430        33
39.440        60
39.450        67
39.460        73
39.470        67
39.480        40
39.490        53
39.500        87
39.510        80
39.520        40
39.530        40
39.540        87
39.550        53
39.560        40
39.570        80
39.580        67
39.590        60
39.600        47
39.610        73
39.620        67
39.630        60
39.640        87
39.650        40
39.660        93
39.670        53
39.680        33
39.690        53
39.700        53
39.710        27
39.720        53
39.730        87
39.740        60
39.750        53
39.760        33
39.770        47
39.780        27
39.790        40
39.800        73
39.810        47
39.820        67
39.830        53
39.840        67
39.850        40
39.860        53
39.870        40
39.880        47
39.890        40
39.900        20
39.910        73
39.920        60
39.930        53
39.940        60
39.950        93
39.960        73
39.970        27
39.980        40
39.990        67
40.000        53
40.010        33
40.020        33
40.030        40
40.040        80
40.050        87
40.060        80
40.070        40
40.080        67
40.090        47
40.100        33
40.110        27
40.120        47
40.130        47
40.140        20
40.150        53
40.160        33
40.170        33
40.180        53
40.190        67
40.200        73
40.210        40
40.220        33
40.230        40
40.240        53
40.250        80
40.260        67
40.270        40
40.280        33
40.290        40
40.300        33
40.310        47
40.320        47
40.330        93
40.340        47
40.350        40
40.360        53
40.370        33
40.380        33
40.390        40
40.400        47
40.410        33
40.420        60
40.430        67
40.440        40
40.450        47
40.460        40
40.470        33
40.480        20
40.490        67
40.500        47
40.510        53
40.520       100
40.530        47
40.540        53
40.550        47
40.560        20
40.570        47
40.580        33
40.590        33
40.600        53
40.610        60
40.620        53
40.630        20
40.640        53
40.650        47
40.660        60
40.670        40
40.680        47
40.690        40
40.700        40
40.710        20
40.720        40
40.730        53
40.740        27
40.750       100
40.760        33
40.770        53
40.780        67
40.790        33
40.800        33
40.810        53
40.820        60
40.830        40
40.840        67
40.850        87
40.860        27
40.870        80
40.880        87
40.890       100
40.900        73
40.910        80
40.920        87
40.930        60
40.940        53
40.950        47
40.960        27
40.970        53
40.980        47
40.990        47
41.000        67
41.010        60
41.020        60
41.030        33
41.040        53
41.050        33
41.060        47
41.070        67
41.080        40
41.090        73
41.100        73
41.110        47
41.120        47
41.130        27
41.140        33
41.150        73
41.160        33
41.170        53
41.180        33
41.190        53
41.200        40
41.210        67
41.220        60
41.230        53
41.240        40
41.250        40
41.260        67
41.270        80
41.280        33
41.290        33
41.300        47
41.310        20
41.320         7
41.330        47
41.340        13
41.350        40
41.360        40
41.370        47
41.380        67
41.390        27
41.400        53
41.410        47
41.420         0
41.430        47
41.440        67
41.450        40
41.460        33
41.470        47
41.480        60
41.490        47
41.500        73
41.510        27
41.520        20
41.530        60
41.540        47
41.550        27
41.560        13
41.570        33
41.580        80
41.590        60
41.600        47
41.610        13
41.620        67
41.630        27
41.640        60
41.650        20
41.660        47
41.670        33
41.680        80
41.690        60
41.700        33
41.710        67
41.720        53
41.730        20
41.740        60
41.750        27
41.760        20
41.770         7
41.780        53
41.790        33
41.800        53
41.810        33
41.820        60
41.830        47
41.840        27
41.850        40
41.860        80
41.870        53
41.880        53
41.890        13
41.900        47
41.910        40
41.920        20
41.930        47
41.940        73
41.950        40
41.960        27
41.970        33
41.980        20
41.990        47
42.000        53
42.010        73
42.020        40
42.030        33
42.040        53
42.050        47
42.060        60
42.070        53
42.080        53
42.090        40
42.100        27
42.110        20
42.120        33
42.130        40
42.140        53
42.150        40
42.160        53
42.170        53
42.180        80
42.190        53
42.200        27
42.210        40
42.220        20
42.230        60
42.240        33
42.250        33
42.260        47
42.270        73
42.280        87
42.290        73
42.300        53
42.310        53
42.320        47
42.330        53
42.340        67
42.350        40
42.360        40
42.370        47
42.380        33
42.390        47
42.400        47
42.410        60
42.420        40
42.430        33
42.440        47
42.450        27
42.460        33
42.470        47
42.480        87
42.490        33
42.500        47
42.510        53
42.520        40
42.530        60
42.540        33
42.550         7
42.560        47
42.570        67
42.580        33
42.590        20
42.600        67
42.610        67
42.620        53
42.630        13
42.640        47
42.650        13
42.660        40
42.670        27
42.680        47
42.690        40
42.700        20
42.710        47
42.720        73
42.730        33
42.740        67
42.750        60
42.760        27
42.770        20
42.780        40
42.790        47
42.800        33
42.810        73
42.820        60
42.830        47
42.840        80
42.850        53
42.860        40
42.870        53
42.880        40
42.890        33
42.900        33
42.910        40
42.920        73
42.930        40
42.940        60
42.950        40
42.960        67
42.970        73
42.980        47
42.990        60
43.000        53
43.010        73
43.020        67
43.030        40
43.040        80
43.050        47
43.060        53
43.070        53
43.080        87
43.090        13
43.100        53
43.110        40
43.120        33
43.130        47
43.140        53
43.150        47
43.160        53
43.170        73
43.180        40
43.190        20
43.200        53
43.210        53
43.220        87
43.230        20
43.240        33
43.250        27
43.260        47
43.270        67
43.280        27
43.290        60
43.300        40
43.310        47
43.320        33
43.330        27
43.340        40
43.350        27
43.360        53
43.370        27
43.380        53
43.390        13
43.400        60
43.410        67
43.420        40
43.430        20
43.440        20
43.450        53
43.460        47
43.470        53
43.480        40
43.490        47
43.500        20
43.510        60
43.520        27
43.530        60
43.540        60
43.550        47
43.560        27
43.570        47
43.580        47
43.590        53
43.600        47
43.610        53
43.620        67
43.630        67
43.640        47
43.650        33
43.660        33
43.670        73
43.680        60
43.690        40
43.700        20
43.710        40
43.720        93
43.730        80
43.740        53
43.750        73
43.760        47
43.770        33
43.780        53
43.790        67
43.800        53
43.810        27
43.820        80
43.830        53
43.840        67
43.850        87
43.860        47
43.870        40
43.880        87
43.890        73
43.900        53
43.910        47
43.920        73
43.930        67
43.940        53
43.950        40
43.960        80
43.970       120
43.980        67
43.990        87
44.000       107
44.010        73
44.020        80
44.030        80
44.040       113
44.050       133
44.060       133
44.070        80
44.080        67
44.090       100
44.100       167
44.110       113
44.120       113
44.130       107
44.140        93
44.150       140
44.160       160
44.170       160
44.180       140
44.190       160
44.200       113
44.210       120
44.220       140
44.230       140
44.240       160
44.250       140
44.260       220
44.270       160
44.280       147
44.290       127
44.300       180
44.310       220
44.320       140
44.330       127
44.340       140
44.350       127
44.360       193
44.370       213
44.380       167
44.390       107
44.400       107
44.410        80
44.420       127
44.430       153
44.440       160
44.450        87
44.460       113
44.470       113
44.480       147
44.490        93
44.500        80
44.510        93
44.520       100
44.530       147
44.540       153
44.550        80
44.560       107
44.570        93
44.580        80
44.590        40
44.600        53
44.610        73
44.620        93
44.630        60
44.640        53
44.650        40
44.660        53
44.670        27
44.680        33
44.690        87
44.700        73
44.710        67
44.720        60
44.730        47
44.740        47
44.750        27
44.760        67
44.770        40
44.780        73
44.790        73
44.800        47
44.810        67
44.820        73
44.830        47
44.840        53
44.850        87
44.860        60
44.870        33
44.880        53
44.890        53
44.900        67
44.910        60
44.920        27
44.930        67
44.940        47
44.950        40
44.960        33
44.970        33
44.980        40
44.990        60
45.000        40
45.010        47
45.020        53
45.030        40
45.040        33
45.050        47
45.060        27
45.070        33
45.080        27
45.090        53
45.100        47
45.110        47
45.120        33
45.130        47
45.140        13
45.150        40
45.160        40
45.170        20
45.180        33
45.190        27
45.200        33
45.210        67
45.220        13
45.230        20
45.240        40
45.250        40
45.260        33
45.270        27
45.280        47
45.290        47
45.300        33
45.310        47
45.320        40
45.330        47
45.340        67
45.350        47
45.360        60
45.370        47
45.380        20
45.390        67
45.400        33
45.410        67
45.420        13
45.430        13
45.440        40
45.450        53
45.460        40
45.470        60
45.480        93
45.490        33
45.500        40
45.510        60
45.520        13
45.530        67
45.540        47
45.550        40
45.560        60
45.570        33
45.580        53
45.590        40
45.600        53
45.610        20
45.620        33
45.630        53
45.640        27
45.650        13
45.660        27
45.670        47
45.680        47
45.690        33
45.700        33
45.710        20
45.720        33
45.730        27
45.740        47
45.750        60
45.760        53
45.770        60
45.780        27
45.790        33
45.800        47
45.810        67
45.820        80
45.830        40
45.840        40
45.850        53
45.860        27
45.870        13
45.880        33
45.890        67
45.900        47
45.910        33
45.920        20
45.930        33
45.940        60
45.950        20
45.960        87
45.970        47
45.980        53
45.990        13
46.000        33
46.010        33
46.020        47
46.030        80
46.040        53
46.050        27
46.060        53
46.070        67
46.080        47
46.090        47
46.100        33
46.110        40
46.120        60
46.130        27
46.140        53
46.150        13
46.160        60
46.170        27
46.180        13
46.190        53
46.200        27
46.210        40
46.220        40
46.230        60
46.240        47
46.250        13
46.260        27
46.270        53
46.280        47
46.290        47
46.300        40
46.310        40
46.320        13
46.330        47
46.340        40
46.350        33
46.360        60
46.370        47
46.380        60
46.390        20
46.400        33
46.410        53
46.420        40
46.430        27
46.440        27
46.450        53
46.460        40
46.470        47
46.480        47
46.490        33
46.500        33
46.510        53
46.520        47
46.530        40
46.540        47
46.550        20
46.560        27
46.570        40
46.580        40
46.590        67
46.600        40
46.610        27
46.620        33
46.630        67
46.640        27
46.650         7
46.660        53
46.670        27
46.680        53
46.690        27
46.700        27
46.710        60
46.720        60
46.730        40
46.740        13
46.750        73
46.760        53
46.770        33
46.780        60
46.790        53
46.800        67
46.810        53
46.820        40
46.830        60
46.840        53
46.850        40
46.860        60
46.870        33
46.880        67
46.890        53
46.900        87
46.910        40
46.920        67
46.930        67
46.940        73
46.950        27
46.960        93
46.970        53
46.980        80
46.990        47
47.000        60
47.010       107
47.020       107
47.030       100
47.040       113
47.050       127
47.060        47
47.070        93
47.080       147
47.090       120
47.100       200
47.110       247
47.120       233
47.130       347
47.140       540
47.150       666
47.160       746
47.170       813
47.180       813
47.190       713
47.200       813
47.210       713
47.220       480
47.230       500
47.240       313
47.250       273
47.260       207
47.270       140
47.280       120
47.290        73
47.300        67
47.310        73
47.320        87
47.330        60
47.340        53
47.350        73
47.360       133
47.370        40
47.380        47
47.390        93
47.400        80
47.410        33
47.420        53
47.430        93
47.440        73
47.450        67
47.460        53
47.470        60
47.480       100
47.490        87
47.500        73
47.510        53
47.520        87
47.530        47
47.540        67
47.550        67
47.560        47
47.570        53
47.580        73
47.590        47
47.600        53
47.610        40
47.620        87
47.630        73
47.640        47
47.650        67
47.660        40
47.670        53
47.680        27
47.690        27
47.700        53
47.710        93
47.720        67
47.730        33
47.740        73
47.750        47
47.760        80
47.770       113
47.780        47
47.790        33
47.800        80
47.810        53
47.820        20
47.830        40
47.840        40
47.850        40
47.860        20
47.870        27
47.880        33
47.890        53
47.900        73
47.910        40
47.920        53
47.930        33
47.940        33
47.950        67
47.960        20
47.970        20
47.980        73
47.990        33
48.000        53
48.010        47
48.020        60
48.030        20
48.040        47
48.050        53
48.060        53
48.070        20
48.080        40
48.090        20
48.100        27
48.110        47
48.120        40
48.130        60
48.140        33
48.150        33
48.160        27
48.170        67
48.180        40
48.190        33
48.200        47
48.210        40
48.220        53
48.230        67
48.240       120
48.250        60
48.260        60
48.270        33
48.280        33
48.290        67
48.300        87
48.310        73
48.320        60
48.330        87
48.340        53
48.350       100
48.360        47
48.370        40
48.380        47
48.390       107
48.400        60
48.410        53
48.420        53
48.430        67
48.440        40
48.450        40
48.460        67
48.470        47
48.480        60
48.490        60
48.500        47
48.510         7
48.520        47
48.530        67
48.540       100
48.550        53
48.560        53
48.570        33
48.580        33
48.590        40
48.600        33
48.610        40
48.620        53
48.630        33
48.640        67
48.650        47
48.660        47
48.670        40
48.680        20
48.690        40
48.700        33
48.710        53
48.720        87
48.730        40
48.740        40
48.750        40
48.760        33
48.770        67
48.780        40
48.790        47
48.800        47
48.810        53
48.820        40
48.830        47
48.840        53
48.850        27
48.860        13
48.870        20
48.880        20
48.890        47
48.900        40
48.910        33
48.920        13
48.930        33
48.940        33
48.950        27
48.960        27
48.970        53
48.980        53
48.990        20
49.000        53
49.010        33
49.020        53
49.030        13
49.040        20
49.050        20
49.060        47
49.070        33
49.080        53
49.090        40
49.100        67
49.110        40
49.120        33
49.130        47
49.140        47
49.150        47
49.160        47
49.170        60
49.180        27
49.190        80
49.200        73
49.210        27
49.220        20
49.230        40
49.240        60
49.250        27
49.260        27
49.270        20
49.280         0
49.290        53
49.300        60
49.310        47
49.320        27
49.330        33
49.340        60
49.350        67
49.360         7
49.370        33
49.380        20
49.390        27
49.400        27
49.410        73
49.420        20
49.430        40
49.440        73
49.450        47
49.460        27
49.470        53
49.480        47
49.490        33
49.500        27
49.510        33
49.520        53
49.530        67
49.540        27
49.550        47
49.560        67
49.570        20
49.580        27
49.590        60
49.600        20
49.610        33
49.620        27
49.630        27
49.640        80
49.650        40
49.660        40
49.670        60
49.680        13
49.690        27
49.700        33
49.710        60
49.720        20
49.730        20
49.740        47
49.750        20
49.760        40
49.770        40
49.780        60
49.790        40
49.800        13
49.810        27
49.820        33
49.830        47
49.840        47
49.850        20
49.860        47
49.870        27
49.880        33
49.890        53
49.900        47
49.910        40
49.920        80
49.930        33
49.940        33
49.950        40
49.960        27
49.970        13
49.980        47
49.990       100
50.000        53
50.010        40
50.020        40
50.030        33
50.040        40
50.050        33
50.060        27
50.070        27
50.080        33
50.090        20
50.100        67
50.110        40
50.120        33
50.130        33
50.140        60
50.150        53
50.160        33
50.170        27
50.180        53
50.190        13
50.200        20
50.210        20
50.220        60
50.230         7
50.240        47
50.250        53
50.260        33
50.270        27
50.280        33
50.290        53
50.300        27
50.310        40
50.320        53
50.330        40
50.340        47
50.350        40
50.360        33
50.370        53
50.380        73
50.390        47
50.400        40
50.410        13
50.420        40
50.430        53
50.440        60
50.450        27
50.460        67
50.470        53
50.480        40
50.490        33
50.500        27
50.510        40
50.520        27
50.530        60
50.540        33
50.550        47
50.560        53
50.570        60
50.580        53
50.590        80
50.600       107
50.610        53
50.620        80
50.630        60
50.640        80
50.650       127
50.660       107
50.670       160
50.680       140
50.690       167
50.700       173
50.710       240
50.720       260
50.730       153
50.740       227
50.750       233
50.760       240
50.770       193
50.780       227
50.790       260
50.800       280
50.810       227
50.820       213
50.830       247
50.840       207
50.850       253
50.860       267
50.870       220
50.880       253
50.890       200
50.900       200
50.910       207
50.920       220
50.930       213
50.940       180
50.950       247
50.960       207
50.970       240
50.980       233
50.990       200
51.000       227
51.010       253
51.020       220
51.030       233
51.040       207
51.050       253
51.060       213
51.070       260
51.080       207
51.090       273
51.100       240
51.110       267
51.120       200
51.130       227
51.140       300
51.150       140
51.160       220
51.170       160
51.180       247
51.190       227
51.200       213
51.210       220
51.220       267
51.230       187
51.240       273
51.250       220
51.260       280
51.270       200
51.280       213
51.290       140
51.300       247
51.310       220
51.320       227
51.330       193
51.340       207
51.350       220
51.360       273
51.370       240
51.380       253
51.390       207
51.400       247
51.410       260
51.420       213
51.430       227
51.440       273
51.450       260
51.460       267
51.470       233
51.480       233
51.490       207
51.500       227
51.510       227
51.520       187
51.530       247
51.540       280
51.550       240
51.560       233
51.570       220
51.580       293
51.590       227
51.600       240
51.610       327
51.620       207
51.630       287
51.640       253
51.650       293
51.660       260
51.670       213
51.680       247
51.690       280
51.700       280
51.710       193
51.720       227
51.730       167
51.740       267
51.750       267
51.760       240
51.770       287
51.780       233
51.790       273
51.800       180
51.810       253
51.820       187
51.830       273
51.840       280
51.850       287
51.860       273
51.870       300
51.880       280
51.890       273
51.900       293
51.910       253
51.920       280
51.930       373
51.940       307
51.950       333
51.960       307
51.970       293
51.980       287
51.990       247
52.000       313
52.010       400
52.020       333
52.030       287
52.040       307
52.050       426
52.060       287
52.070       273
52.080       387
52.090       407
52.100       453
52.110       340
52.120       420
52.130       460
52.140       466
52.150       533
52.160       586
52.170       426
52.180       546
52.190       546
52.200       506
52.210       593
52.220       593
52.230       586
52.240       626
52.250       726
52.260       780
52.270      1313
52.280      1240
52.290      1506
52.300      1586
52.310      1973
52.320      2239
52.330      2572
52.340      2826
52.350      3412
52.360      3452
52.370      3532
52.380      4205
52.390      4152
52.400      4405
52.410      4585
52.420      5111
52.430      5138
52.440      5544
52.450      5731
52.460      6178
52.470      6664
52.480      7377
52.490      9130
52.500     10076
52.510     12775
52.520     17620
52.530     27856
52.540     43463
52.550     63288
52.560     81801
52.570     95169
52.580    102932
52.590    105618
52.600    104951
52.610     92363
52.620     76256
52.630     52819
52.640     34733
52.650     23351
52.660     19172
52.670     19919
52.680     25563
52.690     35086
52.700     43003
52.710     51666
52.720     56264
52.730     57071
52.740     56277
52.750     50073
52.760     38278
52.770     26696
52.780     18139
52.790     10816
52.800      6731
52.810      4818
52.820      3812
52.830      2979
52.840      2212
52.850      2346
52.860      1899
52.870      1713
52.880      1653
52.890      1359
52.900      1353
52.910      1213
52.920      1153
52.930       940
52.940      1006
52.950       853
52.960       873
52.970       793
52.980       880
52.990       660
53.000       726
53.010       720
53.020       680
53.030       480
53.040       626
53.050       440
53.060       553
53.070       426
53.080       486
53.090       526
53.100       540
53.110       446
53.120       466
53.130       513
53.140       446
53.150       460
53.160       400
53.170       373
53.180       413
53.190       347
53.200       360
53.210       393
53.220       413
53.230       400
53.240       420
53.250       293
53.260       420
53.270       413
53.280       320
53.290       327
53.300       333
53.310       367
53.320       247
53.330       360
53.340       333
53.350       293
53.360       347
53.370       380
53.380       287
53.390       260
53.400       313
53.410       293
53.420       367
53.430       240
53.440       287
53.450       353
53.460       247
53.470       273
53.480       293
53.490       227
53.500       293
53.510       247
53.520       233
53.530       240
53.540       300
53.550       233
53.560       267
53.570       247
53.580       273
53.590       247
53.600       300
53.610       213
53.620       267
53.630       220
53.640       220
53.650       273
53.660       267
53.670       207
53.680       253
53.690       200
53.700       207
53.710       200
53.720       267
53.730       187
53.740       213
53.750       173
53.760       207
53.770       167
53.780       187
53.790       220
53.800       213
53.810       207
53.820       213
53.830       127
53.840       167
53.850       193
53.860       200
53.870       207
53.880       227
53.890       227
53.900       233
53.910       173
53.920       207
53.930       187
53.940       213
53.950       187
53.960       193
53.970       120
53.980       173
53.990       173
54.000       213
54.010       220
54.020       167
54.030       213
54.040       187
54.050       213
54.060       193
54.070       187
54.080       193
54.090       207
54.100       187
54.110       140
54.120       247
54.130       220
54.140       187
54.150       187
54.160       213
54.170       133
54.180       147
54.190       193
54.200       147
54.210       213
54.220       173
54.230       147
54.240       227
54.250       187
54.260       140
54.270       180
54.280       173
54.290       187
54.300       127
54.310       180
54.320       167
54.330       113
54.340       120
54.350       180
54.360       173
54.370       153
54.380       207
54.390       147
54.400       140
54.410       200
54.420       180
54.430       220
54.440       187
54.450       127
54.460       120
54.470       140
54.480       167
54.490       187
54.500       200
54.510       173
54.520       107
54.530       180
54.540        73
54.550       240
54.560       213
54.570       140
54.580       220
54.590       173
54.600       167
54.610       133
54.620       140
54.630       113
54.640       133
54.650       100
54.660       173
54.670       133
54.680       167
54.690       180
54.700       180
54.710       167
54.720       200
54.730       267
54.740       173
54.750       147
54.760       147
54.770       140
54.780       180
54.790       133
54.800       133
54.810       180
54.820       167
54.830       180
54.840       113
54.850       160
54.860       167
54.870       147
54.880       127
54.890       200
54.900       153
54.910       233
54.920       167
54.930       100
54.940       187
54.950       147
54.960       167
54.970       147
54.980       187
54.990       147
55.000       153
55.010       187
55.020       140
55.030       127
55.040       127
55.050       107
55.060       140
55.070       147
55.080        67
55.090       133
55.100       100
55.110       153
55.120       127
55.130       147
55.140       173
55.150       100
55.160       193
55.170       173
55.180        67
55.190       160
55.200       140
55.210       127
55.220       113
55.230       127
55.240       187
55.250       180
55.260       173
55.270       153
55.280       100
55.290        87
55.300       160
55.310       167
55.320        73
55.330       153
55.340       107
55.350       127
55.360       160
55.370       133
55.380       147
55.390       140
55.400       133
55.410       160
55.420       173
55.430       133
55.440       180
55.450       193
55.460       147
55.470       107
55.480       133
55.490       100
55.500       153
55.510       180
55.520       140
55.530       153
55.540       207
55.550       120
55.560       127
55.570       173
55.580       140
55.590       133
55.600       180
55.610        93
55.620        67
55.630       133
55.640       127
55.650       147
55.660       133
55.670       140
55.680       147
55.690       120
55.700        93
55.710       153
55.720       160
55.730        93
55.740       133
55.750       133
55.760       133
55.770       173
55.780       120
55.790       107
55.800        60
55.810       140
55.820       180
55.830       153
55.840       113
55.850       120
55.860       140
55.870       127
55.880       120
55.890       120
55.900       147
55.910       120
55.920        80
55.930       107
55.940       140
55.950       107
55.960       107
55.970       120
55.980       133
55.990       100
56.000       160
56.010       120
56.020        93
56.030       180
56.040       100
56.050       100
56.060       113
56.070       127
56.080       180
56.090       100
56.100        87
56.110       173
56.120       167
56.130        67
56.140       100
56.150       100
56.160       160
56.170        93
56.180       153
56.190        87
56.200       133
56.210       133
56.220       173
56.230        80
56.240       133
56.250       127
56.260       127
56.270       127
56.280       187
56.290       113
56.300       133
56.310       147
56.320       107
56.330        80
56.340       100
56.350       140
56.360       120
56.370       120
56.380       113
56.390       120
56.400       120
56.410       100
56.420       120
56.430       113
56.440       107
56.450       113
56.460       133
56.470        73
56.480       140
56.490       133
56.500       113
56.510        80
56.520       107
56.530       127
56.540       127
56.550       100
56.560       120
56.570        87
56.580       107
56.590       107
56.600       127
56.610       153
56.620        73
56.630       120
56.640        47
56.650       100
56.660       100
56.670       120
56.680       133
56.690        67
56.700       120
56.710       100
56.720        93
56.730       107
56.740        93
56.750        87
56.760       133
56.770       147
56.780       160
56.790       180
56.800        80
56.810        87
56.820       107
56.830       113
56.840        80
56.850       127
56.860       107
56.870       107
56.880       100
56.890       107
56.900       153
56.910       113
56.920        87
56.930       147
56.940       127
56.950       133
56.960        60
56.970        87
56.980       113
56.990        87
57.000       127
57.010       153
57.020        80
57.030        67
57.040        93
57.050       107
57.060       107
57.070       113
57.080        80
57.090        87
57.100       147
57.110        87
57.120       140
57.130       100
57.140       120
57.150       140
57.160       107
57.170       113
57.180       140
57.190       100
57.200       133
57.210       167
57.220       113
57.230       120
57.240       100
57.250       107
57.260       100
57.270       140
57.280       127
57.290       113
57.300       153
57.310       140
57.320        40
57.330        80
57.340        93
57.350        47
57.360       100
57.370        80
57.380       120
57.390       153
57.400        80
57.410       100
57.420        67
57.430       140
57.440       113
57.450        40
57.460       133
57.470       107
57.480       120
57.490        80
57.500       153
57.510       120
57.520        80
57.530        93
57.540       120
57.550        67
57.560        87
57.570        80
57.580       153
57.590       120
57.600        67
57.610       127
57.620       113
57.630       107
57.640       120
57.650       120
57.660       107
57.670       127
57.680        80
57.690       127
57.700       100
57.710        80
57.720        60
57.730       107
57.740        93
57.750        80
57.760        47
57.770       140
57.780        73
57.790       140
57.800       120
57.810       100
57.820       140
57.830       100
57.840       107
57.850       113
57.860        67
57.870       127
57.880       127
57.890       107
57.900        53
57.910        80
57.920        93
57.930       107
57.940       140
57.950       120
57.960        93
57.970        80
57.980        33
57.990        93
58.000        60
58.010        87
58.020        53
58.030       127
58.040       140
58.050        93
58.060        87
58.070        60
58.080       127
58.090        53
58.100        53
58.110        67
58.120        93
58.130       120
58.140       147
58.150        73
58.160        80
58.170       100
58.180       133
58.190       100
58.200       133
58.210       113
58.220        73
58.230       107
58.240       113
58.250       100
58.260        93
58.270        73
58.280        87
58.290       107
58.300        87
58.310       100
58.320        87
58.330        93
58.340       113
58.350        53
58.360        60
58.370       107
58.380        93
58.390       107
58.400        47
58.410       113
58.420       120
58.430       100
58.440        73
58.450        87
58.460        87
58.470        93
58.480        87
58.490        73
58.500       127
58.510        60
58.520       127
58.530        73
58.540        47
58.550        67
58.560       100
58.570       107
58.580       140
58.590       133
58.600        80
58.610       153
58.620        93
58.630        87
58.640       113
58.650       113
58.660        47
58.670       113
58.680        80
58.690        53
58.700       127
58.710        87
58.720        80
58.730        73
58.740        67
58.750        73
58.760       107
58.770       107
58.780        47
58.790       127
58.800        73
58.810        73
58.820        40
58.830       107
58.840       133
58.850        73
58.860       100
58.870       107
58.880       120
58.890        67
58.900        67
58.910        53
58.920        67
58.930        73
58.940        93
58.950        67
58.960        53
58.970        67
58.980       113
58.990        53
59.000       113
59.010        73
59.020        87
59.030        87
59.040        73
59.050        60
59.060        67
59.070        60
59.080        87
59.090       107
59.100       107
59.110        60
59.120       100
59.130        67
59.140        67
59.150       107
59.160       107
59.170       100
59.180        67
59.190        80
59.200        87
59.210        87
59.220       107
59.230        93
59.240        60
59.250        93
59.260        67
59.270        93
59.280        87
59.290       107
59.300        67
59.310        87
59.320       113
59.330        33
59.340        87
59.350        33
59.360       107
59.370        60
59.380       100
59.390        40
59.400        53
59.410        73
59.420        60
59.430       127
59.440        87
59.450        87
59.460        87
59.470        47
59.480        93
59.490       100
59.500        67
59.510        93
59.520       100
59.530        47
59.540       100
59.550        47
59.560        87
59.570        47
59.580        87
59.590        80
59.600       127
59.610        40
59.620        93
59.630       107
59.640        67
59.650       120
59.660       100
59.670       107
59.680        93
59.690        47
59.700        80
59.710        53
59.720        93
59.730        67
59.740        67
59.750        73
59.760       100
59.770       100
59.780        60
59.790        80
59.800        87
59.810        87
59.820        60
59.830        67
59.840       100
59.850       100
59.860        80
59.870        73
59.880        80
59.890       127
59.900        67
59.910        80
59.920        67
59.930       100
59.940        40
59.950        80
59.960        93
59.970       107
59.980        73
59.990        67
60.000        67
