20.000        47
20.010        33
20.020        47
20.030        67
20.040        47
20.050        40
20.060        47
20.070        47
20.080        53
20.090        47
20.100        40
20.110        20
20.120        47
20.130        93
20.140        60
20.150        40
20.160        73
20.170        47
20.180        53
20.190        93
20.200        80
20.210        40
20.220        73
20.230        60
20.240        40
20.250        80
20.260        47
20.270        33
20.280        40
20.290        93
20.300        47
20.310        53
20.320        40
20.330        67
20.340        73
20.350        33
20.360        60
20.370        33
20.380        87
20.390        60
20.400        67
20.410        53
20.420        33
20.430        47
20.440        47
20.450        60
20.460        47
20.470        60
20.480        53
20.490        47
20.500        60
20.510        80
20.520        67
20.530        60
20.540        33
20.550        33
20.560        47
20.570        53
20.580        40
20.590        87
20.600        33
20.610        80
20.620        80
20.630        27
20.640        33
20.650        40
20.660        87
20.670        87
20.680        53
20.690        33
20.700        47
20.710        47
20.720        20
20.730        47
20.740        47
20.750        40
20.760        73
20.770        80
20.780        53
20.790        67
20.800        33
20.810        27
20.820        47
20.830        53
20.840        60
20.850        40
20.860        53
20.870        33
20.880        47
20.890        53
20.900        60
20.910        67
20.920        27
20.930        73
20.940        20
20.950        60
20.960        67
20.970        80
20.980        40
20.990        40
21.000        80
21.010        73
21.020        73
21.030        60
21.040        40
21.050        67
21.060        87
21.070        27
21.080        60
21.090        60
21.100        27
21.110        33
21.120        47
21.130        40
21.140        60
21.150        13
21.160        60
21.170        73
21.180        27
21.190        87
21.200        40
21.210        47
21.220        33
21.230        80
21.240        20
21.250        27
21.260        40
21.270        27
21.280        47
21.290        40
21.300        40
21.310        73
21.320        33
21.330        67
21.340        33
21.350        47
21.360        13
21.370        67
21.380        20
21.390        60
21.400        67
21.410        33
21.420        60
21.430        60
21.440        47
21.450        53
21.460        47
21.470        67
21.480       100
21.490        53
21.500        33
21.510        47
21.520        40
21.530        40
21.540        73
21.550        47
21.560        27
21.570        53
21.580        47
21.590        33
21.600        47
21.610        73
21.620        53
21.630        27
21.640        27
21.650        33
21.660        73
21.670        47
21.680        47
21.690        93
21.700        73
21.710        93
21.720        87
21.730        93
21.740        67
21.750        87
21.760        67
21.770        60
21.780        60
21.790        93
21.800       120
21.810        53
21.820        93
21.830       113
21.840        80
21.850        93
21.860        80
21.870        73
21.880       100
21.890        80
21.900       107
21.910        47
21.920        53
21.930       107
21.940        80
21.950        67
21.960        93
21.970        67
21.980        33
21.990        80
22.000        73
22.010        80
22.020        47
22.030        53
22.040        33
22.050        73
22.060        40
22.070        60
22.080        60
22.090        80
22.100        40
22.110        33
22.120        73
22.130       100
22.140        53
22.150        53
22.160        27
22.170        33
22.180        20
22.190        67
22.200        53
22.210        80
22.220        60
22.230        27
22.240        60
22.250        33
22.260        80
22.270        60
22.280        53
22.290        40
22.300        40
22.310        47
22.320        47
22.330        40
22.340        47
22.350        13
22.360        53
22.370        20
22.380        27
22.390         7
22.400        67
22.410        47
22.420        67
22.430        53
22.440        67
22.450        40
22.460        60
22.470        47
22.480        67
22.490        33
22.500        13
22.510        40
22.520        60
22.530        47
22.540        47
22.550        47
22.560        53
22.570        67
22.580        40
22.590        60
22.600        53
22.610        53
22.620        40
22.630        53
22.640        87
22.650        27
22.660        33
22.670        33
22.680        67
22.690        47
22.700        40
22.710        33
22.720        60
22.730        60
22.740        67
22.750        47
22.760        40
22.770        40
22.780        20
22.790        33
22.800        13
22.810        67
22.820         7
22.830        40
22.840        33
22.850        47
22.860        33
22.870        40
22.880        73
22.890        60
22.900        93
22.910         7
22.920        60
22.930        47
22.940        47
22.950        47
22.960        53
22.970        27
22.980        40
22.990        33
23.000        60
23.010        53
23.020        53
23.030        80
23.040        33
23.050        47
23.060        53
23.070        60
23.080        40
23.090        27
23.100        53
23.110        20
23.120        60
23.130        60
23.140        33
23.150        27
23.160        40
23.170        27
23.180        53
23.190        47
23.200        73
23.210        53
23.220        13
23.230        40
23.240        87
23.250        27
23.260        40
23.270        27
23.280        27
23.290        60
23.300        27
23.310        27
23.320        33
23.330        33
23.340        27
23.350        53
23.360        40
23.370        40
23.380         7
23.390        40
23.400        73
23.410        47
23.420        67
23.430        67
23.440        20
23.450        73
23.460        33
23.470        20
23.480        47
23.490        40
23.500        20
23.510         7
23.520        47
23.530        53
23.540        33
23.550        13
23.560        33
23.570        47
23.580        53
23.590        33
23.600        40
23.610        27
23.620        47
23.630        20
23.640        33
23.650        13
23.660        27
23.670        47
23.680        40
23.690        40
23.700        33
23.710        47
23.720        40
23.730        60
23.740        73
23.750        60
23.760        20
23.770        67
23.780        47
23.790        27
23.800        33
23.810        47
23.820        27
23.830        13
23.840        53
23.850        27
23.860        27
23.870        27
23.880        27
23.890        53
23.900        33
23.910        40
23.920        53
23.930        40
23.940        20
23.950        73
23.960        40
23.970        13
23.980        20
23.990        33
24.000        33
24.010        33
24.020        27
24.030        33
24.040        40
24.050        53
24.060        67
24.070        33
24.080        27
24.090        67
24.100        40
24.110        40
24.120        33
24.130        67
24.140        33
24.150        40
24.160        40
24.170        60
24.180        27
24.190        40
24.200        40
24.210        67
24.220        27
24.230        40
24.240        33
24.250        40
24.260        60
24.270        27
24.280        47
24.290        60
24.300        40
24.310        33
24.320        47
24.330        67
24.340        60
24.350        73
24.360        53
24.370        67
24.380        33
24.390        40
24.400        40
24.410        27
24.420        20
24.430        33
24.440        67
24.450        40
24.460        13
24.470        47
24.480        27
24.490        73
24.500        33
24.510        20
24.520        47
24.530        20
24.540        33
24.550        33
24.560        60
24.570        27
24.580        40
24.590        13
24.600         7
24.610        47
24.620        53
24.630        27
24.640        47
24.650        53
24.660        67
24.670        47
24.680        53
24.690        53
24.700        13
24.710        60
24.720        27
24.730        33
24.740        40
24.750        67
24.760        40
24.770        13
24.780        53
24.790        27
24.800        27
24.810        33
24.820        20
24.830        47
24.840        20
24.850        33
24.860        53
24.870        20
24.880        13
24.890        27
24.900        47
24.910        33
24.920        27
24.930        13
24.940        27
24.950        33
24.960        27
24.970        40
24.980        27
24.990        40
25.000        53
25.010        33
25.020        60
25.030        40
25.040        33
25.050        33
25.060        40
25.070        47
25.080        53
25.090        73
25.100        40
25.110        27
25.120        13
25.130        13
25.140        40
25.150        27
25.160        53
25.170        33
25.180        60
25.190        40
25.200        33
25.210        40
25.220        27
25.230        40
25.240        53
25.250        40
25.260        60
25.270        27
25.280        40
25.290        60
25.300        27
25.310        67
25.320        33
25.330        27
25.340        33
25.350        73
25.360        53
25.370        40
25.380        47
25.390        53
25.400        73
25.410        73
25.420        40
25.430        73
25.440        20
25.450        33
25.460        67
25.470        60
25.480        40
25.490        80
25.500        93
25.510       180
25.520        40
25.530       107
25.540        80
25.550       133
25.560        80
25.570        87
25.580        40
25.590        67
25.600        53
25.610        67
25.620        60
25.630        87
25.640        33
25.650        47
25.660        53
25.670         7
25.680        73
25.690        40
25.700        53
25.710        40
25.720        27
25.730        47
25.740        27
25.750        60
25.760        47
25.770        33
25.780        13
25.790        53
25.800        33
25.810        40
25.820        47
25.830        60
25.840        53
25.850        20
25.860        33
25.870        20
25.880        47
25.890        47
25.900        33
25.910        40
25.920        47
25.930        27
25.940        47
25.950        60
25.960        33
25.970         7
25.980        40
25.990        40
26.000        27
26.010        27
26.020        73
26.030        27
26.040        53
26.050        53
26.060        40
26.070        80
26.080        33
26.090        40
26.100        60
26.110        33
26.120        27
26.130        47
26.140        40
26.150        40
26.160        33
26.170        13
26.180        27
26.190        40
26.200        20
26.210        40
26.220        47
26.230        33
26.240        47
26.250        20
26.260        53
26.270        33
26.280        33
26.290        53
26.300        33
26.310        33
26.320        27
26.330        67
26.340        53
26.350        60
26.360        33
26.370        33
26.380        20
26.390        53
26.400        20
26.410        47
26.420        47
26.430        27
26.440        27
26.450        33
26.460        53
26.470        40
26.480        33
26.490        47
26.500        40
26.510        27
26.520        27
26.530        47
26.540        33
26.550        73
26.560        47
26.570        33
26.580        33
26.590         7
26.600        53
26.610        27
26.620        53
26.630        60
26.640        60
26.650        33
26.660        40
26.670        20
26.680        47
26.690        27
26.700        40
26.710        47
26.720        53
26.730        60
26.740        20
26.750        20
26.760        33
26.770        40
26.780        53
26.790        87
26.800        60
26.810        33
26.820        47
26.830        33
26.840        27
26.850        47
26.860        40
26.870        13
26.880        40
26.890        67
26.900        27
26.910        33
26.920        33
26.930        40
26.940        53
26.950        33
26.960        40
26.970        27
26.980        33
26.990        33
27.000        33
27.010        40
27.020        40
27.030        27
27.040        20
27.050        33
27.060        20
27.070        47
27.080        33
27.090        47
27.100        60
27.110        40
27.120        20
27.130        27
27.140        13
27.150        47
27.160        33
27.170        27
27.180        53
27.190        40
27.200         7
27.210        27
27.220        33
27.230        47
27.240        53
27.250        47
27.260        27
27.270        27
27.280        40
27.290        60
27.300        27
27.310        67
27.320        13
27.330        27
27.340        13
27.350        40
27.360        47
27.370        40
27.380        27
27.390        53
27.400        27
27.410        53
27.420         7
27.430        47
27.440        33
27.450        33
27.460        40
27.470        47
27.480        33
27.490        27
27.500        47
27.510        20
27.520        33
27.530        13
27.540        20
27.550        53
27.560        40
27.570        47
27.580        20
27.590        27
27.600        47
27.610        40
27.620        40
27.630        40
27.640        33
27.650        53
27.660        33
27.670        47
27.680        33
27.690        67
27.700        20
27.710        20
27.720        47
27.730        27
27.740        27
27.750        40
27.760        20
27.770        33
27.780        67
27.790        20
27.800        33
27.810        73
27.820        67
27.830        20
27.840        27
27.850        40
27.860        40
27.870        53
27.880        53
27.890        53
27.900        53
27.910        47
27.920        20
27.930        40
27.940        60
27.950        47
27.960        47
27.970        80
27.980        47
27.990        60
28.000        73
28.010       100
28.020       107
28.030       113
28.040        80
28.050        93
28.060        53
28.070        93
28.080       127
28.090        53
28.100        93
28.110       120
28.120        87
28.130        73
28.140       100
28.150        73
28.160        80
28.170        47
28.180        40
28.190        80
28.200        47
28.210        67
28.220        40
28.230        40
28.240        27
28.250        33
28.260        80
28.270        20
28.280        33
28.290        60
28.300        33
28.310        73
28.320        47
28.330        53
28.340        60
28.350        33
28.360        47
28.370        53
28.380        67
28.390        33
28.400        20
28.410        27
28.420        40
28.430        13
28.440        53
28.450        40
28.460        27
28.470        53
28.480        47
28.490        53
28.500        20
28.510        27
28.520        27
28.530        20
28.540        20
28.550        20
28.560        40
28.570        47
28.580        53
28.590        13
28.600        40
28.610        27
28.620        27
28.630        27
28.640        27
28.650        47
28.660        60
28.670        27
28.680        47
28.690        13
28.700        60
28.710        27
28.720        27
28.730        27
28.740        27
28.750        53
28.760        60
28.770         0
28.780        13
28.790        27
28.800        13
28.810        27
28.820        13
28.830        27
28.840        33
28.850        53
28.860        27
28.870        53
28.880        47
28.890        60
28.900        20
28.910         7
28.920        60
28.930        60
28.940        33
28.950        80
28.960        60
28.970        20
28.980        27
28.990        53
29.000        20
29.010        40
29.020        27
29.030        53
29.040        13
29.050        67
29.060         0
29.070        20
29.080        27
29.090        27
29.100        27
29.110        20
29.120        33
29.130        33
29.140        33
29.150        47
29.160         7
29.170        27
29.180        20
29.190        33
29.200        27
29.210        60
29.220        20
29.230        20
29.240        80
29.250        47
29.260        40
29.270         7
29.280        13
29.290        33
29.300        20
29.310        33
29.320        47
29.330        47
29.340         0
29.350        40
29.360        27
29.370        47
29.380        60
29.390        33
29.400        40
29.410        33
29.420        20
29.430        33
29.440        73
29.450        27
29.460        40
29.470        27
29.480        40
29.490        13
29.500        40
29.510        53
29.520        40
29.530        27
29.540        20
29.550        47
29.560        80
29.570        53
29.580        13
29.590        60
29.600        33
29.610        33
29.620        67
29.630         7
29.640        47
29.650        47
29.660        47
29.670        53
29.680         7
29.690        27
29.700        33
29.710        27
29.720        33
29.730        53
29.740        47
29.750        40
29.760        20
29.770        40
29.780        33
29.790        13
29.800        40
29.810        27
29.820        40
29.830        33
29.840        60
29.850        27
29.860        47
29.870        33
29.880        27
29.890        20
29.900        73
29.910        53
29.920        53
29.930        33
29.940        47
29.950        33
29.960        47
29.970        33
29.980       107
29.990        40
30.000        53
30.010        73
30.020        47
30.030        40
30.040        80
30.050        53
30.060        73
30.070       107
30.080        73
30.090        33
30.100        47
30.110        87
30.120        80
30.130       107
30.140        60
30.150        93
30.160        80
30.170       100
30.180        87
30.190        87
30.200        93
30.210       100
30.220        60
30.230        87
30.240       107
30.250       107
30.260        87
30.270        93
30.280        73
30.290       120
30.300        80
30.310       127
30.320       107
30.330       100
30.340       187
30.350        93
30.360       120
30.370       127
30.380        93
30.390        80
30.400       113
30.410       113
30.420        87
30.430       120
30.440        53
30.450       113
30.460       107
30.470       120
30.480       120
30.490        67
30.500        93
30.510       120
30.520        93
30.530       127
30.540        93
30.550        93
30.560       100
30.570       113
30.580       133
30.590        67
30.600       160
30.610       100
30.620       147
30.630       153
30.640        87
30.650        87
30.660        87
30.670       100
30.680       147
30.690       153
30.700       153
30.710       213
30.720       140
30.730       127
30.740       200
30.750       187
30.760       260
30.770       240
30.780       193
30.790       153
30.800       247
30.810       300
30.820       193
30.830       313
30.840       300
30.850       387
30.860       413
30.870       400
30.880       600
30.890       653
30.900       706
30.910       766
30.920       853
30.930       960
30.940       926
30.950      1346
30.960      1346
30.970      1513
30.980      1859
30.990      1893
31.000      2439
31.010      2579
31.020      2746
31.030      3179
31.040      3512
31.050      4125
31.060      4392
31.070      5058
31.080      5431
31.090      5658
31.100      6297
31.110      7037
31.120      7637
31.130      7923
31.140      8670
31.150      9076
31.160      9803
31.170      9589
31.180      9296
31.190      9450
31.200      9263
31.210      8830
31.220      8836
31.230      7730
31.240      6897
31.250      6651
31.260      6444
31.270      5478
31.280      5025
31.290      4312
31.300      3665
31.310      3372
31.320      2606
31.330      2192
31.340      1979
31.350      1413
31.360      1073
31.370      1020
31.380       893
31.390       806
31.400       680
31.410       553
31.420       506
31.430       413
31.440       360
31.450       253
31.460       280
31.470       213
31.480       273
31.490       260
31.500       253
31.510       180
31.520       180
31.530       213
31.540       240
31.550       187
31.560       200
31.570       120
31.580        93
31.590       107
31.600       153
31.610       147
31.620       200
31.630       113
31.640       113
31.650       153
31.660       140
31.670       140
31.680       147
31.690       167
31.700       113
31.710        87
31.720       100
31.730       107
31.740        73
31.750        87
31.760        87
31.770       107
31.780       100
31.790        67
31.800       113
31.810        73
31.820        87
31.830        93
31.840        60
31.850       107
31.860        53
31.870       107
31.880       107
31.890        87
31.900        87
31.910       100
31.920       107
31.930        93
31.940        60
31.950       120
31.960       120
31.970        73
31.980        60
31.990        73
32.000        67
32.010       113
32.020       133
32.030       107
32.040        87
32.050       120
32.060        60
32.070        73
32.080        40
32.090        93
32.100        60
32.110        40
32.120       107
32.130        53
32.140        60
32.150        27
32.160        33
32.170        40
32.180        73
32.190        53
32.200        53
32.210        67
32.220       100
32.230        40
32.240        73
32.250        73
32.260        80
32.270        87
32.280        73
32.290        60
32.300        80
32.310       100
32.320        40
32.330       107
32.340        60
32.350       100
32.360        87
32.370        87
32.380        73
32.390        73
32.400        67
32.410        87
32.420        93
32.430        73
32.440       100
32.450       100
32.460        33
32.470        93
32.480        87
32.490        47
32.500        40
32.510        80
32.520        47
32.530        73
32.540        47
32.550        67
32.560       113
32.570        53
32.580        60
32.590        93
32.600       100
32.610        73
32.620        87
32.630        73
32.640        33
32.650        53
32.660        87
32.670        40
32.680        80
32.690        73
32.700        87
32.710       100
32.720        47
32.730       100
32.740        60
32.750        67
32.760        47
32.770        67
32.780        53
32.790        60
32.800        47
32.810        87
32.820        53
32.830        80
32.840        67
32.850        47
32.860        53
32.870        73
32.880        80
32.890        73
32.900        53
32.910        60
32.920        80
32.930        47
32.940        67
32.950        47
32.960       100
32.970        73
32.980        53
32.990        33
33.000        27
33.010        53
33.020        53
33.030        47
33.040        67
33.050        40
33.060        80
33.070        60
33.080        53
33.090        27
33.100        53
33.110        47
33.120        33
33.130        47
33.140        73
33.150        40
33.160        33
33.170        73
33.180        47
33.190        87
33.200        40
33.210        67
33.220        73
33.230        33
33.240        33
33.250        60
33.260       107
33.270        87
33.280        73
33.290        60
33.300        40
33.310        53
33.320        40
33.330        33
33.340        60
33.350        60
33.360        53
33.370        47
33.380        67
33.390        67
33.400        40
33.410        40
33.420        53
33.430        60
33.440        93
33.450        60
33.460        40
33.470        27
33.480        27
33.490        60
33.500        60
33.510        47
33.520        53
33.530        53
33.540        47
33.550        47
33.560        40
33.570        53
33.580        60
33.590        40
33.600        40
33.610        33
33.620        27
33.630        47
33.640        53
33.650        53
33.660        60
33.670        33
33.680        47
33.690        20
33.700        40
33.710        33
33.720        47
33.730        53
33.740        27
33.750        67
33.760        27
33.770        40
33.780        40
33.790        20
33.800        60
33.810        87
33.820        60
33.830        27
33.840        53
33.850        53
33.860        40
33.870        60
33.880        27
33.890        60
33.900        40
33.910        33
33.920        67
33.930        33
33.940        67
33.950        73
33.960        40
33.970        67
33.980        47
33.990        53
34.000        27
34.010        47
34.020        60
34.030        27
34.040        27
34.050        20
34.060        67
34.070        40
34.080        27
34.090        40
34.100        53
34.110        73
34.120        80
34.130        27
34.140        47
34.150        40
34.160        27
34.170        53
34.180        40
34.190        33
34.200        60
34.210        40
34.220        73
34.230        40
34.240        20
34.250        33
34.260        40
34.270        53
34.280        67
34.290        47
34.300        60
34.310        20
34.320        53
34.330        40
34.340        47
34.350        47
34.360        67
34.370        40
34.380         7
34.390        40
34.400        27
34.410        20
34.420       107
34.430        80
34.440        47
34.450        87
34.460        67
34.470        53
34.480        40
34.490        73
34.500        53
34.510        40
34.520        60
34.530         7
34.540        33
34.550        73
34.560        47
34.570        33
34.580        27
34.590        33
34.600        33
34.610        40
34.620        47
34.630        53
34.640        47
34.650        53
34.660        53
34.670        60
34.680        47
34.690        87
34.700        40
34.710        47
34.720        60
34.730        33
34.740        87
34.750        47
34.760        33
34.770        27
34.780        40
34.790        47
34.800        13
34.810        33
34.820        40
34.830        47
34.840        40
34.850        20
34.860        40
34.870        67
34.880        60
34.890        33
34.900        60
34.910        27
34.920        27
34.930        13
34.940        67
34.950        47
34.960        47
34.970        27
34.980        40
34.990        53
35.000        53
35.010        87
35.020         7
35.030       100
35.040        87
35.050        67
35.060        67
35.070        87
35.080        73
35.090        27
35.100        87
35.110       100
35.120       120
35.130       147
35.140       113
35.150        87
35.160        93
35.170       160
35.180       100
35.190        73
35.200        73
35.210        60
35.220       153
35.230       147
35.240       107
35.250       107
35.260        73
35.270       100
35.280        13
35.290        47
35.300        40
35.310        67
35.320        47
35.330        33
35.340        53
35.350        33
35.360        27
35.370        27
35.380        20
35.390        67
35.400        40
35.410        27
35.420        27
35.430        60
35.440        40
35.450        27
35.460        40
35.470        47
35.480        40
35.490        27
35.500        47
35.510        40
35.520        33
35.530        53
35.540        13
35.550        33
35.560        40
35.570        80
35.580        80
35.590        53
35.600        40
35.610        20
35.620        13
35.630        40
35.640        47
35.650        20
35.660        27
35.670        33
35.680        13
35.690        67
35.700        33
35.710        33
35.720        73
35.730        47
35.740        27
35.750        67
35.760        53
35.770        47
35.780        53
35.790        20
35.800        40
35.810        47
35.820        33
35.830         7
35.840        53
35.850        40
35.860        33
35.870        33
35.880        33
35.890        40
35.900        33
35.910        13
35.920        33
35.930        87
35.940        33
35.950        40
35.960        20
35.970        33
35.980        27
35.990        13
36.000        20
36.010        13
36.020        67
36.030        60
36.040        20
36.050        60
36.060        93
36.070        33
36.080        20
36.090        40
36.100        33
36.110        47
36.120        33
36.130        60
36.140        60
36.150        60
36.160        33
36.170        60
36.180        53
36.190        13
36.200        20
36.210        27
36.220        53
36.230        47
36.240        53
36.250        40
36.260        40
36.270        33
36.280        20
36.290        27
36.300        33
36.310        87
36.320        33
36.330        40
36.340        73
36.350        13
36.360        53
36.370        27
36.380        27
36.390        47
36.400        27
36.410        27
36.420        47
36.430        33
36.440        13
36.450        67
36.460         7
36.470        53
36.480        60
36.490        47
36.500        67
36.510        67
36.520        60
36.530        40
36.540        13
36.550        47
36.560        40
36.570        20
36.580        33
36.590        33
36.600        27
36.610        20
36.620        47
36.630        27
36.640        33
36.650        33
36.660        27
36.670        40
36.680        40
36.690        20
36.700        13
36.710        27
36.720        27
36.730        33
36.740        40
36.750        53
36.760         7
36.770        27
36.780        47
36.790        33
36.800        20
36.810        47
36.820        53
36.830        47
36.840        47
36.850        47
36.860        40
36.870        20
36.880        47
36.890        53
36.900        27
36.910        53
36.920        53
36.930        73
36.940        53
36.950        13
36.960        40
36.970        20
36.980        33
36.990        20
37.000        67
37.010        20
37.020        33
37.030        27
37.040        20
37.050        67
37.060        33
37.070        13
37.080        27
37.090        33
37.100        27
37.110        40
37.120        33
37.130        20
37.140        40
37.150        13
37.160        33
37.170        20
37.180        13
37.190        13
37.200        13
37.210        40
37.220        47
37.230        20
37.240        27
37.250        40
37.260        40
37.270        20
37.280        47
37.290        60
37.300        40
37.310        20
37.320        27
37.330        33
37.340        27
37.350        27
37.360         7
37.370        20
37.380        53
37.390        13
37.400        47
37.410        20
37.420        27
37.430        27
37.440        40
37.450        20
37.460        20
37.470        13
37.480        20
37.490        33
37.500         7
37.510        67
37.520        33
37.530        40
37.540         7
37.550        33
37.560        40
37.570        33
37.580        40
37.590        47
37.600        33
37.610        47
37.620        53
37.630        60
37.640        47
37.650        13
37.660        20
37.670        60
37.680        33
37.690        53
37.700        33
37.710        40
37.720        53
37.730        27
37.740        33
37.750        80
37.760        53
37.770        47
37.780        73
37.790        47
37.800        87
37.810        67
37.820        60
37.830        73
37.840        67
37.850        27
37.860        47
37.870        73
37.880        53
37.890        33
37.900        20
37.910        20
37.920        27
37.930        47
37.940        27
37.950        27
37.960        47
37.970        33
37.980         7
37.990        60
38.000        53
38.010        20
38.020        40
38.030        27
38.040         7
38.050        60
38.060        20
38.070        13
38.080        33
38.090        20
38.100        40
38.110        53
38.120        13
38.130        40
38.140        47
38.150        27
38.160        73
38.170        27
38.180        20
38.190        40
38.200        33
38.210        33
38.220        40
38.230        47
38.240        27
38.250        20
38.260        27
38.270        53
38.280        40
38.290        60
38.300        33
38.310        53
38.320        60
38.330        73
38.340        40
38.350       100
38.360        47
38.370        20
38.380        67
38.390        53
38.400        67
38.410        87
38.420        13
38.430        47
38.440        73
38.450        40
38.460        33
38.470        33
38.480        27
38.490        40
38.500        60
38.510        73
38.520        47
38.530        40
38.540        67
38.550        13
38.560        80
38.570        80
38.580        93
38.590        13
38.600        67
38.610        60
38.620        27
38.630        40
38.640        60
38.650        87
38.660        73
38.670        67
38.680        20
38.690        40
38.700        27
38.710        27
38.720        27
38.730        27
38.740        40
38.750        27
38.760        20
38.770        27
38.780        33
38.790        13
38.800        47
38.810         0
38.820        40
38.830        53
38.840         7
38.850        33
38.860        27
38.870        13
38.880        27
38.890        13
38.900        27
38.910        33
38.920        53
38.930        47
38.940        33
38.950        13
38.960        47
38.970        13
38.980        40
38.990        33
39.000        27
39.010        33
39.020         7
39.030        13
39.040        40
39.050        47
39.060         7
39.070        27
39.080        13
39.090        20
39.100        27
39.110        13
39.120         7
39.130        27
39.140        20
39.150        27
39.160        13
39.170        27
39.180        27
39.190        33
39.200        13
39.210        33
39.220         7
39.230        20
39.240        20
39.250        20
39.260        27
39.270        40
39.280        33
39.290        27
39.300        47
39.310        33
39.320        27
39.330        20
39.340        27
39.350        27
39.360        27
39.370        27
39.380        27
39.390         7
39.400        13
39.410         7
39.420         7
39.430        20
39.440        33
39.450        20
39.460        27
39.470        27
39.480        20
39.490         0
39.500        13
39.510         7
39.520        53
39.530        33
39.540        33
39.550        27
39.560        27
39.570        13
39.580        27
39.590        27
39.600        20
39.610        33
39.620        20
39.630        13
39.640        47
39.650        40
39.660        33
39.670         7
39.680        13
39.690        13
39.700         7
39.710         7
39.720        20
39.730        13
39.740        47
39.750        20
39.760        27
39.770        33
39.780        20
39.790        40
39.800        27
39.810         0
39.820        13
39.830        13
39.840        40
39.850        33
39.860        13
39.870        20
39.880        27
39.890         7
39.900        27
39.910        53
39.920        13
39.930         7
39.940        20
39.950        20
39.960        13
39.970        27
39.980        33
39.990        13
40.000        20
40.010        40
40.020        20
40.030        13
40.040        27
40.050        20
40.060        13
40.070        27
40.080        20
40.090         0
40.100        13
40.110        40
40.120        67
40.130         7
40.140        40
40.150        20
40.160        33
40.170        13
40.180        27
40.190        20
40.200         7
40.210        33
40.220        27
40.230        20
40.240        20
40.250        20
40.260        27
40.270        13
40.280        27
40.290        40
40.300        20
40.310        20
40.320        47
40.330        27
40.340        33
40.350        53
40.360        27
40.370        27
40.380        40
40.390         7
40.400         0
40.410         7
40.420         0
40.430        27
40.440         0
40.450         0
40.460        27
40.470        13
40.480        33
40.490        27
40.500        67
40.510        47
40.520        47
40.530        20
40.540        40
40.550         7
40.560        20
40.570        20
40.580         7
40.590        33
40.600        20
40.610        40
40.620         7
40.630        47
40.640        27
40.650        13
40.660        27
40.670        33
40.680        27
40.690        40
40.700         0
40.710        27
40.720        27
40.730         7
40.740        47
40.750        13
40.760        20
40.770        13
40.780        20
40.790        33
40.800        27
40.810        13
40.820        20
40.830        13
40.840        47
40.850        13
40.860        33
40.870        27
40.880        13
40.890         7
40.900        20
40.910        20
40.920        33
40.930         7
40.940        53
40.950        20
40.960        13
40.970         0
40.980        33
40.990        33
41.000        33
41.010        27
41.020        33
41.030        33
41.040        27
41.050        13
41.060        40
41.070        13
41.080         7
41.090        13
41.100        20
41.110        33
41.120        40
41.130        20
41.140        27
41.150        20
41.160         0
41.170        20
41.180        20
41.190        13
41.200        13
41.210        27
41.220        13
41.230        20
41.240         0
41.250        13
41.260        33
41.270        20
41.280        27
41.290         7
41.300        13
41.310        20
41.320        20
41.330        27
41.340        27
41.350        40
41.360        20
41.370        20
41.380        20
41.390        13
41.400         7
41.410        40
41.420        27
41.430        40
41.440        27
41.450        47
41.460        20
41.470        27
41.480        33
41.490        13
41.500        40
41.510        27
41.520        20
41.530        33
41.540        40
41.550        27
41.560        27
41.570        60
41.580        40
41.590        73
41.600        67
41.610        53
41.620        20
41.630        80
41.640       113
41.650       113
41.660       100
41.670       167
41.680       120
41.690        93
41.700       133
41.710        80
41.720       120
41.730        80
41.740       120
41.750        73
41.760        47
41.770        80
41.780        80
41.790        87
41.800       120
41.810        80
41.820        60
41.830        40
41.840        47
41.850        20
41.860        33
41.870        20
41.880        20
41.890        33
41.900        13
41.910        13
41.920        27
41.930        13
41.940        13
41.950        13
41.960        53
41.970        33
41.980        13
41.990        27
42.000        33
42.010        20
42.020        13
42.030         7
42.040        40
42.050        13
42.060        27
42.070        13
42.080         0
42.090        20
42.100        33
42.110        13
42.120        13
42.130        27
42.140        33
42.150        27
42.160        47
42.170        13
42.180        13
42.190        20
42.200        20
42.210        20
42.220        27
42.230        20
42.240        13
42.250        20
42.260        20
42.270         7
42.280        13
42.290        20
42.300        13
42.310        13
42.320        27
42.330        20
42.340        13
42.350         7
42.360         7
42.370        33
42.380        60
42.390        27
42.400         7
42.410        20
42.420         0
42.430        33
42.440        53
42.450        20
42.460        40
42.470        27
42.480         7
42.490        53
42.500        27
42.510         7
42.520        20
42.530         0
42.540         0
42.550        13
42.560         7
42.570         0
42.580         7
42.590         7
42.600        20
42.610        27
42.620        53
42.630        40
42.640        40
42.650        27
42.660        13
42.670         0
42.680        20
42.690         7
42.700         7
42.710        13
42.720        20
42.730        33
42.740        20
42.750        20
42.760        20
42.770        27
42.780         7
42.790        33
42.800         7
42.810        13
42.820        27
42.830        13
42.840        20
42.850        27
42.860        27
42.870         7
42.880        20
42.890        13
42.900        20
42.910        13
42.920        33
42.930        40
42.940        13
42.950        33
42.960         7
42.970        33
42.980        13
42.990         7
43.000        20
43.010        13
43.020        13
43.030        20
43.040        13
43.050        20
43.060         0
43.070        13
43.080        27
43.090        13
43.100        27
43.110        27
43.120        13
43.130         7
43.140        13
43.150        27
43.160        40
43.170        20
43.180        20
43.190        40
43.200        40
43.210        60
43.220        33
43.230        33
43.240        20
43.250        33
43.260        47
43.270        67
43.280        40
43.290        53
43.300        73
43.310        60
43.320        67
43.330       100
43.340        53
43.350        73
43.360       100
43.370       107
43.380       107
43.390       113
43.400        93
43.410        60
43.420        73
43.430        33
43.440        73
43.450        93
43.460        53
43.470        60
43.480        53
43.490        40
43.500        53
43.510        13
43.520        67
43.530        67
43.540        33
43.550        33
43.560        47
43.570        53
43.580         7
43.590        13
43.600        40
43.610        27
43.620         7
43.630        13
43.640        20
43.650        33
43.660        13
43.670        13
43.680        13
43.690        40
43.700        20
43.710        13
43.720        27
43.730        40
43.740        13
43.750        13
43.760        27
43.770        20
43.780        13
43.790        27
43.800        20
43.810        13
43.820         0
43.830        20
43.840         7
43.850        27
43.860         7
43.870        13
43.880        13
43.890        20
43.900        20
43.910        40
43.920         0
43.930        27
43.940        13
43.950        20
43.960        20
43.970        47
43.980         7
43.990        13
44.000         7
44.010        13
44.020        13
44.030        27
44.040        13
44.050        33
44.060        47
44.070         7
44.080         0
44.090        27
44.100        13
44.110        40
44.120        27
44.130        13
44.140         0
44.150        40
44.160        33
44.170         0
44.180        20
44.190        13
44.200        40
44.210         0
44.220         7
44.230        40
44.240        20
44.250        13
44.260        27
44.270        13
44.280        27
44.290        20
44.300        20
44.310        40
44.320        27
44.330        33
44.340        33
44.350        33
44.360         7
44.370         0
44.380        33
44.390        33
44.400        20
44.410        20
44.420        13
44.430        60
44.440        13
44.450        47
44.460        20
44.470        27
44.480         7
44.490        47
44.500        13
44.510        20
44.520        53
44.530        60
44.540        53
44.550        20
44.560        33
44.570        20
44.580        47
44.590        40
44.600        33
44.610        60
44.620        27
44.630         0
44.640        53
44.650        80
44.660        40
44.670        73
44.680        60
44.690        67
44.700        87
44.710        47
44.720        27
44.730        47
44.740        20
44.750        60
44.760        47
44.770        60
44.780        53
44.790        27
44.800        60
44.810        20
44.820        40
44.830        27
44.840        47
44.850        60
44.860        47
44.870        60
44.880        47
44.890        53
44.900        13
44.910        80
44.920        27
44.930        87
44.940        47
44.950        47
44.960        27
44.970        40
44.980        33
44.990        27
45.000        13
45.010        20
45.020        27
45.030        40
45.040         7
45.050        47
45.060        20
45.070        53
45.080        13
45.090        33
45.100        20
45.110        40
45.120        33
45.130        13
45.140         7
45.150        13
45.160        60
45.170        33
45.180        33
45.190        33
45.200        27
45.210        20
45.220        20
45.230        13
45.240         7
45.250        40
45.260         7
45.270        27
45.280        47
45.290        40
45.300        33
45.310        33
45.320         7
45.330        20
45.340        40
45.350        20
45.360        20
45.370         7
45.380        13
45.390         0
45.400         7
45.410        13
45.420        47
45.430        13
45.440        27
45.450        20
45.460        33
45.470        20
45.480        40
45.490        20
45.500        40
45.510        20
45.520        27
45.530        20
45.540        20
45.550        13
45.560        20
45.570        20
45.580        40
45.590        20
45.600        20
45.610        47
45.620        13
45.630        33
45.640        33
45.650        27
45.660        33
45.670         7
45.680        40
45.690        13
45.700        13
45.710        27
45.720         7
45.730        20
45.740        40
45.750         0
45.760        27
45.770        27
45.780        27
45.790        20
45.800        27
45.810        20
45.820         7
45.830        20
45.840         7
45.850         7
45.860        20
45.870        27
45.880         7
45.890        13
45.900        20
45.910        13
45.920        20
45.930        33
45.940        13
45.950        13
45.960        13
45.970         7
45.980        20
45.990        20
46.000        20
46.010        13
46.020        20
46.030        27
46.040        20
46.050        20
46.060         7
46.070        20
46.080        33
46.090        20
46.100        27
46.110        27
46.120         7
46.130        47
46.140        13
46.150        20
46.160        33
46.170        47
46.180        20
46.190        20
46.200         7
46.210        20
46.220        27
46.230        27
46.240        20
46.250         7
46.260        13
46.270         0
46.280        27
46.290         7
46.300        27
46.310         7
46.320        33
46.330        27
46.340         7
46.350        13
46.360        13
46.370        20
46.380        13
46.390        13
46.400         0
46.410        33
46.420        33
46.430        27
46.440        27
46.450        33
46.460         7
46.470        27
46.480        13
46.490        20
46.500        20
46.510        13
46.520        27
46.530         0
46.540        13
46.550        13
46.560         7
46.570        27
46.580        33
46.590        47
46.600        33
46.610        20
46.620        13
46.630         7
46.640        13
46.650         7
46.660         0
46.670        27
46.680        13
46.690        13
46.700        27
46.710         0
46.720        13
46.730        20
46.740        27
46.750         7
46.760        53
46.770        27
46.780        20
46.790         7
46.800         7
46.810         7
46.820        27
46.830         7
46.840         7
46.850        13
46.860        13
46.870        33
46.880         0
46.890        20
46.900        53
46.910        27
46.920        33
46.930        40
46.940         7
46.950        13
46.960        20
46.970         7
46.980         7
46.990        13
47.000        20
47.010        27
47.020        27
47.030        27
47.040        33
47.050        20
47.060        13
47.070        33
47.080        13
47.090        27
47.100        13
47.110         7
47.120        20
47.130        13
47.140        13
47.150        33
47.160        13
47.170         7
47.180        20
47.190        13
47.200        27
47.210        13
47.220        20
47.230        27
47.240        27
47.250        20
47.260        13
47.270        13
47.280        27
47.290         7
47.300        13
47.310        13
47.320        27
47.330        33
47.340        27
47.350         7
47.360         0
47.370        20
47.380        13
47.390        13
47.400        20
47.410        20
47.420        13
47.430        20
47.440        27
47.450         7
47.460        13
47.470         0
47.480        20
47.490        13
47.500        27
47.510        20
47.520        13
47.530         7
47.540        27
47.550        27
47.560        20
47.570         7
47.580         0
47.590        13
47.600        20
47.610         7
47.620        20
47.630        33
47.640        20
47.650         7
47.660         7
47.670        20
47.680        20
47.690        20
47.700        47
47.710        33
47.720        13
47.730        13
47.740         7
47.750        13
47.760         0
47.770         0
47.780        13
47.790        33
47.800        20
47.810        27
47.820        13
47.830        20
47.840         7
47.850        13
47.860        27
47.870        20
47.880        33
47.890        33
47.900        33
47.910        20
47.920        13
47.930        27
47.940        40
47.950        27
47.960        13
47.970        20
47.980         0
47.990        13
48.000         7
48.010        13
48.020        13
48.030         7
48.040        20
48.050        20
48.060        13
48.070        13
48.080         7
48.090        13
48.100        33
48.110         7
48.120        20
48.130         7
48.140         0
48.150        13
48.160         7
48.170        27
48.180         7
48.190         7
48.200         7
48.210        33
48.220         7
48.230        20
48.240         7
48.250         7
48.260         7
48.270        20
48.280         7
48.290        20
48.300        13
48.310         0
48.320        27
48.330        33
48.340        33
48.350        13
48.360        13
48.370        20
48.380        27
48.390        33
48.400        13
48.410         0
48.420         7
48.430         7
48.440        27
48.450         7
48.460         7
48.470        20
48.480        20
48.490        13
48.500        13
48.510        13
48.520         7
48.530        20
48.540         0
48.550         7
48.560        20
48.570         7
48.580        13
48.590        20
48.600        40
48.610         7
48.620        20
48.630        13
48.640        13
48.650        20
48.660        20
48.670         0
48.680         7
48.690        20
48.700        13
48.710        20
48.720        13
48.730        20
48.740         7
48.750        33
48.760        13
48.770        13
48.780         7
48.790        20
48.800        20
48.810         7
48.820        20
48.830        20
48.840        13
48.850        33
48.860        20
48.870        27
48.880        13
48.890        20
48.900        13
48.910        20
48.920        13
48.930        13
48.940         7
48.950         7
48.960        27
48.970        27
48.980        13
48.990        27
49.000         7
49.010        13
49.020        27
49.030        13
49.040        47
49.050        20
49.060        20
49.070         7
49.080        13
49.090        27
49.100         0
49.110        40
49.120         0
49.130        13
49.140         7
49.150        27
49.160         7
49.170        20
49.180         0
49.190        13
49.200        13
49.210        13
49.220        20
49.230        27
49.240        13
49.250         7
49.260         7
49.270        20
49.280        13
49.290        33
49.300        20
49.310        13
49.320        20
49.330        20
49.340        27
49.350        20
49.360        13
49.370        20
49.380         0
49.390        20
49.400         7
49.410        20
49.420        13
49.430         7
49.440        20
49.450        40
49.460        20
49.470        33
49.480         7
49.490        33
49.500        13
49.510        20
49.520        20
49.530        20
49.540        13
49.550        33
49.560        13
49.570        40
49.580        27
49.590         0
49.600        33
49.610        20
49.620         7
49.630        40
49.640         7
49.650        13
49.660        20
49.670        27
49.680        20
49.690         7
49.700        33
49.710        47
49.720        33
49.730         7
49.740         7
49.750        40
49.760        40
49.770        40
49.780         7
49.790        20
49.800        13
49.810        13
49.820        13
49.830         7
49.840        20
49.850         7
49.860        13
49.870        27
49.880        33
49.890        27
49.900         7
49.910        13
49.920        27
49.930        13
49.940        13
49.950        20
49.960        20
49.970        40
49.980        40
49.990        13
50.000        33
50.010        13
50.020         0
50.030        27
50.040        20
50.050         7
50.060        13
50.070         7
50.080        53
50.090        13
50.100        20
50.110        40
50.120        13
50.130        20
50.140        20
50.150         7
50.160        20
50.170        33
50.180        20
50.190        40
50.200         0
50.210        33
50.220        20
50.230        20
50.240        27
50.250        40
50.260        13
50.270         7
50.280        13
50.290        40
50.300         7
50.310        40
50.320        27
50.330         0
50.340         7
50.350        33
50.360        53
50.370        40
50.380        13
50.390        47
50.400        20
50.410        27
50.420        33
50.430        27
50.440        20
50.450        27
50.460         7
50.470        20
50.480        13
50.490         7
50.500         7
50.510        40
50.520        33
50.530        20
50.540        13
50.550        33
50.560        13
50.570        33
50.580         7
50.590         7
50.600         0
50.610        27
50.620         7
50.630         7
50.640        33
50.650        13
50.660        27
50.670         7
50.680        27
50.690        33
50.700        13
50.710        13
50.720         7
50.730        20
50.740        40
50.750        13
50.760        13
50.770        13
50.780        20
50.790        27
50.800        13
50.810        27
50.820        33
50.830        27
50.840        13
50.850        20
50.860        20
50.870        20
50.880        33
50.890        20
50.900         0
50.910        20
50.920        27
50.930        20
50.940        20
50.950         7
50.960         7
50.970        27
50.980        60
50.990        27
51.000         7
51.010        13
51.020        13
51.030        13
51.040         7
51.050         7
51.060        13
51.070        27
51.080        13
51.090         7
51.100         7
51.110        13
51.120        33
51.130        20
51.140        20
51.150        13
51.160         7
51.170        13
51.180        13
51.190         7
51.200        20
51.210        20
51.220        13
51.230        13
51.240        13
51.250         7
51.260        33
51.270        13
51.280         0
51.290        13
51.300         7
51.310         0
51.320        13
51.330        20
51.340         7
51.350        13
51.360        33
51.370        20
51.380        13
51.390        27
51.400         0
51.410        27
51.420        40
51.430         7
51.440         7
51.450        13
51.460         7
51.470         0
51.480        20
51.490        27
51.500        13
51.510        20
51.520        27
51.530        40
51.540        33
51.550        47
51.560        13
51.570        13
51.580        13
51.590        13
51.600         7
51.610        13
51.620        13
51.630        13
51.640        27
51.650        20
51.660        20
51.670        13
51.680        20
51.690         7
51.700         0
51.710         0
51.720        13
51.730         0
51.740        33
51.750        13
51.760        13
51.770         7
51.780         7
51.790         0
51.800         7
51.810        20
51.820         7
51.830        20
51.840        33
51.850         7
51.860         0
51.870         7
51.880         0
51.890         7
51.900        27
51.910        13
51.920         7
51.930        13
51.940        13
51.950        13
51.960         0
51.970         7
51.980        13
51.990        13
52.000        20
52.010        13
52.020         7
52.030        20
52.040         0
52.050        20
52.060         7
52.070         0
52.080        20
52.090         7
52.100         7
52.110         7
52.120        40
52.130        20
52.140        27
52.150        20
52.160        27
52.170        33
52.180        27
52.190         7
52.200        27
52.210        13
52.220        13
52.230        27
52.240        13
52.250         0
52.260         0
52.270        13
52.280        20
52.290         7
52.300         0
52.310         7
52.320         7
52.330         7
52.340         7
52.350        20
52.360         0
52.370        20
52.380        20
52.390         7
52.400        33
52.410        13
52.420         0
52.430        27
52.440        20
52.450        27
52.460        33
52.470        20
52.480        27
52.490        20
52.500        33
52.510        40
52.520        33
52.530        13
52.540        47
52.550        27
52.560        20
52.570        33
52.580        40
52.590        40
52.600        33
52.610        47
52.620        60
52.630        40
52.640        20
52.650        53
52.660         7
52.670        47
52.680        13
52.690        40
52.700        13
52.710        27
52.720        33
52.730        27
52.740        33
52.750        27
52.760        27
52.770        20
52.780         7
52.790        27
52.800        13
52.810         7
52.820        27
52.830        13
52.840        20
52.850        20
52.860        13
52.870        40
52.880        13
52.890        13
52.900         0
52.910         7
52.920         7
52.930        13
52.940         7
52.950        13
52.960        27
52.970        20
52.980        20
52.990        13
53.000        13
53.010        20
53.020         7
53.030         7
53.040         7
53.050        13
53.060        13
53.070         0
53.080        13
53.090        13
53.100        27
53.110        20
53.120        33
53.130        13
53.140        13
53.150        13
53.160         7
53.170        13
53.180         7
53.190         7
53.200         7
53.210        13
53.220         7
53.230        20
53.240         0
53.250        27
53.260        20
53.270        20
53.280        27
53.290         0
53.300         7
53.310         7
53.320         7
53.330        13
53.340        20
53.350         0
53.360        20
53.370        20
53.380        13
53.390         7
53.400         0
53.410        13
53.420        13
53.430         7
53.440        13
53.450        13
53.460         7
53.470        20
53.480         7
53.490         0
53.500        13
53.510        27
53.520        13
53.530         0
53.540        13
53.550        27
53.560         0
53.570        13
53.580        13
53.590         7
53.600        13
53.610        13
53.620        13
53.630        13
53.640         7
53.650         7
53.660        27
53.670         7
53.680        27
53.690        27
53.700        33
53.710        13
53.720        13
53.730        13
53.740        13
53.750         7
53.760        20
53.770         0
53.780        27
53.790        13
53.800        20
53.810        20
53.820        27
53.830         7
53.840        20
53.850        20
53.860        40
53.870        20
53.880        20
53.890         7
53.900        13
53.910         7
53.920         0
53.930         7
53.940        20
53.950        33
53.960        33
53.970         0
53.980        13
53.990        20
54.000        27
54.010         7
54.020        33
54.030        13
54.040         7
54.050         0
54.060         0
54.070        20
54.080         0
54.090         7
54.100        20
54.110         7
54.120        27
54.130         7
54.140         7
54.150        27
54.160         0
54.170        47
54.180        13
54.190        20
54.200        27
54.210         0
54.220         7
54.230        13
54.240         7
54.250        20
54.260        13
54.270        13
54.280        13
54.290        13
54.300         7
54.310         0
54.320         0
54.330         0
54.340        20
54.350         7
54.360        47
54.370        27
54.380         7
54.390        27
54.400        33
54.410        20
54.420         7
54.430        13
54.440        27
54.450        13
54.460         7
54.470        13
54.480         7
54.490        13
54.500        13
54.510        20
54.520        20
54.530        27
54.540        20
54.550        13
54.560        13
54.570         0
54.580         0
54.590         7
54.600        13
54.610        40
54.620        40
54.630        20
54.640        13
54.650         7
54.660         0
54.670         7
54.680         7
54.690         7
54.700         7
54.710        13
54.720        33
54.730         7
54.740        27
54.750        13
54.760        20
54.770        27
54.780        27
54.790         7
54.800         7
54.810        27
54.820         7
54.830         0
54.840        13
54.850        27
54.860        13
54.870        27
54.880        20
54.890         7
54.900        27
54.910        13
54.920        13
54.930        27
54.940         7
54.950        13
54.960        13
54.970        27
54.980         7
54.990        20
55.000        13
55.010        13
55.020         0
55.030         7
55.040         7
55.050        27
55.060        20
55.070        13
55.080         0
55.090         7
55.100        13
55.110        13
55.120        27
55.130        13
55.140        20
55.150         7
55.160         7
55.170        27
55.180        60
55.190        20
55.200        20
55.210        20
55.220        13
55.230        13
55.240        20
55.250        13
55.260        27
55.270         7
55.280        47
55.290        13
55.300        20
55.310        20
55.320        20
55.330        13
55.340        53
55.350        80
55.360        20
55.370         7
55.380        33
55.390        33
55.400        20
55.410        13
55.420         7
55.430        40
55.440        47
55.450         0
55.460        73
55.470        13
55.480        20
55.490        60
55.500        60
55.510        33
55.520        20
55.530        40
55.540        60
55.550        33
55.560        20
55.570        47
55.580        47
55.590        73
55.600        60
55.610        33
55.620       107
55.630        27
55.640        47
55.650        33
55.660        40
55.670        53
55.680        53
55.690        60
55.700        80
55.710        60
55.720        60
55.730        27
55.740        40
55.750        47
55.760        33
55.770        67
55.780        20
55.790        60
55.800        33
55.810        47
55.820        13
55.830        33
55.840        40
55.850        33
55.860        20
55.870        27
55.880        27
55.890        13
55.900        13
55.910        40
55.920        20
55.930        27
55.940        27
55.950        33
55.960        40
55.970         0
55.980        20
55.990        33
56.000        13
56.010        20
56.020        20
56.030         0
56.040        20
56.050        27
56.060        27
56.070         7
56.080         7
56.090        20
56.100        20
56.110         7
56.120        20
56.130        20
56.140        13
56.150         0
56.160         0
56.170        20
56.180        27
56.190        20
56.200        33
56.210        40
56.220        27
56.230        20
56.240        20
56.250        13
56.260         0
56.270        13
56.280         7
56.290        13
56.300        13
56.310        13
56.320        33
56.330        20
56.340        13
56.350         7
56.360         7
56.370        20
56.380        13
56.390        20
56.400        13
56.410        33
56.420        20
56.430         7
56.440         7
56.450        13
56.460        53
56.470         0
56.480         7
56.490         7
56.500         7
56.510         0
56.520        33
56.530         0
56.540        20
56.550        40
56.560        13
56.570        13
56.580        47
56.590         7
56.600        20
56.610        13
56.620        13
56.630         7
56.640        13
56.650        33
56.660        13
56.670        13
56.680         7
56.690         7
56.700        20
56.710        13
56.720        13
56.730         0
56.740         7
56.750        13
56.760        13
56.770         7
56.780         7
56.790        27
56.800         0
56.810         7
56.820        20
56.830        13
56.840         7
56.850        27
56.860         7
56.870        13
56.880         0
56.890        20
56.900        13
56.910         7
56.920        20
56.930        27
56.940        20
56.950        13
56.960         0
56.970        20
56.980        33
56.990        13
57.000        33
57.010        20
57.020         0
57.030         7
57.040        27
57.050        13
57.060        20
57.070         0
57.080        27
57.090        27
57.100         7
57.110         7
57.120        13
57.130        13
57.140        20
57.150        13
57.160         7
57.170        20
57.180        13
57.190        13
57.200        20
57.210        13
57.220         7
57.230        13
57.240        20
57.250        40
57.260        27
57.270         7
57.280        27
57.290         7
57.300        27
57.310        20
57.320        27
57.330         7
57.340         7
57.350        13
57.360        27
57.370        40
57.380        27
57.390        27
57.400        13
57.410        20
57.420        47
57.430        13
57.440        47
57.450        53
57.460        27
57.470        67
57.480        80
57.490       113
57.500        73
57.510        67
57.520        60
57.530        87
57.540        67
57.550       100
57.560        67
57.570        40
57.580        60
57.590        27
57.600        60
57.610        60
57.620        20
57.630        73
57.640        40
57.650        73
57.660        20
57.670        40
57.680        27
57.690        27
57.700        67
57.710        73
57.720        47
57.730        27
57.740        20
57.750        13
57.760        13
57.770        27
57.780        13
57.790        27
57.800        20
57.810        13
57.820        27
57.830        27
57.840        13
57.850        33
57.860        20
57.870        27
57.880        27
57.890         7
57.900         0
57.910         7
57.920         7
57.930        13
57.940         7
57.950        13
57.960        33
57.970        13
57.980        20
57.990        13
58.000        13
58.010         7
58.020        20
58.030         0
58.040        13
58.050        13
58.060        20
58.070        13
58.080         7
58.090        20
58.100        20
58.110        27
58.120        27
58.130        20
58.140        20
58.150        27
58.160        13
58.170        13
58.180        20
58.190        27
58.200        27
58.210         7
58.220        20
58.230        20
58.240        20
58.250        33
58.260        13
58.270        27
58.280        13
58.290        13
58.300        13
58.310         7
58.320         7
58.330        20
58.340        20
58.350         7
58.360         0
58.370        13
58.380        13
58.390        13
58.400         7
58.410        47
58.420        20
58.430        20
58.440        13
58.450        13
58.460        20
58.470         0
58.480        13
58.490         7
58.500        13
58.510         0
58.520         7
58.530         7
58.540        20
58.550        13
58.560         7
58.570        20
58.580         7
58.590         7
58.600         0
58.610         7
58.620         7
58.630         7
58.640        40
58.650         0
58.660        20
58.670         0
58.680        13
58.690         7
58.700         7
58.710         0
58.720        13
58.730        13
58.740        13
58.750         7
58.760         7
58.770        13
58.780        20
58.790        20
58.800         7
58.810        20
58.820        13
58.830         7
58.840         7
58.850         7
58.860        13
58.870         7
58.880         0
58.890        13
58.900        13
58.910        13
58.920        20
58.930        13
58.940        13
58.950        33
58.960        13
58.970        27
58.980        27
58.990         0
59.000        27
59.010         7
59.020        33
59.030        13
59.040         7
59.050        13
59.060        13
59.070         7
59.080         7
59.090        13
59.100        13
59.110        13
59.120         7
59.130        20
59.140        20
59.150        13
59.160         0
59.170         0
59.180         0
59.190         7
59.200        20
59.210        33
59.220        13
59.230         7
59.240        13
59.250        27
59.260        20
59.270         7
59.280        27
59.290        13
59.300         7
59.310        33
59.320         7
59.330        13
59.340        20
59.350        27
59.360         7
59.370        20
59.380        13
59.390        13
59.400         0
59.410        20
59.420        13
59.430        13
59.440        20
59.450         7
59.460        27
59.470         0
59.480         0
59.490        20
59.500        20
59.510        20
59.520         0
59.530        27
59.540         7
59.550        13
59.560        40
59.570         7
59.580        20
59.590        13
59.600        13
59.610        13
59.620        13
59.630        20
59.640        20
59.650        20
59.660        20
59.670         0
59.680        27
59.690         7
59.700        13
59.710        13
59.720         7
59.730        20
59.740         7
59.750        20
59.760        40
59.770        20
59.780        13
59.790        13
59.800        40
59.810         7
59.820        27
59.830         7
59.840        13
59.850        20
59.860        20
59.870         7
59.880        13
59.890         0
59.900        13
59.910        20
59.920        13
59.930         7
59.940        13
59.950         7
59.960        20
59.970        40
59.980        13
59.990        20
60.000        20
