20.000        80
20.010        80
20.020        47
20.030        53
20.040        87
20.050        67
20.060       100
20.070        67
20.080        67
20.090        80
20.100        53
20.110        53
20.120        27
20.130        87
20.140        93
20.150        33
20.160        73
20.170        73
20.180        60
20.190        60
20.200        73
20.210        40
20.220        53
20.230       100
20.240        40
20.250        33
20.260        73
20.270        67
20.280       100
20.290       113
20.300        80
20.310        93
20.320        73
20.330        87
20.340        47
20.350        53
20.360        73
20.370        87
20.380        87
20.390        67
20.400        87
20.410        93
20.420        67
20.430        60
20.440        67
20.450        33
20.460        67
20.470        87
20.480        47
20.490        80
20.500        73
20.510        87
20.520        87
20.530        80
20.540        80
20.550        87
20.560        67
20.570        80
20.580        67
20.590        67
20.600        53
20.610        67
20.620        87
20.630       100
20.640        87
20.650        27
20.660        67
20.670        73
20.680        47
20.690        73
20.700        67
20.710       107
20.720        47
20.730        80
20.740       100
20.750       107
20.760        53
20.770        93
20.780        73
20.790        47
20.800        53
20.810       100
20.820        67
20.830        60
20.840        53
20.850        73
20.860        67
20.870        47
20.880        67
20.890       127
20.900        87
20.910        93
20.920        93
20.930       100
20.940       113
20.950        60
20.960       113
20.970        87
20.980       133
20.990        73
21.000       107
21.010        67
21.020        60
21.030        87
21.040        67
21.050        93
21.060        53
21.070       113
21.080        80
21.090        87
21.100       100
21.110        87
21.120        60
21.130        93
21.140        87
21.150        67
21.160       100
21.170        67
21.180        60
21.190       147
21.200       120
21.210        87
21.220        53
21.230        40
21.240       107
21.250       107
21.260        60
21.270        87
21.280        60
21.290       107
21.300        80
21.310        87
21.320        73
21.330       107
21.340       107
21.350        67
21.360        87
21.370        60
21.380        73
21.390       140
21.400       100
21.410        80
21.420        87
21.430        80
21.440       113
21.450       107
21.460        87
21.470        93
21.480        73
21.490        67
21.500        87
21.510        73
21.520       107
21.530        93
21.540        67
21.550        87
21.560        80
21.570        93
21.580        67
21.590        87
21.600       147
21.610       107
21.620        80
21.630        87
21.640       113
21.650       107
21.660        73
21.670       140
21.680       100
21.690       113
21.700        80
21.710        93
21.720       100
21.730       127
21.740       113
21.750       127
21.760        87
21.770       100
21.780       107
21.790       120
21.800       147
21.810       100
21.820        87
21.830        67
21.840       133
21.850       147
21.860       113
21.870        53
21.880       107
21.890       180
21.900       100
21.910        60
21.920        60
21.930       107
21.940       107
21.950       100
21.960       100
21.970       120
21.980       113
21.990        93
22.000       127
22.010        93
22.020       140
22.030       100
22.040       140
22.050       140
22.060       160
22.070       133
22.080        60
22.090       107
22.100       100
22.110        93
22.120       100
22.130       100
22.140       120
22.150       127
22.160       120
22.170       153
22.180       127
22.190       147
22.200       120
22.210       127
22.220        73
22.230       140
22.240       100
22.250       140
22.260       113
22.270       173
22.280        87
22.290       147
22.300       120
22.310       167
22.320       120
22.330       153
22.340       187
22.350       120
22.360       153
22.370       193
22.380       160
22.390       153
22.400        93
22.410        87
22.420       133
22.430       140
22.440       140
22.450        73
22.460       120
22.470       127
22.480        80
22.490       160
22.500       140
22.510       127
22.520       133
22.530        87
22.540        93
22.550       147
22.560       127
22.570       120
22.580       140
22.590       167
22.600       127
22.610       107
22.620       107
22.630        93
22.640       140
22.650       160
22.660       120
22.670       133
22.680       167
22.690       133
22.700       100
22.710       100
22.720       173
22.730       160
22.740       127
22.750       213
22.760       140
22.770       173
22.780       120
22.790       147
22.800       127
22.810       147
22.820       107
22.830       100
22.840       140
22.850       133
22.860        80
22.870       200
22.880       120
22.890       120
22.900       160
22.910       133
22.920       200
22.930       187
22.940        87
22.950       133
22.960        60
22.970       100
22.980       133
22.990       153
23.000       160
23.010       193
23.020       113
23.030       147
23.040       107
23.050       247
23.060       200
23.070       267
23.080       260
23.090       327
23.100       313
23.110       287
23.120       353
23.130       293
23.140       260
23.150       187
23.160       240
23.170       160
23.180       227
23.190       227
23.200       113
23.210       187
23.220       153
23.230       127
23.240       140
23.250       113
23.260       133
23.270       160
23.280       140
23.290       147
23.300       160
23.310       133
23.320       160
23.330       133
23.340       167
23.350       153
23.360        80
23.370       173
23.380       147
23.390       107
23.400       133
23.410       133
23.420       140
23.430       160
23.440       127
23.450       133
23.460       133
23.470       160
23.480       120
23.490       153
23.500       147
23.510       140
23.520       173
23.530       193
23.540       167
23.550       127
23.560       180
23.570       120
23.580       153
23.590       147
23.600       180
23.610        93
23.620       153
23.630       160
23.640       200
23.650       113
23.660       120
23.670       107
23.680       107
23.690       187
23.700       153
23.710       133
23.720       113
23.730       140
23.740       213
23.750       160
23.760       113
23.770       120
23.780       153
23.790       167
23.800       187
23.810       120
23.820       113
23.830       193
23.840       173
23.850       153
23.860        93
23.870       127
23.880       173
23.890       147
23.900       167
23.910       133
23.920       100
23.930       140
23.940       113
23.950       180
23.960       160
23.970       100
23.980       187
23.990       160
24.000       147
24.010       140
24.020       173
24.030       213
24.040       153
24.050        93
24.060       113
24.070        87
24.080       167
24.090       113
24.100       100
24.110       140
24.120       140
24.130       220
24.140       167
24.150       153
24.160       107
24.170       133
24.180       120
24.190       147
24.200       153
24.210       140
24.220       140
24.230       147
24.240       167
24.250       160
24.260       147
24.270       133
24.280       127
24.290       113
24.300       120
24.310       120
24.320       127
24.330       107
24.340       107
24.350        87
24.360       167
24.370       160
24.380       140
24.390        87
24.400       133
24.410       100
24.420       227
24.430       147
24.440       140
24.450       180
24.460       173
24.470       147
24.480       153
24.490       140
24.500       220
24.510       200
24.520       120
24.530       187
24.540       140
24.550       167
24.560       113
24.570       160
24.580       133
24.590       133
24.600       133
24.610       147
24.620       207
24.630       147
24.640       147
24.650       113
24.660       207
24.670       160
24.680       120
24.690       227
24.700       173
24.710       127
24.720       180
24.730       140
24.740       167
24.750       173
24.760       187
24.770       200
24.780       193
24.790       173
24.800       240
24.810       187
24.820       220
24.830       173
24.840       187
24.850       107
24.860       207
24.870       127
24.880       220
24.890       247
24.900       160
24.910       227
24.920       160
24.930       147
24.940       180
24.950       207
24.960       180
24.970       200
24.980       187
24.990       140
25.000       180
25.010       187
25.020       127
25.030       173
25.040       227
25.050       127
25.060       207
25.070       187
25.080       187
25.090       173
25.100       180
25.110       193
25.120       127
25.130       153
25.140       107
25.150       213
25.160       233
25.170       280
25.180       193
25.190       133
25.200       160
25.210       240
25.220       213
25.230       147
25.240       260
25.250       220
25.260       193
25.270       173
25.280       327
25.290       213
25.300       140
25.310       233
25.320       293
25.330       320
25.340       233
25.350       293
25.360       353
25.370       553
25.380       466
25.390       626
25.400       593
25.410       740
25.420       786
25.430       726
25.440       846
25.450       746
25.460      1046
25.470      1080
25.480       933
25.490      1359
25.500      1479
25.510      1406
25.520      1793
25.530      1759
25.540      2572
25.550      3325
25.560      5578
25.570      8956
25.580     12295
25.590     15014
25.600     16927
25.610     16640
25.620     17486
25.630     17820
25.640     16420
25.650     14348
25.660     11342
25.670     10136
25.680      9330
25.690      8590
25.700      7444
25.710      5531
25.720      3445
25.730      1933
25.740      1386
25.750       926
25.760       706
25.770       560
25.780       500
25.790       380
25.800       393
25.810       353
25.820       280
25.830       273
25.840       193
25.850       213
25.860       327
25.870       280
25.880       213
25.890       193
25.900       180
25.910       187
25.920       220
25.930       207
25.940       187
25.950       213
25.960       193
25.970       200
25.980       233
25.990       167
26.000       187
26.010       207
26.020       180
26.030       233
26.040       233
26.050       200
26.060       267
26.070       220
26.080       200
26.090       187
26.100       113
26.110       267
26.120       207
26.130       160
26.140       147
26.150       260
26.160       180
26.170       167
26.180       260
26.190       147
26.200       173
26.210       173
26.220       180
26.230       133
26.240       253
26.250       187
26.260       260
26.270       220
26.280       193
26.290       180
26.300       140
26.310       173
26.320       153
26.330       160
26.340       147
26.350       173
26.360       107
26.370       153
26.380       173
26.390       220
26.400       180
26.410       180
26.420       173
26.430       160
26.440       127
26.450       187
26.460       160
26.470       140
26.480       200
26.490       140
26.500       173
26.510       220
26.520       213
26.530       167
26.540       160
26.550       133
26.560       133
26.570       120
26.580       140
26.590       133
26.600       220
26.610       140
26.620       200
26.630       193
26.640       193
26.650       140
26.660        93
26.670       167
26.680       113
26.690       167
26.700       193
26.710       160
26.720       113
26.730       173
26.740       160
26.750       127
26.760       160
26.770       140
26.780       153
26.790       100
26.800       127
26.810       133
26.820       160
26.830       180
26.840       173
26.850       200
26.860       120
26.870       133
26.880       173
26.890       147
26.900       127
26.910       153
26.920       153
26.930       180
26.940       180
26.950       167
26.960       213
26.970       173
26.980       213
26.990       140
27.000       160
27.010       120
27.020       193
27.030       133
27.040       120
27.050       160
27.060       147
27.070       233
27.080       147
27.090       153
27.100       153
27.110       107
27.120       127
27.130       147
27.140       140
27.150       167
27.160       120
27.170       133
27.180       193
27.190       160
27.200       147
27.210       220
27.220       147
27.230       127
27.240       153
27.250       120
27.260       100
27.270       113
27.280       127
27.290       127
27.300       227
27.310       167
27.320       127
27.330       173
27.340       133
27.350       233
27.360       153
27.370       180
27.380       140
27.390       220
27.400       207
27.410       173
27.420       147
27.430       147
27.440       153
27.450       153
27.460       147
27.470       113
27.480       127
27.490       173
27.500       153
27.510       153
27.520       140
27.530       113
27.540       127
27.550       153
27.560        93
27.570       140
27.580       200
27.590       127
27.600       140
27.610       173
27.620       120
27.630       167
27.640       153
27.650       107
27.660       133
27.670       227
27.680       160
27.690       120
27.700       187
27.710       167
27.720       147
27.730       133
27.740       113
27.750       160
27.760       140
27.770       113
27.780       160
27.790       173
27.800       167
27.810       140
27.820       100
27.830       140
27.840       127
27.850       140
27.860       167
27.870        87
27.880       167
27.890       133
27.900       147
27.910        93
27.920       133
27.930       107
27.940       167
27.950       180
27.960       180
27.970       127
27.980       167
27.990       133
28.000       127
28.010       100
28.020        73
28.030       153
28.040       120
28.050       153
28.060       140
28.070       207
28.080       160
28.090       153
28.100       187
28.110       180
28.120       187
28.130       160
28.140       167
28.150       160
28.160       107
28.170       113
28.180       113
28.190       127
28.200       113
28.210       153
28.220       167
28.230       127
28.240       100
28.250       113
28.260       127
28.270       147
28.280       127
28.290       127
28.300       180
28.310       147
28.320       107
28.330       133
28.340        87
28.350       140
28.360       127
28.370       180
28.380       153
28.390       133
28.400       120
28.410       140
28.420       133
28.430       147
28.440       180
28.450       133
28.460       167
28.470       100
28.480        93
28.490       180
28.500       113
28.510       140
28.520       127
28.530       113
28.540       133
28.550       127
28.560       133
28.570       167
28.580       127
28.590       147
28.600       240
28.610       167
28.620       113
28.630       107
28.640       107
28.650       100
28.660       180
28.670       120
28.680       120
28.690       107
28.700       133
28.710       173
28.720       133
28.730       167
28.740       160
28.750       120
28.760       160
28.770        93
28.780        93
28.790       120
28.800       160
28.810       133
28.820       147
28.830       140
28.840       200
28.850       113
28.860       167
28.870       133
28.880       100
28.890        93
28.900       100
28.910       113
28.920        87
28.930       153
28.940       167
28.950       147
28.960        80
28.970       140
28.980       127
28.990       113
29.000       133
29.010       100
29.020       167
29.030       133
29.040       147
29.050       187
29.060       147
29.070       173
29.080       153
29.090       113
29.100       167
29.110       113
29.120       127
29.130       140
29.140       187
29.150       147
29.160       140
29.170        93
29.180       127
29.190       173
29.200       127
29.210       133
29.220       133
29.230       173
29.240       153
29.250       187
29.260       167
29.270       127
29.280       193
29.290       133
29.300       127
29.310       153
29.320       107
29.330       180
29.340       127
29.350       140
29.360       147
29.370       120
29.380       133
29.390       133
29.400       180
29.410       147
29.420       100
29.430       120
29.440       127
29.450       107
29.460       133
29.470       140
29.480       107
29.490       133
29.500       160
29.510       107
29.520       127
29.530       107
29.540       107
29.550       133
29.560       107
29.570       107
29.580       100
29.590       207
29.600       127
29.610       133
29.620       153
29.630       100
29.640       107
29.650       120
29.660        80
29.670       100
29.680       180
29.690       187
29.700       153
29.710        67
29.720       140
29.730       113
29.740       133
29.750       107
29.760       147
29.770       140
29.780       133
29.790       153
29.800       147
29.810       113
29.820       113
29.830       147
29.840       113
29.850       160
29.860       120
29.870       127
29.880        93
29.890       107
29.900       133
29.910       107
29.920        73
29.930       133
29.940       107
29.950       100
29.960       180
29.970       133
29.980       133
29.990        93
30.000        93
30.010       120
30.020        93
30.030       107
30.040       127
30.050       147
30.060       120
30.070       127
30.080       153
30.090        93
30.100       120
30.110        87
30.120       160
30.130       133
30.140       100
30.150       120
30.160       140
30.170        93
30.180        60
30.190       107
30.200       133
30.210       127
30.220       153
30.230       160
30.240       173
30.250       127
30.260       113
30.270       100
30.280       193
30.290       133
30.300       113
30.310       187
30.320       100
30.330       113
30.340       120
30.350       100
30.360       100
30.370       180
30.380       100
30.390        73
30.400       173
30.410       107
30.420       160
30.430       147
30.440       120
30.450        93
30.460       127
30.470       120
30.480       120
30.490       107
30.500       113
30.510       147
30.520       180
30.530       140
30.540       113
30.550       127
30.560       127
30.570       113
30.580       133
30.590       180
30.600       147
30.610        93
30.620       173
30.630       120
30.640       160
30.650       120
30.660       107
30.670        80
30.680       140
30.690       127
30.700       113
30.710       127
30.720       107
30.730       153
30.740       147
30.750       153
30.760       167
30.770       127
30.780       180
30.790        93
30.800       127
30.810       160
30.820       127
30.830       120
30.840       107
30.850       127
30.860       140
30.870       113
30.880       140
30.890       133
30.900        53
30.910       113
30.920       120
30.930        93
30.940       147
30.950       100
30.960       133
30.970       107
30.980       193
30.990       153
31.000       180
31.010       133
31.020       207
31.030       227
31.040       160
31.050       213
31.060       160
31.070       180
31.080       313
31.090       273
31.100       147
31.110       407
31.120       347
31.130       353
31.140       333
31.150       453
31.160       506
31.170       433
31.180       473
31.190       573
31.200       613
31.210       566
31.220       700
31.230       613
31.240       646
31.250       600
31.260       600
31.270       660
31.280       633
31.290       526
31.300       753
31.310       566
31.320       606
31.330       620
31.340       540
31.350       440
31.360       493
31.370       440
31.380       320
31.390       380
31.400       327
31.410       280
31.420       253
31.430       253
31.440       180
31.450       173
31.460       233
31.470       140
31.480       140
31.490       107
31.500       140
31.510       213
31.520       120
31.530       127
31.540       127
31.550       160
31.560       153
31.570       107
31.580       120
31.590       133
31.600       120
31.610       127
31.620       120
31.630       113
31.640        67
31.650       107
31.660       140
31.670       113
31.680       120
31.690        73
31.700       113
31.710       120
31.720       107
31.730       113
31.740       120
31.750        80
31.760       160
31.770       160
31.780        87
31.790       153
31.800       127
31.810       113
31.820       153
31.830       107
31.840       133
31.850       113
31.860        73
31.870        80
31.880       120
31.890       120
31.900       153
31.910        87
31.920       113
31.930       140
31.940       107
31.950        87
31.960        87
31.970       113
31.980        80
31.990       120
32.000        87
32.010        73
32.020       100
32.030        80
32.040       113
32.050        87
32.060       113
32.070       100
32.080       120
32.090        87
32.100       120
32.110       127
32.120        73
32.130       133
32.140       113
32.150       107
32.160       107
32.170        93
32.180        47
32.190        87
32.200       120
32.210        60
32.220       113
32.230        87
32.240        93
32.250        87
32.260       133
32.270        60
32.280       153
32.290        87
32.300       100
32.310        93
32.320       120
32.330        80
32.340       173
32.350       100
32.360       140
32.370       107
32.380       127
32.390       147
32.400       147
32.410        80
32.420       120
32.430       113
32.440        73
32.450        93
32.460        53
32.470       147
32.480       107
32.490        93
32.500       107
32.510        80
32.520        93
32.530       153
32.540        73
32.550        73
32.560        67
32.570        93
32.580       127
32.590       100
32.600       113
32.610       107
32.620        87
32.630       113
32.640        80
32.650        67
32.660       120
32.670       100
32.680       120
32.690       113
32.700        67
32.710        73
32.720        73
32.730       100
32.740        47
32.750        67
32.760        93
32.770        67
32.780       107
32.790        80
32.800       153
32.810        87
32.820        80
32.830       100
32.840       100
32.850        87
32.860       127
32.870        80
32.880        87
32.890        67
32.900       120
32.910       113
32.920        93
32.930       127
32.940       133
32.950        93
32.960        87
32.970        93
32.980        80
32.990        67
33.000        80
33.010        73
33.020       100
33.030       127
33.040        87
33.050        80
33.060       107
33.070        80
33.080        67
33.090        87
33.100       100
33.110       127
33.120       100
33.130        60
33.140        47
33.150        67
33.160       147
33.170        87
33.180        93
33.190        73
33.200        67
33.210        80
33.220        53
33.230        67
33.240        80
33.250        93
33.260       107
33.270       107
33.280        60
33.290        40
33.300        93
33.310        93
33.320        73
33.330        67
33.340        73
33.350       100
33.360        87
33.370        87
33.380        87
33.390        73
33.400        80
33.410       100
33.420       100
33.430        67
33.440        80
33.450        67
33.460       120
33.470       160
33.480        80
33.490       127
33.500       107
33.510        93
33.520       100
33.530        87
33.540        87
33.550       107
33.560       113
33.570        73
33.580        80
33.590        73
33.600        60
33.610        87
33.620       127
33.630        80
33.640        53
33.650        73
33.660        80
33.670        67
33.680        87
33.690       127
33.700        60
33.710        47
33.720        73
33.730       100
33.740        67
33.750        53
33.760        67
33.770       100
33.780       100
33.790        80
33.800       107
33.810       100
33.820        33
33.830        60
33.840        60
33.850        67
33.860        80
33.870        93
33.880        40
33.890        33
33.900        60
33.910        67
33.920        60
33.930        73
33.940        87
33.950        87
33.960        73
33.970       100
33.980        67
33.990        93
34.000        80
34.010        80
34.020        60
34.030        53
34.040        80
34.050        80
34.060       100
34.070        53
34.080       100
34.090        60
34.100        93
34.110        67
34.120        80
34.130        80
34.140       113
34.150        80
34.160       100
34.170        87
34.180        87
34.190        80
34.200        47
34.210        80
34.220        47
34.230        60
34.240       107
34.250        73
34.260        40
34.270        73
34.280        53
34.290        47
34.300        80
34.310        73
34.320        60
34.330        73
34.340        73
34.350        47
34.360        60
34.370        87
34.380       100
34.390        60
34.400        33
34.410       100
34.420        73
34.430        93
34.440        80
34.450       120
34.460        87
34.470        53
34.480        73
34.490        60
34.500        53
34.510        47
34.520        47
34.530        53
34.540        80
34.550        73
34.560        33
34.570       113
34.580        67
34.590        60
34.600        33
34.610        60
34.620        93
34.630        67
34.640        80
34.650        47
34.660        60
34.670        80
34.680        80
34.690        40
34.700        67
34.710        53
34.720        73
34.730        67
34.740       100
34.750        53
34.760        73
34.770        27
34.780       107
34.790        60
34.800        47
34.810       107
34.820        33
34.830        53
34.840        67
34.850        67
34.860        60
34.870        73
34.880        80
34.890        67
34.900       100
34.910        53
34.920        47
34.930        60
34.940        33
34.950        60
34.960        40
34.970        67
34.980        60
34.990        47
35.000        73
35.010        53
35.020        60
35.030        67
35.040        80
35.050        93
35.060        60
35.070        67
35.080       107
35.090        40
35.100        33
35.110        73
35.120        53
35.130        67
35.140        33
35.150        73
35.160        73
35.170        60
35.180        67
35.190        33
35.200        73
35.210        53
35.220        73
35.230        67
35.240        67
35.250        80
35.260        60
35.270        60
35.280        60
35.290        87
35.300        67
35.310        87
35.320        67
35.330        80
35.340        53
35.350        87
35.360        80
35.370        20
35.380        47
35.390       100
35.400        87
35.410        73
35.420        73
35.430        60
35.440        73
35.450        40
35.460        40
35.470        80
35.480        47
35.490       107
35.500        73
35.510        60
35.520        53
35.530        47
35.540        67
35.550        80
35.560       107
35.570       100
35.580       100
35.590        47
35.600        67
35.610        73
35.620        60
35.630        53
35.640        47
35.650        47
35.660        60
35.670        40
35.680        40
35.690        87
35.700        33
35.710        87
35.720        53
35.730        67
35.740        47
35.750        53
35.760        60
35.770        60
35.780        40
35.790        40
35.800        33
35.810        67
35.820        87
35.830        60
35.840        87
35.850        53
35.860        67
35.870        27
35.880        73
35.890        53
35.900        73
35.910       113
35.920        53
35.930       113
35.940        40
35.950        80
35.960        93
35.970        87
35.980        53
35.990       107
36.000       100
36.010        73
36.020        80
36.030        53
36.040        60
36.050        80
36.060       100
36.070        60
36.080        73
36.090        60
36.100        73
36.110        33
36.120        60
36.130        47
36.140       100
36.150        33
36.160        53
36.170        67
36.180       120
36.190        73
36.200        53
36.210        60
36.220        47
36.230        87
36.240        60
36.250       100
36.260        93
36.270        60
36.280        60
36.290        60
36.300       100
36.310        33
36.320        40
36.330        80
36.340       120
36.350        53
36.360        53
36.370        80
36.380        73
36.390        60
36.400        80
36.410        93
36.420        53
36.430        93
36.440       107
36.450        33
36.460        60
36.470        80
36.480        53
36.490       113
36.500        73
36.510        93
36.520        47
36.530        80
36.540        67
36.550        87
36.560        73
36.570        87
36.580       100
36.590        93
36.600        60
36.610       113
36.620       107
36.630        73
36.640        87
36.650        73
36.660        73
36.670       113
36.680        60
36.690        67
36.700        93
36.710        80
36.720        67
36.730       113
36.740       120
36.750        87
36.760        60
36.770       120
36.780       100
36.790        80
36.800        93
36.810       127
36.820        60
36.830        73
36.840        67
36.850        87
36.860        40
36.870        80
36.880        67
36.890        80
36.900        47
36.910        53
36.920       100
36.930        67
36.940        87
36.950        80
36.960        47
36.970        67
36.980        73
36.990        53
37.000        53
37.010        73
37.020        53
37.030        47
37.040        60
37.050        80
37.060       107
37.070        60
37.080        47
37.090        93
37.100        27
37.110        53
37.120        73
37.130        53
37.140        53
37.150        47
37.160        47
37.170        87
37.180        60
37.190        67
37.200        87
37.210        33
37.220        40
37.230        47
37.240        40
37.250        53
37.260        33
37.270        73
37.280        27
37.290        67
37.300        40
37.310        40
37.320        73
37.330        80
37.340        40
37.350        80
37.360        33
37.370        73
37.380        87
37.390        40
37.400        67
37.410        67
37.420        73
37.430        67
37.440        67
37.450        60
37.460        47
37.470        47
37.480        47
37.490        67
37.500        47
37.510        87
37.520        47
37.530        67
37.540       120
37.550        67
37.560        67
37.570        60
37.580        53
37.590        40
37.600       107
37.610        73
37.620        53
37.630        40
37.640        60
37.650        80
37.660        40
37.670        67
37.680        80
37.690        47
37.700        53
37.710        53
37.720        40
37.730        40
37.740        73
37.750        80
37.760        40
37.770        67
37.780        27
37.790        67
37.800        60
37.810        73
37.820        33
37.830       107
37.840        93
37.850        87
37.860        47
37.870        93
37.880        67
37.890        33
37.900        27
37.910        53
37.920        33
37.930        60
37.940        33
37.950       107
37.960        33
37.970        40
37.980        33
37.990        27
38.000        80
38.010        53
38.020        60
38.030        13
38.040        47
38.050        47
38.060        20
38.070        47
38.080        60
38.090        40
38.100        67
38.110        53
38.120        67
38.130        87
38.140        40
38.150        20
38.160        60
38.170        40
38.180        53
38.190        47
38.200        87
38.210        80
38.220        40
38.230        73
38.240        87
38.250        60
38.260        73
38.270        93
38.280        67
38.290        67
38.300        80
38.310       107
38.320       100
38.330        93
38.340       160
38.350       133
38.360       147
38.370       160
38.380       180
38.390       273
38.400       307
38.410       327
38.420       313
38.430       333
38.440       280
38.450       367
38.460       340
38.470       327
38.480       353
38.490       327
38.500       267
38.510       233
38.520       247
38.530       340
38.540       220
38.550       227
38.560       147
38.570       293
38.580       180
38.590       187
38.600       133
38.610        80
38.620       113
38.630       113
38.640        87
38.650       107
38.660       140
38.670       107
38.680        47
38.690        47
38.700        67
38.710        53
38.720        53
38.730        53
38.740        33
38.750        53
38.760        40
38.770        27
38.780        40
38.790        60
38.800        40
38.810        40
38.820        80
38.830        53
38.840        40
38.850        40
38.860        27
38.870        53
38.880        40
38.890        40
38.900        33
38.910        40
38.920        60
38.930        40
38.940        33
38.950        53
38.960        40
38.970        27
38.980        47
38.990        60
39.000        40
39.010        60
39.020        80
39.030        33
39.040        53
39.050        20
39.060        60
39.070        47
39.080        33
39.090        47
39.100        67
39.110        33
39.120        67
39.130        67
39.140        40
39.150        60
39.160        67
39.170        60
39.180        53
39.190        73
39.200        67
39.210        67
39.220        53
39.230        40
39.240        47
39.250        67
39.260        53
39.270        80
39.280        47
39.290        47
39.300        47
39.310        40
39.320        67
39.330        80
39.340        60
39.350        60
39.360        40
39.370        40
39.380        47
39.390        53
39.400        40
39.410        53
39.420        53
39.430        33
39.440        53
39.450         7
39.460        80
39.470        53
39.480        40
39.490        33
39.500       127
39.510        33
39.520        40
39.530        40
39.540        47
39.550        67
39.560        53
39.570        67
39.580        20
39.590        73
39.600        87
39.610        80
39.620        40
39.630        47
39.640        53
39.650        73
39.660        67
39.670       113
39.680       120
39.690       100
39.700       107
39.710       113
39.720       127
39.730       100
39.740       107
39.750        93
39.760       140
39.770       180
39.780       167
39.790       193
39.800       213
39.810       227
39.820       160
39.830       173
39.840       193
39.850       267
39.860       153
39.870       213
39.880       220
39.890       120
39.900       140
39.910       147
39.920       167
39.930       100
39.940       127
39.950        93
39.960       127
39.970       100
39.980        67
39.990       140
40.000        80
40.010       100
40.020        40
40.030        53
40.040        53
40.050        47
40.060        60
40.070        27
40.080        73
40.090        53
40.100        27
40.110        33
40.120        60
40.130        47
40.140        40
40.150        20
40.160        33
40.170        53
40.180        47
40.190        40
40.200        60
40.210        60
40.220        47
40.230        13
40.240        20
40.250        67
40.260        47
40.270        53
40.280        53
40.290        20
40.300        53
40.310        40
40.320        33
40.330        40
40.340        33
40.350        53
40.360        27
40.370        27
40.380        40
40.390        20
40.400        33
40.410        73
40.420        13
40.430        53
40.440        40
40.450        47
40.460        47
40.470        53
40.480        47
40.490        73
40.500        20
40.510        33
40.520        20
40.530        47
40.540        13
40.550        27
40.560        40
40.570        40
40.580        33
40.590        33
40.600        53
40.610        53
40.620        53
40.630        33
40.640        47
40.650        20
40.660        60
40.670        27
40.680        67
40.690        67
40.700        60
40.710        13
40.720        13
40.730        40
40.740        60
40.750        53
40.760         0
40.770        53
40.780        53
40.790        40
40.800        27
40.810        53
40.820        33
40.830        60
40.840        33
40.850        47
40.860        53
40.870        40
40.880        67
40.890        60
40.900        47
40.910        47
40.920         7
40.930        27
40.940        40
40.950        47
40.960        40
40.970        27
40.980        53
40.990        33
41.000        40
41.010        33
41.020        33
41.030        20
41.040        47
41.050        27
41.060        33
41.070        67
41.080        47
41.090        60
41.100        33
41.110        33
41.120        47
41.130        53
41.140        67
41.150        40
41.160        40
41.170        47
41.180        40
41.190        40
41.200        33
41.210        40
41.220        53
41.230        47
41.240        27
41.250        53
41.260        40
41.270        40
41.280        47
41.290        67
41.300        40
41.310        27
41.320        53
41.330        53
41.340        60
41.350        33
41.360        60
41.370        20
41.380        47
41.390        47
41.400        27
41.410        27
41.420        27
41.430        33
41.440         7
41.450        47
41.460        20
41.470        33
41.480        33
41.490        27
41.500        47
41.510        33
41.520        20
41.530        47
41.540        40
41.550        47
41.560        73
41.570        20
41.580        33
41.590        13
41.600        27
41.610        40
41.620        20
41.630        20
41.640        60
41.650        33
41.660        27
41.670        53
41.680        33
41.690        60
41.700        20
41.710        47
41.720        40
41.730        20
41.740        60
41.750        13
41.760        27
41.770        27
41.780        13
41.790        20
41.800        27
41.810        33
41.820        27
41.830        20
41.840        20
41.850        33
41.860        27
41.870        47
41.880        27
41.890        40
41.900        47
41.910        47
41.920        27
41.930        40
41.940        13
41.950        27
41.960        53
41.970        27
41.980        60
41.990         7
42.000        40
42.010        40
42.020        40
42.030        20
42.040        20
42.050        20
42.060        67
42.070        47
42.080        40
42.090        40
42.100        47
42.110        13
42.120        53
42.130        13
42.140        27
42.150        20
42.160        13
42.170        40
42.180        27
42.190        13
42.200        40
42.210        20
42.220        27
42.230        40
42.240        20
42.250        27
42.260        73
42.270        33
42.280        40
42.290        20
42.300        40
42.310        47
42.320        13
42.330         7
42.340        27
42.350        33
42.360        33
42.370        27
42.380        27
42.390        27
42.400        33
42.410        27
42.420        27
42.430        13
42.440        13
42.450        47
42.460        60
42.470        33
42.480        53
42.490        53
42.500        27
42.510        20
42.520        20
42.530        47
42.540        20
42.550        13
42.560        27
42.570        47
42.580        27
42.590        47
42.600        53
42.610        33
42.620        40
42.630        40
42.640        27
42.650        53
42.660        67
42.670        40
42.680        27
42.690        53
42.700        27
42.710        33
42.720        27
42.730        20
42.740        60
42.750        27
42.760        47
42.770        53
42.780        27
42.790        40
42.800        20
42.810        27
42.820        67
42.830        20
42.840        47
42.850        60
42.860        33
42.870        33
42.880        60
42.890        33
42.900        60
42.910        40
42.920        47
42.930        20
42.940        20
42.950        20
42.960        40
42.970        33
42.980        20
42.990        47
43.000        60
43.010        53
43.020        27
43.030        27
43.040        33
43.050        53
43.060        33
43.070        33
43.080        27
43.090        33
43.100        53
43.110        20
43.120        40
43.130        40
43.140        40
43.150        47
43.160        27
43.170        33
43.180        27
43.190        60
43.200        67
43.210        53
43.220        47
43.230        40
43.240        53
43.250        20
43.260        20
43.270        33
43.280        53
43.290        40
43.300        27
43.310        33
43.320        47
43.330        13
43.340        20
43.350        27
43.360        33
43.370        13
43.380        20
43.390        40
43.400        27
43.410        40
43.420        33
43.430        20
43.440        13
43.450         7
43.460        27
43.470        40
43.480        27
43.490        47
43.500        47
43.510        33
43.520         7
43.530        27
43.540        33
43.550        27
43.560        13
43.570        27
43.580        47
43.590        20
43.600        27
43.610        27
43.620        27
43.630         7
43.640         7
43.650        20
43.660        47
43.670        13
43.680        47
43.690        40
43.700        33
43.710        27
43.720        40
43.730        40
43.740        47
43.750        27
43.760        33
43.770        20
43.780        27
43.790        20
43.800        27
43.810        27
43.820        13
43.830        27
43.840        20
43.850        33
43.860        53
43.870        60
43.880        20
43.890        27
43.900        40
43.910        33
43.920        47
43.930        27
43.940        47
43.950        47
43.960        27
43.970        27
43.980        53
43.990        20
44.000        27
44.010        20
44.020        20
44.030        60
44.040        33
44.050        33
44.060        47
44.070        20
44.080        40
44.090        27
44.100        13
44.110        20
44.120        13
44.130        20
44.140        53
44.150        13
44.160        20
44.170        33
44.180        20
44.190        40
44.200        33
44.210        20
44.220        40
44.230        40
44.240        40
44.250        33
44.260        33
44.270        20
44.280        33
44.290        53
44.300        40
44.310         7
44.320        20
44.330        13
44.340        33
44.350        33
44.360        27
44.370        40
44.380        47
44.390        53
44.400        40
44.410        33
44.420        33
44.430        27
44.440        20
44.450        33
44.460        27
44.470        27
44.480        13
44.490        47
44.500        40
44.510        27
44.520        27
44.530        33
44.540        27
44.550        20
44.560        40
44.570        20
44.580        47
44.590        27
44.600        13
44.610        33
44.620        47
44.630        20
44.640        27
44.650        60
44.660        60
44.670        20
44.680        47
44.690        33
44.700        60
44.710        40
44.720        33
44.730        40
44.740        53
44.750        33
44.760        40
44.770        33
44.780        27
44.790        33
44.800        33
44.810        47
44.820        53
44.830        40
44.840        47
44.850        33
44.860        13
44.870        33
44.880        33
44.890        27
44.900        47
44.910        53
44.920        20
44.930        40
44.940        13
44.950        33
44.960        33
44.970        47
44.980         7
44.990        33
45.000        27
45.010        33
45.020        47
45.030         7
45.040        47
45.050        27
45.060        27
45.070        67
45.080        73
45.090        40
45.100        27
45.110        53
45.120        33
45.130        13
45.140        33
45.150        27
45.160        27
45.170        53
45.180        33
45.190        40
45.200        27
45.210        47
45.220         7
45.230        60
45.240        27
45.250        13
45.260        27
45.270        47
45.280        27
45.290         7
45.300        40
45.310        20
45.320        40
45.330        60
45.340        27
45.350        33
45.360        40
45.370        20
45.380        27
45.390        40
45.400        53
45.410        47
45.420        33
45.430        27
45.440        20
45.450        47
45.460        27
45.470        67
45.480        47
45.490        47
45.500        40
45.510        20
45.520        40
45.530        27
45.540        73
45.550        40
45.560        20
45.570        33
45.580        27
45.590        13
45.600        27
45.610        40
45.620        40
45.630        67
45.640        33
45.650        27
45.660         7
45.670         7
45.680        20
45.690        40
45.700        27
45.710        40
45.720        13
45.730        40
45.740        20
45.750        40
45.760        47
45.770        27
45.780        20
45.790        27
45.800        40
45.810        53
45.820        33
45.830        20
45.840        40
45.850        67
45.860        27
45.870        27
45.880        27
45.890        27
45.900        40
45.910        53
45.920        33
45.930        47
45.940        27
45.950         7
45.960        20
45.970        27
45.980        53
45.990        27
46.000        53
46.010        47
46.020        27
46.030        20
46.040        20
46.050        27
46.060        40
46.070        20
46.080        13
46.090        33
46.100        67
46.110        40
46.120        40
46.130        47
46.140        67
46.150        40
46.160        47
46.170        60
46.180        13
46.190        53
46.200        20
46.210        40
46.220        67
46.230        20
46.240        20
46.250        47
46.260        33
46.270        33
46.280        40
46.290        27
46.300       100
46.310        27
46.320        40
46.330        40
46.340        33
46.350        47
46.360        33
46.370         7
46.380        67
46.390        27
46.400        13
46.410        20
46.420        27
46.430        40
46.440        33
46.450        20
46.460        67
46.470        27
46.480        13
46.490        27
46.500        33
46.510        33
46.520        47
46.530        20
46.540        67
46.550        53
46.560        27
46.570        33
46.580        40
46.590        20
46.600        20
46.610         7
46.620        40
46.630        27
46.640        53
46.650        40
46.660        53
46.670        33
46.680        33
46.690        13
46.700        27
46.710        20
46.720        40
46.730        40
46.740        47
46.750        80
46.760        20
46.770        27
46.780        67
46.790        53
46.800        73
46.810        80
46.820        60
46.830        53
46.840        47
46.850        47
46.860        40
46.870        60
46.880        60
46.890        27
46.900        87
46.910        33
46.920        40
46.930        13
46.940        53
46.950        73
46.960        73
46.970        33
46.980        47
46.990        60
47.000        27
47.010        73
47.020        60
47.030        87
47.040        87
47.050        53
47.060        53
47.070        47
47.080        87
47.090        87
47.100        80
47.110        67
47.120       100
47.130       173
47.140       153
47.150       313
47.160       420
47.170       446
47.180       540
47.190       633
47.200       646
47.210       673
47.220       580
47.230       586
47.240       546
47.250       333
47.260       247
47.270       160
47.280       167
47.290       113
47.300       113
47.310        67
47.320        93
47.330        93
47.340        67
47.350        87
47.360        73
47.370        73
47.380        67
47.390        73
47.400        67
47.410        27
47.420        33
47.430       100
47.440        60
47.450        53
47.460        60
47.470        33
47.480        27
47.490        33
47.500        40
47.510        47
47.520        20
47.530        27
47.540        40
47.550        40
47.560        40
47.570        53
47.580       113
47.590        20
47.600        60
47.610        60
47.620        40
47.630        53
47.640        40
47.650        33
47.660        40
47.670        60
47.680        47
47.690        47
47.700        73
47.710        60
47.720        20
47.730        33
47.740        20
47.750        53
47.760        33
47.770        27
47.780        40
47.790        20
47.800        20
47.810         7
47.820        47
47.830        40
47.840        60
47.850        47
47.860        47
47.870        47
47.880        27
47.890        47
47.900        20
47.910         7
47.920        53
47.930        47
47.940        33
47.950        47
47.960        53
47.970        20
47.980        33
47.990        33
48.000        20
48.010        67
48.020        40
48.030        20
48.040        20
48.050        27
48.060        53
48.070        13
48.080        33
48.090        40
48.100        53
48.110        40
48.120        13
48.130        40
48.140        33
48.150        80
48.160        47
48.170         7
48.180        47
48.190        33
48.200        33
48.210        67
48.220        53
48.230        47
48.240        47
48.250        33
48.260        40
48.270        40
48.280        73
48.290        27
48.300        47
48.310        33
48.320        73
48.330        33
48.340        53
48.350        20
48.360        47
48.370        47
48.380        40
48.390        47
48.400        60
48.410        53
48.420        33
48.430        33
48.440        47
48.450        33
48.460        60
48.470        20
48.480        33
48.490        47
48.500        47
48.510        40
48.520        27
48.530        33
48.540        20
48.550        40
48.560        53
48.570        27
48.580        53
48.590        33
48.600        13
48.610        47
48.620        20
48.630        33
48.640        27
48.650        40
48.660        53
48.670        33
48.680        33
48.690        27
48.700        47
48.710         7
48.720        40
48.730        40
48.740        33
48.750        60
48.760        47
48.770        27
48.780        53
48.790        47
48.800        80
48.810        60
48.820        67
48.830        60
48.840        87
48.850        60
48.860        87
48.870        87
48.880       107
48.890        67
48.900       113
48.910       107
48.920       113
48.930       107
48.940        87
48.950       107
48.960       173
48.970        93
48.980       113
48.990       107
49.000       140
49.010       120
49.020        87
49.030       100
49.040       100
49.050        87
49.060       133
49.070        93
49.080        93
49.090       100
49.100        40
49.110        73
49.120        73
49.130        60
49.140        47
49.150        27
49.160        47
49.170        67
49.180        73
49.190        20
49.200        73
49.210        27
49.220        33
49.230        13
49.240        67
49.250        47
49.260         7
49.270        47
49.280        60
49.290        53
49.300        33
49.310        40
49.320        33
49.330        27
49.340        20
49.350        27
49.360        33
49.370        20
49.380        20
49.390        47
49.400        40
49.410        40
49.420        13
49.430        20
49.440        40
49.450        33
49.460        47
49.470        20
49.480        33
49.490        47
49.500        27
49.510        53
49.520        20
49.530        20
49.540        47
49.550        27
49.560        33
49.570        40
49.580        47
49.590        40
49.600        33
49.610        40
49.620        53
49.630        33
49.640        20
49.650        33
49.660        40
49.670        27
49.680        60
49.690        40
49.700        20
49.710        13
49.720        20
49.730        20
49.740        80
49.750        40
49.760        33
49.770        47
49.780        27
49.790        33
49.800        27
49.810        60
49.820        40
49.830        13
49.840         7
49.850        33
49.860        40
49.870        20
49.880        33
49.890         7
49.900        47
49.910        33
49.920        40
49.930        33
49.940        13
49.950         7
49.960        13
49.970        27
49.980        47
49.990        33
50.000        33
50.010        27
50.020        20
50.030        67
50.040        40
50.050        33
50.060        33
50.070        33
50.080        40
50.090        27
50.100        40
50.110        20
50.120        67
50.130        73
50.140        60
50.150        20
50.160        40
50.170        33
50.180        40
50.190        33
50.200        53
50.210        33
50.220        40
50.230        27
50.240        33
50.250        40
50.260        27
50.270        40
50.280        93
50.290        47
50.300        20
50.310        27
50.320        27
50.330        33
50.340        33
50.350        80
50.360        60
50.370        47
50.380        33
50.390        53
50.400        40
50.410        47
50.420        80
50.430        47
50.440        40
50.450        47
50.460        33
50.470        53
50.480        33
50.490        53
50.500        47
50.510        47
50.520        33
50.530        40
50.540        87
50.550        53
50.560        33
50.570        33
50.580        33
50.590        40
50.600        73
50.610        27
50.620        60
50.630        47
50.640        60
50.650        93
50.660        80
50.670       133
50.680        80
50.690        80
50.700       140
50.710       107
50.720       160
50.730       160
50.740       167
50.750       193
50.760       187
50.770       173
50.780       167
50.790       127
50.800       167
50.810       167
50.820       173
50.830       133
50.840       153
50.850       160
50.860       180
50.870       140
50.880       220
50.890       120
50.900       147
50.910       147
50.920       160
50.930       167
50.940       207
50.950       180
50.960       180
50.970       180
50.980       147
50.990       213
51.000       167
51.010       107
51.020       153
51.030       127
51.040       147
51.050       153
51.060       173
51.070       187
51.080       180
51.090       207
51.100       113
51.110       133
51.120       147
51.130       173
51.140       207
51.150       100
51.160       153
51.170       160
51.180       133
51.190       227
51.200       213
51.210       120
51.220       207
51.230       173
51.240       193
51.250       127
51.260       193
51.270       140
51.280       153
51.290       140
51.300       160
51.310       173
51.320       120
51.330       153
51.340       207
51.350       200
51.360       107
51.370       147
51.380       200
51.390       167
51.400       140
51.410       140
51.420       153
51.430       127
51.440       133
51.450       140
51.460       180
51.470       227
51.480       167
51.490       160
51.500       187
51.510       167
51.520       173
51.530       207
51.540       127
51.550       127
51.560       213
51.570       167
51.580       187
51.590       140
51.600       153
51.610       160
51.620       160
51.630       227
51.640       173
51.650       173
51.660       213
51.670       220
51.680       180
51.690       187
51.700       167
51.710       140
51.720       220
51.730       167
51.740       173
51.750       253
51.760       153
51.770       213
51.780       193
51.790       127
51.800       167
51.810       220
51.820       220
51.830       153
51.840       167
51.850       193
51.860       180
51.870       233
51.880       207
51.890       253
51.900       167
51.910       180
51.920       220
51.930       153
51.940       173
51.950       213
51.960       147
51.970       273
51.980       187
51.990       193
52.000       253
52.010       173
52.020       200
52.030       173
52.040       180
52.050       207
52.060       287
52.070       267
52.080       233
52.090       327
52.100       247
52.110       340
52.120       293
52.130       353
52.140       353
52.150       293
52.160       380
52.170       333
52.180       333
52.190       367
52.200       466
52.210       353
52.220       480
52.230       420
52.240       353
52.250       506
52.260       500
52.270       653
52.280       713
52.290       773
52.300       966
52.310       960
52.320      1160
52.330      1546
52.340      1719
52.350      1766
52.360      2046
52.370      2192
52.380      2752
52.390      2866
52.400      2779
52.410      3005
52.420      3132
52.430      3485
52.440      3632
52.450      3818
52.460      4172
52.470      4192
52.480      4791
52.490      5431
52.500      6477
52.510      7264
52.520      9343
52.530     12462
52.540     18926
52.550     28895
52.560     40317
52.570     52132
52.580     61389
52.590     65907
52.600     69086
52.610     68699
52.620     61842
52.630     50786
52.640     37592
52.650     26696
52.660     19059
52.670     15074
52.680     15154
52.690     17786
52.700     23004
52.710     28895
52.720     33400
52.730     34599
52.740     36439
52.750     34480
52.760     32047
52.770     26070
52.780     18926
52.790     12981
52.800      8363
52.810      5385
52.820      4292
52.830      2826
52.840      2312
52.850      2039
52.860      1559
52.870      1599
52.880      1233
52.890      1146
52.900       906
52.910       793
52.920       720
52.930       806
52.940       593
52.950       733
52.960       500
52.970       513
52.980       553
52.990       446
53.000       533
53.010       440
53.020       426
53.030       353
53.040       420
53.050       360
53.060       460
53.070       333
53.080       400
53.090       333
53.100       426
53.110       313
53.120       373
53.130       287
53.140       260
53.150       287
53.160       287
53.170       280
53.180       253
53.190       220
53.200       260
53.210       247
53.220       253
53.230       220
53.240       233
53.250       207
53.260       200
53.270       247
53.280       233
53.290       247
53.300       207
53.310       153
53.320       200
53.330       233
53.340       127
53.350       207
53.360       147
53.370       333
53.380       227
53.390       200
53.400       193
53.410       207
53.420       180
53.430       173
53.440       173
53.450       200
53.460       240
53.470       253
53.480       240
53.490       207
53.500       233
53.510       120
53.520       140
53.530       173
53.540       187
53.550       147
53.560       113
53.570       160
53.580       133
53.590       133
53.600       187
53.610       187
53.620       167
53.630       147
53.640       153
53.650       133
53.660       193
53.670       153
53.680       140
53.690       173
53.700       127
53.710       153
53.720       140
53.730       160
53.740       167
53.750       153
53.760       153
53.770       107
53.780       173
53.790       133
53.800       100
53.810       120
53.820       140
53.830       147
53.840       187
53.850       133
53.860       140
53.870       173
53.880       147
53.890       160
53.900       167
53.910        93
53.920       140
53.930       133
53.940       120
53.950        93
53.960       153
53.970       120
53.980       147
53.990       120
54.000        87
54.010       100
54.020       147
54.030       140
54.040       113
54.050       120
54.060       133
54.070       153
54.080       180
54.090       127
54.100       133
54.110       127
54.120        87
54.130       147
54.140       120
54.150        93
54.160       107
54.170        93
54.180       127
54.190       113
54.200       120
54.210       133
54.220        93
54.230       167
54.240        93
54.250       153
54.260       113
54.270       133
54.280       120
54.290       100
54.300        93
54.310       147
54.320       120
54.330        80
54.340       113
54.350       120
54.360        87
54.370       140
54.380       160
54.390       113
54.400       113
54.410        87
54.420       153
54.430       120
54.440       100
54.450       120
54.460       147
54.470        80
54.480       153
54.490       127
54.500       167
54.510        93
54.520       107
54.530       127
54.540       113
54.550       133
54.560       107
54.570        73
54.580        93
54.590       160
54.600       120
54.610       133
54.620       127
54.630       120
54.640       107
54.650        67
54.660       120
54.670       113
54.680        60
54.690        67
54.700       140
54.710       120
54.720       120
54.730        93
54.740        53
54.750        87
54.760       120
54.770        87
54.780        87
54.790       100
54.800        80
54.810       120
54.820       107
54.830        40
54.840        93
54.850        87
54.860       113
54.870       133
54.880       113
54.890        93
54.900        40
54.910       100
54.920       107
54.930        60
54.940        87
54.950       120
54.960       127
54.970        80
54.980        87
54.990       120
55.000       120
55.010       127
55.020       100
55.030       100
55.040        93
55.050       113
55.060       127
55.070        60
55.080        67
55.090       120
55.100       120
55.110        93
55.120        80
55.130       120
55.140       113
55.150       127
55.160        73
55.170       107
55.180       120
55.190       127
55.200       153
55.210        67
55.220        87
55.230        33
55.240       120
55.250       140
55.260        67
55.270        80
55.280       120
55.290        80
55.300       140
55.310        73
55.320        93
55.330        60
55.340       127
55.350       107
55.360       100
55.370        93
55.380       107
55.390        87
55.400        93
55.410        73
55.420        80
55.430        80
55.440       120
55.450       100
55.460       107
55.470       133
55.480        67
55.490       147
55.500       133
55.510       113
55.520       153
55.530       147
55.540        73
55.550       107
55.560       153
55.570       100
55.580       153
55.590       107
55.600        67
55.610       107
55.620       127
55.630       100
55.640       107
55.650        60
55.660       120
55.670       127
55.680       167
55.690        60
55.700       100
55.710       127
55.720        73
55.730        93
55.740       127
55.750       140
55.760       113
55.770       100
55.780       153
55.790        93
55.800        87
55.810        40
55.820        93
55.830        73
55.840       140
55.850        80
55.860        80
55.870       113
55.880       107
55.890       113
55.900       113
55.910       113
55.920        47
55.930        93
55.940        67
55.950        87
55.960        47
55.970        87
55.980        80
55.990        60
56.000        60
56.010        87
56.020        40
56.030       160
56.040        73
56.050       120
56.060        73
56.070       113
56.080        73
56.090        80
56.100        93
56.110       113
56.120        60
56.130        93
56.140        40
56.150        53
56.160       133
56.170        73
56.180        80
56.190       113
56.200        80
56.210        60
56.220        73
56.230        87
56.240        93
56.250        87
56.260        93
56.270        93
56.280        87
56.290        67
56.300        73
56.310        87
56.320        47
56.330        87
56.340       100
56.350        53
56.360        80
56.370        67
56.380        67
56.390        53
56.400        93
56.410       113
56.420        53
56.430       100
56.440        87
56.450        67
56.460        20
56.470        87
56.480        60
56.490       100
56.500        93
56.510        73
56.520        73
56.530        73
56.540        53
56.550        60
56.560        60
56.570        80
56.580        67
56.590        47
56.600        40
56.610        60
56.620        60
56.630        67
56.640       113
56.650        93
56.660        80
56.670        60
56.680       120
56.690        87
56.700        47
56.710        73
56.720        47
56.730        53
56.740        87
56.750        67
56.760        60
56.770        67
56.780        67
56.790        80
56.800        87
56.810        60
56.820        67
56.830        60
56.840        87
56.850        40
56.860        40
56.870        67
56.880        60
56.890        47
56.900        53
56.910        53
56.920        47
56.930        27
56.940        80
56.950        40
56.960        67
56.970        93
56.980       113
56.990        60
57.000        53
57.010        93
57.020        87
57.030        87
57.040       100
57.050       100
57.060        73
57.070        47
57.080        53
57.090        40
57.100        33
57.110        73
57.120        27
57.130        67
57.140        93
57.150        67
57.160        47
57.170       120
57.180        87
57.190       107
57.200        80
57.210        53
57.220        67
57.230       107
57.240        67
57.250        73
57.260        60
57.270        87
57.280        47
57.290        67
57.300        87
57.310        67
57.320        73
57.330        93
57.340        47
57.350        33
57.360        80
57.370        60
57.380        47
57.390        67
57.400        47
57.410        40
57.420        60
57.430        87
57.440        60
57.450        93
57.460        60
57.470        73
57.480        53
57.490        87
57.500        53
57.510        27
57.520        67
57.530        27
57.540        87
57.550        27
57.560        67
57.570        67
57.580        40
57.590        80
57.600        33
57.610        40
57.620        80
57.630        67
57.640        73
57.650        80
57.660        93
57.670        27
57.680        67
57.690        47
57.700        53
57.710        60
57.720        53
57.730        53
57.740        60
57.750        67
57.760        73
57.770        67
57.780        67
57.790        47
57.800        27
57.810        80
57.820        60
57.830        67
57.840        40
57.850        73
57.860        47
57.870        33
57.880        67
57.890        40
57.900        87
57.910        67
57.920        53
57.930        60
57.940        27
57.950        80
57.960        73
57.970        73
57.980        53
57.990        93
58.000        80
58.010        47
58.020        93
58.030        53
58.040        60
58.050        73
58.060        47
58.070        67
58.080        73
58.090        73
58.100        33
58.110        67
58.120        60
58.130        33
58.140        60
58.150        47
58.160        67
58.170        73
58.180        80
58.190        60
58.200        47
58.210        33
58.220        73
58.230        87
58.240        40
58.250        73
58.260        67
58.270        87
58.280        73
58.290        67
58.300        93
58.310       100
58.320        47
58.330        73
58.340        47
58.350        33
58.360        60
58.370        53
58.380        60
58.390        80
58.400        60
58.410        47
58.420        47
58.430        67
58.440        53
58.450        40
58.460        53
58.470        33
58.480        40
58.490        40
58.500        53
58.510        33
58.520        53
58.530        87
58.540        33
58.550        87
58.560        60
58.570        60
58.580        40
58.590        47
58.600        53
58.610        33
58.620        47
58.630        33
58.640        47
58.650        47
58.660        60
58.670        67
58.680        27
58.690        40
58.700        40
58.710        67
58.720        67
58.730        40
58.740        67
58.750        87
58.760        60
58.770        40
58.780        67
58.790        73
58.800        40
58.810        40
58.820        73
58.830        53
58.840        47
58.850        40
58.860        80
58.870        73
58.880        60
58.890        40
58.900        73
58.910        33
58.920        67
58.930        73
58.940        53
58.950        53
58.960        40
58.970        80
58.980        67
58.990        47
59.000        80
59.010        60
59.020        47
59.030        33
59.040        33
59.050        53
59.060        53
59.070        67
59.080        27
59.090        60
59.100        40
59.110        93
59.120        87
59.130        60
59.140        33
59.150        80
59.160        67
59.170        53
59.180       113
59.190        73
59.200        60
59.210        53
59.220        40
59.230        60
59.240        47
59.250        40
59.260        73
59.270        33
59.280        60
59.290        40
59.300        80
59.310        47
59.320        40
59.330        73
59.340        87
59.350        60
59.360        53
59.370        67
59.380        53
59.390        67
59.400        87
59.410        67
59.420        67
59.430        73
59.440        67
59.450        53
59.460        60
59.470        47
59.480        40
59.490        60
59.500        60
59.510        47
59.520        40
59.530        40
59.540        60
59.550        47
59.560        53
59.570        47
59.580        53
59.590        13
59.600        67
59.610        53
59.620        47
59.630        53
59.640        47
59.650        87
59.660        47
59.670        60
59.680        73
59.690        67
59.700        47
59.710        40
59.720        47
59.730        27
59.740        73
59.750        53
59.760        47
59.770        93
59.780        87
59.790        73
59.800        47
59.810        47
59.820        40
59.830        87
59.840        53
59.850        40
59.860        47
59.870        33
59.880        60
59.890        20
59.900        40
59.910        60
59.920        60
59.930        73
59.940        27
59.950        33
59.960        33
59.970        60
59.980        40
59.990        80
60.000        47
