20.000       100
20.010        73
20.020        47
20.030        73
20.040        60
20.050        47
20.060        33
20.070        53
20.080        73
20.090        40
20.100        53
20.110        60
20.120        53
20.130        47
20.140        47
20.150        73
20.160        33
20.170        53
20.180        33
20.190        73
20.200        47
20.210        80
20.220        40
20.230        80
20.240        53
20.250        53
20.260        80
20.270        27
20.280        60
20.290        73
20.300        73
20.310        60
20.320        33
20.330        33
20.340        27
20.350        33
20.360        33
20.370        67
20.380        40
20.390        60
20.400        60
20.410        93
20.420        33
20.430        33
20.440        73
20.450        47
20.460        47
20.470        67
20.480        53
20.490        20
20.500        40
20.510        60
20.520        87
20.530        87
20.540        53
20.550        47
20.560        47
20.570        93
20.580        33
20.590        27
20.600        47
20.610        67
20.620        47
20.630        60
20.640        60
20.650        53
20.660        27
20.670        47
20.680        73
20.690        40
20.700        80
20.710        87
20.720        93
20.730        33
20.740        20
20.750        60
20.760        73
20.770        33
20.780        20
20.790        33
20.800        67
20.810        40
20.820        27
20.830        47
20.840        73
20.850        80
20.860        67
20.870        67
20.880        33
20.890        53
20.900        67
20.910        80
20.920        67
20.930        33
20.940        33
20.950        40
20.960        40
20.970        47
20.980        53
20.990        40
21.000        67
21.010        47
21.020        80
21.030        53
21.040        67
21.050        73
21.060        73
21.070        53
21.080        40
21.090        67
21.100        80
21.110        53
21.120        93
21.130        40
21.140        33
21.150        33
21.160        60
21.170        73
21.180        53
21.190        60
21.200        47
21.210        40
21.220        53
21.230        53
21.240        53
21.250        67
21.260        33
21.270        67
21.280        67
21.290        73
21.300        60
21.310        53
21.320        53
21.330        40
21.340        53
21.350        20
21.360        27
21.370        53
21.380        33
21.390        67
21.400        67
21.410        27
21.420        47
21.430        33
21.440        87
21.450        53
21.460        33
21.470        33
21.480        53
21.490        53
21.500        67
21.510        80
21.520        47
21.530        33
21.540        53
21.550        53
21.560        40
21.570        60
21.580        80
21.590        40
21.600        67
21.610        53
21.620        80
21.630        33
21.640        87
21.650        47
21.660        53
21.670        67
21.680        60
21.690        73
21.700        47
21.710        80
21.720        73
21.730        93
21.740        73
21.750        60
21.760        40
21.770        67
21.780        80
21.790        27
21.800        87
21.810        53
21.820        60
21.830        53
21.840        87
21.850        87
21.860        80
21.870        60
21.880        47
21.890        53
21.900        73
21.910        33
21.920        53
21.930        73
21.940        73
21.950        20
21.960        47
21.970        53
21.980        80
21.990        60
22.000        53
22.010        67
22.020        53
22.030        40
22.040        73
22.050        67
22.060        53
22.070        53
22.080        47
22.090        60
22.100        67
22.110        60
22.120        60
22.130        53
22.140        47
22.150        67
22.160       107
22.170        67
22.180        33
22.190        53
22.200        87
22.210        53
22.220       107
22.230        33
22.240        67
22.250        67
22.260        73
22.270        47
22.280       107
22.290        53
22.300        87
22.310        60
22.320        60
22.330        40
22.340        53
22.350        93
22.360        93
22.370        60
22.380        53
22.390        73
22.400        53
22.410        87
22.420        73
22.430        87
22.440        40
22.450        67
22.460        80
22.470        47
22.480        53
22.490        40
22.500        93
22.510        73
22.520        40
22.530        40
22.540        53
22.550        67
22.560        40
22.570        87
22.580        40
22.590       120
22.600        80
22.610       100
22.620        60
22.630        87
22.640        73
22.650        93
22.660       107
22.670        73
22.680       133
22.690        67
22.700       100
22.710        47
22.720        40
22.730        27
22.740        40
22.750        93
22.760        60
22.770        33
22.780       153
22.790        67
22.800       127
22.810        87
22.820        87
22.830        60
22.840        53
22.850        80
22.860       113
22.870        87
22.880       113
22.890        80
22.900        67
22.910        73
22.920       113
22.930       120
22.940        87
22.950        80
22.960       167
22.970       107
22.980       100
22.990       120
23.000       100
23.010       113
23.020       153
23.030       120
23.040       180
23.050       147
23.060       167
23.070       167
23.080       187
23.090       207
23.100       173
23.110       187
23.120       147
23.130       140
23.140       133
23.150        80
23.160        80
23.170        93
23.180        80
23.190        73
23.200       107
23.210       120
23.220       127
23.230       107
23.240        80
23.250       113
23.260       120
23.270        87
23.280       133
23.290       160
23.300        53
23.310        87
23.320       107
23.330        73
23.340       127
23.350       100
23.360        93
23.370       160
23.380       107
23.390        93
23.400       100
23.410        93
23.420        67
23.430       120
23.440       147
23.450        67
23.460        87
23.470        87
23.480       120
23.490        53
23.500        80
23.510        73
23.520        60
23.530       100
23.540        60
23.550       100
23.560        80
23.570       153
23.580        87
23.590       180
23.600       113
23.610       100
23.620       100
23.630        73
23.640       113
23.650       127
23.660        93
23.670       120
23.680       120
23.690       133
23.700       100
23.710       127
23.720       133
23.730       133
23.740        60
23.750       173
23.760        93
23.770        80
23.780       127
23.790       133
23.800       107
23.810        93
23.820       160
23.830       160
23.840       140
23.850       147
23.860       120
23.870       120
23.880       147
23.890       107
23.900       153
23.910       140
23.920       133
23.930       120
23.940       100
23.950       120
23.960       147
23.970       127
23.980       127
23.990       160
24.000       133
24.010       147
24.020       120
24.030       107
24.040       107
24.050       113
24.060        93
24.070       127
24.080       127
24.090       187
24.100       180
24.110       147
24.120       140
24.130       140
24.140       133
24.150       167
24.160       127
24.170       167
24.180       153
24.190       120
24.200       180
24.210       173
24.220       193
24.230       153
24.240       133
24.250       173
24.260       127
24.270       107
24.280       153
24.290       113
24.300       180
24.310       247
24.320       153
24.330       200
24.340       107
24.350       147
24.360       167
24.370       233
24.380       147
24.390       153
24.400       113
24.410       187
24.420       127
24.430       213
24.440       200
24.450       187
24.460       180
24.470       147
24.480       160
24.490        93
24.500       153
24.510       193
24.520       193
24.530       213
24.540       107
24.550       173
24.560       153
24.570        93
24.580       233
24.590       107
24.600       187
24.610       227
24.620       167
24.630       200
24.640       227
24.650       127
24.660       173
24.670       200
24.680       193
24.690       213
24.700       247
24.710       227
24.720       233
24.730       193
24.740       267
24.750       247
24.760       220
24.770       227
24.780       233
24.790       180
24.800       227
24.810       233
24.820       340
24.830       193
24.840       280
24.850       267
24.860       253
24.870       193
24.880       193
24.890       300
24.900       320
24.910       280
24.920       213
24.930       193
24.940       280
24.950       280
24.960       287
24.970       313
24.980       200
24.990       247
25.000       247
25.010       300
25.020       247
25.030       273
25.040       293
25.050       260
25.060       247
25.070       333
25.080       340
25.090       220
25.100       233
25.110       293
25.120       213
25.130       280
25.140       273
25.150       240
25.160       273
25.170       300
25.180       373
25.190       233
25.200       280
25.210       247
25.220       293
25.230       307
25.240       280
25.250       360
25.260       320
25.270       373
25.280       446
25.290       433
25.300       660
25.310       853
25.320       853
25.330      1093
25.340      1120
25.350      1399
25.360      1513
25.370      1939
25.380      2073
25.390      2179
25.400      2206
25.410      2526
25.420      2712
25.430      2806
25.440      2792
25.450      2619
25.460      2992
25.470      2886
25.480      3072
25.490      4012
25.500      5291
25.510      8390
25.520     12208
25.530     15187
25.540     19206
25.550     21398
25.560     23524
25.570     26143
25.580     29035
25.590     31681
25.600     30661
25.610     25676
25.620     21378
25.630     16413
25.640     14194
25.650     14548
25.660     14181
25.670     11949
25.680      8343
25.690      5185
25.700      2839
25.710      1906
25.720      1533
25.730      1433
25.740       993
25.750       826
25.760       906
25.770       813
25.780       626
25.790       593
25.800       673
25.810       493
25.820       393
25.830       460
25.840       387
25.850       460
25.860       333
25.870       327
25.880       393
25.890       393
25.900       313
25.910       333
25.920       387
25.930       353
25.940       307
25.950       413
25.960       367
25.970       340
25.980       320
25.990       293
26.000       360
26.010       373
26.020       353
26.030       360
26.040       347
26.050       373
26.060       440
26.070       373
26.080       360
26.090       367
26.100       273
26.110       307
26.120       353
26.130       320
26.140       320
26.150       327
26.160       473
26.170       313
26.180       347
26.190       393
26.200       293
26.210       327
26.220       273
26.230       367
26.240       293
26.250       227
26.260       260
26.270       320
26.280       260
26.290       253
26.300       380
26.310       267
26.320       387
26.330       273
26.340       273
26.350       340
26.360       307
26.370       287
26.380       293
26.390       327
26.400       360
26.410       340
26.420       287
26.430       313
26.440       327
26.450       433
26.460       280
26.470       320
26.480       360
26.490       340
26.500       393
26.510       333
26.520       293
26.530       287
26.540       327
26.550       360
26.560       353
26.570       460
26.580       313
26.590       347
26.600       253
26.610       313
26.620       340
26.630       333
26.640       273
26.650       287
26.660       327
26.670       253
26.680       313
26.690       307
26.700       293
26.710       367
26.720       333
26.730       387
26.740       307
26.750       313
26.760       393
26.770       320
26.780       407
26.790       307
26.800       307
26.810       287
26.820       360
26.830       280
26.840       320
26.850       320
26.860       307
26.870       287
26.880       340
26.890       413
26.900       280
26.910       273
26.920       293
26.930       347
26.940       340
26.950       313
26.960       333
26.970       320
26.980       340
26.990       407
27.000       260
27.010       253
27.020       367
27.030       300
27.040       280
27.050       433
27.060       327
27.070       320
27.080       380
27.090       333
27.100       300
27.110       240
27.120       327
27.130       367
27.140       380
27.150       340
27.160       393
27.170       307
27.180       360
27.190       320
27.200       340
27.210       327
27.220       293
27.230       360
27.240       400
27.250       440
27.260       260
27.270       327
27.280       353
27.290       300
27.300       426
27.310       360
27.320       367
27.330       327
27.340       280
27.350       293
27.360       340
27.370       347
27.380       227
27.390       360
27.400       353
27.410       387
27.420       287
27.430       307
27.440       393
27.450       367
27.460       347
27.470       360
27.480       307
27.490       333
27.500       253
27.510       360
27.520       466
27.530       353
27.540       287
27.550       313
27.560       273
27.570       347
27.580       353
27.590       380
27.600       327
27.610       353
27.620       400
27.630       360
27.640       340
27.650       260
27.660       287
27.670       313
27.680       300
27.690       320
27.700       400
27.710       307
27.720       373
27.730       280
27.740       313
27.750       367
27.760       367
27.770       453
27.780       353
27.790       380
27.800       407
27.810       327
27.820       373
27.830       353
27.840       347
27.850       253
27.860       407
27.870       407
27.880       320
27.890       320
27.900       360
27.910       353
27.920       407
27.930       267
27.940       327
27.950       373
27.960       407
27.970       387
27.980       400
27.990       367
28.000       307
28.010       347
28.020       340
28.030       453
28.040       380
28.050       373
28.060       340
28.070       400
28.080       320
28.090       400
28.100       347
28.110       433
28.120       413
28.130       453
28.140       420
28.150       426
28.160       360
28.170       347
28.180       300
28.190       340
28.200       347
28.210       426
28.220       327
28.230       486
28.240       360
28.250       373
28.260       453
28.270       367
28.280       333
28.290       387
28.300       367
28.310       440
28.320       400
28.330       360
28.340       347
28.350       360
28.360       273
28.370       367
28.380       446
28.390       393
28.400       353
28.410       400
28.420       347
28.430       340
28.440       333
28.450       300
28.460       307
28.470       280
28.480       413
28.490       407
28.500       440
28.510       360
28.520       340
28.530       393
28.540       340
28.550       320
28.560       253
28.570       400
28.580       353
28.590       260
28.600       313
28.610       367
28.620       307
28.630       367
28.640       253
28.650       420
28.660       300
28.670       347
28.680       413
28.690       373
28.700       426
28.710       327
28.720       426
28.730       380
28.740       320
28.750       373
28.760       360
28.770       387
28.780       300
28.790       307
28.800       333
28.810       313
28.820       313
28.830       400
28.840       340
28.850       340
28.860       387
28.870       353
28.880       373
28.890       313
28.900       446
28.910       287
28.920       340
28.930       353
28.940       340
28.950       347
28.960       333
28.970       313
28.980       426
28.990       433
29.000       387
29.010       380
29.020       320
29.030       400
29.040       433
29.050       347
29.060       320
29.070       460
29.080       333
29.090       320
29.100       320
29.110       360
29.120       347
29.130       360
29.140       407
29.150       360
29.160       473
29.170       367
29.180       300
29.190       320
29.200       340
29.210       333
29.220       340
29.230       380
29.240       280
29.250       327
29.260       320
29.270       380
29.280       440
29.290       367
29.300       413
29.310       387
29.320       360
29.330       387
29.340       347
29.350       293
29.360       407
29.370       340
29.380       260
29.390       353
29.400       240
29.410       300
29.420       373
29.430       320
29.440       426
29.450       353
29.460       333
29.470       347
29.480       327
29.490       327
29.500       327
29.510       407
29.520       240
29.530       407
29.540       440
29.550       313
29.560       367
29.570       380
29.580       373
29.590       373
29.600       267
29.610       353
29.620       387
29.630       340
29.640       260
29.650       393
29.660       407
29.670       287
29.680       353
29.690       373
29.700       420
29.710       333
29.720       333
29.730       420
29.740       340
29.750       380
29.760       300
29.770       313
29.780       373
29.790       353
29.800       360
29.810       353
29.820       280
29.830       367
29.840       426
29.850       320
29.860       407
29.870       220
29.880       373
29.890       273
29.900       293
29.910       280
29.920       220
29.930       293
29.940       300
29.950       426
29.960       413
29.970       393
29.980       300
29.990       400
30.000       393
30.010       453
30.020       347
30.030       280
30.040       407
30.050       373
30.060       373
30.070       280
30.080       293
30.090       387
30.100       413
30.110       320
30.120       280
30.130       373
30.140       387
30.150       333
30.160       367
30.170       360
30.180       367
30.190       373
30.200       387
30.210       280
30.220       347
30.230       393
30.240       400
30.250       393
30.260       407
30.270       327
30.280       293
30.290       407
30.300       387
30.310       340
30.320       353
30.330       426
30.340       347
30.350       307
30.360       367
30.370       313
30.380       407
30.390       426
30.400       433
30.410       393
30.420       460
30.430       413
30.440       380
30.450       313
30.460       367
30.470       420
30.480       440
30.490       367
30.500       407
30.510       367
30.520       347
30.530       407
30.540       347
30.550       446
30.560       267
30.570       446
30.580       320
30.590       373
30.600       333
30.610       327
30.620       367
30.630       340
30.640       320
30.650       340
30.660       340
30.670       466
30.680       453
30.690       307
30.700       333
30.710       440
30.720       453
30.730       440
30.740       313
30.750       413
30.760       433
30.770       380
30.780       407
30.790       480
30.800       387
30.810       413
30.820       440
30.830       440
30.840       526
30.850       420
30.860       513
30.870       466
30.880       486
30.890       506
30.900       713
30.910       613
30.920       600
30.930       673
30.940       560
30.950       720
30.960       786
30.970       826
30.980       986
30.990       980
31.000      1000
31.010      1160
31.020      1353
31.030      1459
31.040      1439
31.050      1666
31.060      2172
31.070      2406
31.080      2612
31.090      2686
31.100      3159
31.110      3659
31.120      4438
31.130      5045
31.140      6058
31.150      6198
31.160      6884
31.170      7897
31.180      8003
31.190      8490
31.200      8303
31.210      8017
31.220      7963
31.230      7250
31.240      6951
31.250      6551
31.260      5871
31.270      5818
31.280      5138
31.290      4498
31.300      3719
31.310      3432
31.320      3065
31.330      2599
31.340      1993
31.350      1833
31.360      1453
31.370      1173
31.380      1046
31.390       973
31.400       886
31.410       760
31.420       780
31.430       620
31.440       613
31.450       540
31.460       546
31.470       493
31.480       560
31.490       407
31.500       500
31.510       413
31.520       426
31.530       307
31.540       500
31.550       347
31.560       407
31.570       360
31.580       407
31.590       466
31.600       373
31.610       373
31.620       413
31.630       320
31.640       340
31.650       433
31.660       400
31.670       393
31.680       320
31.690       393
31.700       387
31.710       347
31.720       340
31.730       267
31.740       347
31.750       293
31.760       367
31.770       347
31.780       247
31.790       313
31.800       267
31.810       307
31.820       387
31.830       280
31.840       273
31.850       407
31.860       300
31.870       340
31.880       327
31.890       340
31.900       320
31.910       360
31.920       347
31.930       367
31.940       466
31.950       300
31.960       293
31.970       273
31.980       353
31.990       320
32.000       353
32.010       300
32.020       247
32.030       353
32.040       340
32.050       233
32.060       240
32.070       247
32.080       287
32.090       340
32.100       360
32.110       353
32.120       373
32.130       327
32.140       320
32.150       247
32.160       253
32.170       380
32.180       353
32.190       313
32.200       240
32.210       267
32.220       280
32.230       333
32.240       247
32.250       313
32.260       247
32.270       407
32.280       293
32.290       287
32.300       333
32.310       273
32.320       260
32.330       287
32.340       353
32.350       253
32.360       247
32.370       280
32.380       247
32.390       220
32.400       320
32.410       267
32.420       313
32.430       307
32.440       193
32.450       287
32.460       300
32.470       293
32.480       307
32.490       273
32.500       240
32.510       247
32.520       280
32.530       253
32.540       240
32.550       220
32.560       287
32.570       327
32.580       253
32.590       240
32.600       260
32.610       260
32.620       253
32.630       267
32.640       313
32.650       253
32.660       233
32.670       247
32.680       227
32.690       327
32.700       307
32.710       200
32.720       213
32.730       320
32.740       273
32.750       220
32.760       300
32.770       240
32.780       293
32.790       227
32.800       300
32.810       247
32.820       280
32.830       240
32.840       300
32.850       213
32.860       253
32.870       287
32.880       233
32.890       200
32.900       193
32.910       220
32.920       233
32.930       293
32.940       213
32.950       267
32.960       333
32.970       240
32.980       253
32.990       280
33.000       287
33.010       200
33.020       227
33.030       253
33.040       287
33.050       273
33.060       320
33.070       340
33.080       227
33.090       133
33.100       200
33.110       267
33.120       240
33.130       207
33.140       273
33.150       267
33.160       207
33.170       260
33.180       207
33.190       253
33.200       287
33.210       180
33.220       140
33.230       213
33.240       293
33.250       160
33.260       233
33.270       287
33.280       293
33.290       280
33.300       247
33.310       233
33.320       187
33.330       227
33.340       213
33.350       220
33.360       173
33.370       187
33.380       240
33.390       233
33.400       227
33.410       273
33.420       247
33.430       253
33.440       200
33.450       267
33.460       240
33.470       307
33.480       327
33.490       160
33.500       280
33.510       193
33.520       240
33.530       253
33.540       307
33.550       293
33.560       220
33.570       227
33.580       187
33.590       173
33.600       233
33.610       193
33.620       167
33.630       193
33.640       273
33.650       213
33.660       240
33.670       207
33.680       233
33.690       233
33.700       127
33.710       173
33.720       313
33.730       147
33.740       187
33.750       213
33.760       253
33.770       280
33.780       167
33.790       180
33.800       247
33.810       180
33.820       160
33.830       207
33.840       140
33.850       213
33.860       200
33.870       260
33.880       233
33.890       213
33.900       247
33.910       173
33.920       253
33.930       193
33.940       200
33.950       233
33.960       240
33.970       213
33.980       220
33.990       213
34.000       167
34.010       247
34.020       187
34.030       173
34.040       147
34.050       273
34.060       227
34.070       247
34.080       167
34.090       253
34.100       220
34.110       180
34.120       180
34.130       227
34.140       140
34.150       167
34.160       200
34.170       187
34.180       267
34.190       207
34.200       153
34.210       200
34.220       147
34.230       173
34.240       187
34.250       147
34.260       220
34.270       220
34.280       187
34.290       213
34.300       180
34.310       187
34.320       207
34.330       200
34.340       207
34.350       193
34.360       207
34.370       127
34.380       153
34.390       200
34.400       220
34.410       200
34.420       213
34.430       187
34.440       187
34.450       173
34.460       180
34.470       160
34.480       127
34.490       207
34.500       200
34.510       153
34.520       173
34.530       167
34.540       187
34.550       140
34.560       227
34.570       173
34.580       153
34.590       167
34.600       173
34.610       147
34.620       240
34.630       160
34.640       193
34.650       147
34.660       153
34.670       187
34.680       173
34.690       253
34.700       233
34.710       280
34.720       233
34.730       180
34.740       280
34.750       213
34.760       180
34.770       173
34.780       180
34.790       153
34.800       220
34.810       187
34.820       140
34.830       173
34.840       153
34.850       153
34.860       140
34.870       147
34.880       267
34.890       167
34.900       200
34.910       167
34.920       133
34.930       160
34.940       173
34.950       133
34.960       113
34.970       153
34.980       240
34.990       187
35.000       147
35.010       173
35.020       113
35.030       120
35.040       140
35.050       140
35.060       160
35.070       167
35.080       167
35.090       173
35.100       187
35.110       207
35.120       173
35.130       113
35.140       133
35.150       180
35.160       247
35.170       200
35.180       147
35.190       127
35.200       173
35.210       193
35.220       173
35.230       147
35.240       153
35.250       227
35.260       180
35.270       133
35.280       180
35.290       167
35.300       147
35.310       180
35.320       227
35.330       160
35.340       167
35.350       187
35.360       167
35.370       233
35.380       147
35.390       127
35.400       120
35.410       167
35.420       180
35.430       167
35.440       180
35.450       160
35.460       173
35.470       233
35.480       153
35.490       127
35.500       173
35.510       173
35.520       153
35.530       233
35.540       220
35.550       153
35.560       133
35.570       140
35.580       113
35.590       160
35.600       160
35.610       167
35.620       147
35.630       153
35.640       167
35.650       180
35.660       173
35.670       160
35.680       153
35.690       213
35.700       120
35.710       120
35.720       127
35.730       153
35.740       187
35.750       200
35.760       140
35.770       140
35.780       160
35.790       153
35.800       193
35.810       113
35.820       127
35.830       127
35.840       147
35.850        93
35.860       153
35.870       107
35.880       180
35.890       127
35.900       173
35.910       140
35.920       180
35.930       147
35.940       167
35.950       160
35.960       160
35.970       147
35.980       127
35.990       107
36.000       133
36.010       193
36.020       160
36.030       173
36.040       133
36.050       167
36.060       133
36.070       133
36.080       153
36.090       160
36.100       180
36.110       220
36.120       107
36.130       140
36.140       240
36.150       173
36.160       200
36.170       173
36.180       120
36.190       107
36.200       100
36.210       193
36.220       193
36.230       160
36.240       133
36.250        73
36.260        93
36.270       220
36.280       173
36.290       133
36.300       187
36.310       167
36.320       127
36.330       200
36.340       127
36.350       147
36.360       147
36.370       147
36.380       127
36.390       113
36.400       140
36.410        93
36.420       127
36.430       113
36.440        87
36.450       153
36.460       100
36.470       173
36.480       113
36.490       100
36.500       100
36.510       127
36.520       133
36.530        87
36.540       173
36.550       147
36.560       180
36.570       193
36.580       180
36.590       100
36.600       153
36.610       127
36.620       127
36.630       100
36.640       107
36.650        87
36.660       120
36.670       160
36.680       127
36.690       107
36.700       120
36.710       100
36.720       140
36.730        93
36.740       160
36.750       127
36.760       153
36.770       147
36.780        93
36.790       167
36.800       167
36.810       120
36.820       213
36.830       187
36.840       140
36.850       100
36.860       160
36.870       113
36.880       147
36.890        80
36.900       113
36.910       127
36.920       140
36.930        93
36.940       127
36.950       140
36.960       127
36.970       107
36.980       127
36.990        60
37.000       193
37.010        87
37.020        93
37.030       147
37.040       127
37.050       100
37.060       140
37.070       133
37.080       113
37.090       140
37.100        93
37.110       113
37.120       147
37.130       173
37.140       147
37.150       120
37.160       107
37.170        87
37.180       167
37.190       100
37.200        73
37.210       140
37.220       120
37.230       120
37.240       133
37.250       113
37.260       100
37.270       127
37.280       113
37.290        67
37.300       127
37.310        87
37.320        60
37.330       113
37.340        93
37.350       113
37.360       133
37.370       173
37.380        60
37.390        60
37.400       113
37.410       133
37.420       120
37.430        80
37.440        93
37.450       147
37.460       100
37.470        87
37.480        67
37.490       100
37.500       133
37.510        93
37.520       120
37.530       147
37.540       160
37.550       100
37.560       127
37.570        40
37.580       113
37.590       120
37.600       120
37.610       107
37.620       120
37.630        73
37.640        93
37.650        67
37.660       153
37.670       107
37.680       147
37.690       127
37.700        80
37.710        80
37.720        67
37.730        73
37.740       107
37.750       127
37.760        80
37.770       160
37.780       100
37.790       127
37.800       113
37.810       127
37.820        93
37.830        93
37.840        67
37.850       107
37.860       107
37.870       100
37.880        80
37.890        93
37.900       107
37.910       107
37.920       133
37.930       127
37.940        60
37.950        60
37.960       113
37.970        53
37.980        93
37.990        87
38.000       107
38.010       113
38.020       100
38.030       140
38.040       107
38.050        67
38.060        73
38.070        87
38.080       120
38.090       120
38.100       113
38.110        67
38.120       113
38.130       127
38.140        93
38.150        93
38.160        93
38.170       133
38.180        93
38.190       113
38.200        87
38.210        87
38.220        47
38.230        40
38.240        87
38.250       133
38.260       107
38.270       100
38.280        80
38.290       107
38.300       113
38.310       113
38.320       113
38.330        93
38.340       107
38.350        67
38.360       100
38.370        67
38.380        67
38.390        87
38.400       100
38.410       100
38.420       187
38.430       107
38.440       160
38.450        87
38.460        93
38.470       153
38.480       113
38.490       140
38.500        67
38.510       107
38.520       100
38.530       120
38.540       107
38.550        67
38.560       140
38.570        93
38.580        67
38.590        60
38.600        73
38.610       107
38.620       100
38.630       120
38.640        93
38.650       107
38.660        93
38.670       113
38.680        80
38.690        87
38.700        73
38.710        60
38.720       147
38.730        93
38.740        47
38.750        87
38.760       107
38.770        87
38.780        87
38.790        80
38.800       100
38.810       100
38.820       100
38.830        87
38.840        67
38.850        87
38.860        93
38.870       107
38.880        73
38.890        60
38.900        87
38.910       113
38.920        60
38.930        93
38.940       147
38.950        80
38.960        67
38.970       113
38.980        73
38.990        80
39.000        73
39.010        67
39.020        80
39.030       120
39.040       113
39.050        60
39.060        80
39.070        80
39.080       113
39.090        67
39.100       100
39.110        60
39.120       107
39.130        60
39.140        53
39.150       113
39.160       100
39.170        67
39.180        67
39.190        60
39.200        87
39.210        67
39.220        93
39.230       127
39.240        73
39.250       107
39.260       100
39.270        73
39.280        60
39.290        80
39.300       107
39.310        67
39.320        80
39.330       127
39.340        87
39.350        60
39.360       113
39.370        87
39.380        60
39.390        53
39.400        60
39.410        93
39.420       107
39.430       100
39.440       140
39.450        53
39.460        53
39.470        73
39.480        73
39.490        73
39.500        67
39.510        53
39.520        87
39.530        73
39.540        60
39.550       120
39.560        80
39.570        67
39.580        60
39.590        87
39.600        87
39.610        60
39.620       107
39.630        73
39.640        60
39.650        60
39.660       113
39.670        53
39.680        53
39.690       113
39.700        80
39.710        80
39.720       113
39.730        87
39.740        93
39.750       153
39.760       107
39.770       113
39.780        87
39.790        67
39.800        53
39.810        87
39.820        67
39.830        53
39.840        80
39.850        73
39.860        93
39.870        67
39.880       107
39.890        73
39.900       100
39.910        60
39.920        67
39.930        80
39.940        53
39.950       120
39.960       113
39.970        73
39.980        73
39.990       107
40.000        60
40.010        93
40.020        47
40.030        87
40.040        73
40.050        80
40.060        87
40.070        93
40.080        73
40.090        67
40.100        47
40.110        27
40.120        67
40.130        80
40.140       120
40.150        47
40.160        87
40.170        53
40.180       100
40.190        80
40.200        40
40.210        60
40.220        67
40.230        93
40.240        60
40.250        87
40.260        40
40.270        60
40.280       100
40.290        47
40.300       100
40.310        67
40.320        93
40.330        60
40.340        67
40.350        67
40.360        60
40.370       100
40.380        87
40.390        80
40.400        93
40.410        60
40.420        80
40.430        80
40.440        27
40.450        87
40.460        80
40.470        80
40.480        47
40.490        80
40.500        67
40.510        73
40.520        73
40.530       113
40.540        60
40.550        67
40.560        53
40.570        47
40.580        87
40.590        60
40.600        93
40.610        53
40.620        47
40.630        73
40.640        60
40.650        53
40.660       120
40.670        53
40.680        60
40.690       100
40.700        73
40.710        47
40.720        60
40.730        40
40.740       100
40.750        60
40.760        80
40.770        87
40.780        73
40.790        53
40.800        47
40.810        40
40.820       100
40.830       113
40.840        47
40.850        40
40.860       100
40.870        67
40.880        67
40.890        67
40.900        80
40.910        80
40.920        60
40.930        53
40.940        80
40.950        27
40.960        60
40.970        93
40.980        47
40.990        67
41.000        73
41.010        60
41.020        93
41.030        40
41.040        13
41.050        60
41.060        73
41.070        60
41.080        47
41.090        67
41.100        27
41.110        73
41.120        87
41.130        67
41.140        53
41.150        87
41.160        40
41.170       100
41.180        87
41.190        60
41.200        67
41.210        73
41.220        80
41.230        67
41.240        67
41.250        67
41.260        27
41.270        60
41.280        87
41.290        60
41.300        53
41.310        47
41.320        53
41.330        87
41.340        67
41.350       100
41.360        87
41.370       113
41.380        80
41.390        60
41.400        73
41.410        80
41.420        53
41.430        47
41.440        53
41.450        47
41.460        60
41.470        93
41.480        60
41.490        40
41.500        80
41.510        93
41.520        53
41.530        40
41.540        73
41.550        67
41.560        47
41.570       113
41.580        53
41.590        67
41.600        60
41.610        60
41.620        80
41.630        67
41.640        87
41.650        20
41.660        60
41.670        60
41.680        33
41.690       113
41.700        67
41.710        87
41.720       100
41.730        27
41.740        80
41.750        47
41.760        20
41.770        53
41.780        80
41.790        80
41.800        60
41.810        80
41.820        27
41.830        53
41.840        67
41.850        73
41.860        53
41.870       107
41.880        67
41.890        60
41.900        73
41.910        80
41.920        60
41.930        87
41.940        60
41.950        80
41.960        40
41.970        93
41.980        67
41.990        47
42.000        47
42.010        80
42.020        33
42.030        73
42.040        93
42.050        60
42.060        67
42.070        80
42.080        47
42.090       113
42.100        60
42.110        60
42.120        60
42.130        60
42.140        53
42.150        60
42.160        87
42.170        73
42.180        53
42.190        47
42.200       107
42.210        40
42.220        40
42.230        67
42.240        73
42.250        87
42.260        93
42.270        53
42.280        67
42.290        60
42.300        87
42.310        27
42.320        47
42.330        40
42.340        60
42.350        80
42.360        67
42.370        40
42.380        47
42.390        73
42.400        53
42.410        47
42.420        40
42.430        80
42.440        47
42.450       120
42.460        73
42.470        60
42.480        67
42.490        60
42.500        60
42.510       100
42.520        40
42.530        60
42.540        60
42.550        73
42.560        33
42.570        60
42.580        60
42.590        27
42.600        40
42.610        60
42.620        53
42.630        60
42.640        40
42.650        40
42.660        60
42.670        67
42.680        67
42.690        60
42.700        47
42.710        47
42.720        60
42.730        47
42.740        53
42.750        73
42.760        60
42.770        47
42.780        40
42.790        60
42.800        40
42.810        47
42.820        47
42.830        67
42.840        60
42.850        93
42.860        40
42.870        73
42.880        53
42.890        60
42.900        53
42.910        47
42.920        67
42.930        47
42.940        53
42.950        47
42.960        40
42.970        80
42.980        40
42.990        60
43.000        53
43.010        87
43.020        67
43.030        60
43.040        20
43.050        53
43.060        47
43.070        60
43.080       100
43.090        40
43.100        33
43.110        27
43.120        47
43.130        87
43.140        33
43.150        53
43.160        87
43.170        80
43.180        53
43.190        40
43.200        33
43.210        93
43.220        53
43.230        87
43.240        53
43.250        47
43.260        53
43.270        67
43.280        33
43.290        73
43.300        80
43.310        80
43.320        73
43.330        33
43.340        27
43.350        60
43.360        67
43.370        73
43.380        47
43.390        87
43.400        40
43.410        47
43.420        67
43.430        53
43.440        67
43.450        87
43.460       100
43.470        67
43.480       133
43.490        87
43.500        47
43.510        80
43.520        87
43.530        47
43.540        33
43.550        73
43.560        67
43.570        80
43.580        33
43.590        33
43.600        93
43.610        47
43.620        33
43.630        73
43.640        33
43.650        67
43.660        33
43.670        47
43.680        53
43.690        47
43.700        27
43.710       113
43.720        60
43.730        33
43.740        67
43.750        53
43.760        33
43.770        67
43.780        67
43.790        60
43.800        67
43.810        60
43.820        53
43.830        93
43.840        80
43.850        60
43.860        60
43.870        67
43.880        40
43.890        53
43.900        33
43.910        53
43.920        53
43.930        60
43.940        73
43.950        20
43.960        53
43.970        47
43.980        60
43.990       113
44.000        47
44.010        47
44.020        87
44.030        67
44.040        87
44.050        33
44.060        33
44.070        33
44.080        13
44.090        47
44.100        33
44.110       100
44.120        27
44.130        40
44.140        13
44.150        60
44.160        67
44.170        93
44.180        67
44.190        53
44.200        60
44.210        27
44.220        67
44.230        80
44.240        67
44.250        80
44.260        40
44.270        93
44.280        53
44.290        80
44.300       100
44.310        40
44.320        53
44.330        27
44.340        47
44.350        40
44.360       133
44.370        60
44.380        33
44.390       100
44.400        53
44.410        87
44.420        20
44.430        80
44.440        60
44.450        47
44.460        20
44.470        53
44.480        80
44.490        40
44.500        60
44.510        93
44.520        33
44.530        73
44.540        60
44.550        47
44.560        87
44.570        53
44.580        93
44.590        93
44.600        67
44.610        47
44.620        60
44.630        67
44.640        27
44.650        53
44.660        67
44.670        73
44.680        93
44.690        87
44.700        87
44.710        67
44.720        87
44.730        87
44.740        53
44.750        33
44.760        87
44.770        60
44.780        93
44.790        60
44.800        67
44.810        47
44.820        73
44.830        87
44.840        33
44.850        60
44.860        93
44.870        73
44.880        60
44.890        53
44.900        60
44.910        87
44.920        60
44.930        53
44.940        67
44.950        87
44.960        27
44.970        67
44.980        53
44.990        60
45.000        47
45.010        73
45.020        80
45.030        47
45.040        27
45.050        80
45.060        40
45.070        60
45.080        80
45.090        47
45.100        53
45.110        93
45.120        67
45.130        33
45.140        67
45.150        40
45.160        40
45.170        40
45.180        60
45.190        80
45.200        80
45.210        47
45.220        47
45.230        53
45.240        93
45.250        27
45.260        67
45.270        33
45.280        60
45.290        60
45.300        33
45.310        47
45.320       113
45.330        33
45.340        40
45.350        60
45.360        40
45.370        93
45.380        93
45.390        53
45.400        73
45.410        33
45.420        53
45.430        60
45.440        53
45.450        20
45.460        20
45.470        47
45.480        40
45.490        20
45.500        27
45.510        47
45.520        27
45.530        80
45.540        73
45.550        40
45.560        47
45.570        53
45.580        53
45.590        93
45.600        47
45.610        73
45.620        67
45.630        53
45.640        47
45.650        67
45.660        53
45.670        40
45.680        53
45.690        40
45.700        60
45.710        67
45.720        47
45.730        53
45.740        67
45.750        33
45.760        53
45.770        47
45.780        33
45.790        40
45.800        60
45.810       100
45.820        53
45.830        53
45.840        60
45.850        47
45.860        33
45.870        53
45.880        27
45.890        40
45.900        67
45.910        53
45.920        60
45.930        47
45.940        67
45.950        40
45.960        33
45.970        47
45.980        47
45.990        33
46.000        47
46.010        33
46.020        53
46.030        40
46.040        40
46.050        33
46.060        67
46.070        53
46.080        47
46.090        40
46.100        60
46.110        53
46.120        67
46.130        60
46.140        60
46.150        80
46.160        40
46.170        47
46.180        27
46.190        47
46.200        53
46.210        47
46.220        87
46.230        60
46.240        53
46.250        80
46.260        60
46.270       100
46.280        20
46.290        53
46.300        33
46.310        40
46.320        67
46.330        47
46.340        27
46.350        33
46.360        60
46.370        67
46.380        53
46.390        73
46.400        27
46.410        67
46.420        40
46.430        40
46.440        67
46.450        60
46.460        67
46.470        40
46.480        60
46.490        67
46.500        27
46.510        27
46.520        60
46.530        47
46.540        27
46.550        60
46.560        80
46.570        67
46.580        60
46.590        80
46.600        67
46.610        27
46.620        87
46.630        47
46.640        27
46.650        80
46.660        33
46.670        67
46.680        40
46.690        67
46.700       100
46.710       107
46.720        60
46.730        73
46.740        80
46.750       120
46.760        73
46.770        80
46.780        73
46.790        80
46.800       107
46.810        80
46.820        80
46.830        93
46.840        80
46.850        60
46.860        47
46.870        73
46.880        80
46.890       107
46.900       107
46.910        93
46.920        60
46.930       100
46.940        73
46.950       107
46.960       100
46.970        67
46.980       127
46.990        73
47.000        93
47.010       140
47.020       107
47.030       147
47.040       100
47.050        93
47.060       247
47.070       160
47.080       227
47.090       240
47.100       313
47.110       380
47.120       340
47.130       573
47.140       873
47.150      1013
47.160      1273
47.170      1259
47.180      1366
47.190      1273
47.200      1366
47.210      1006
47.220       926
47.230       713
47.240       526
47.250       360
47.260       307
47.270       173
47.280       160
47.290       140
47.300       147
47.310       180
47.320       113
47.330       100
47.340       127
47.350       113
47.360        53
47.370       120
47.380        93
47.390       113
47.400        87
47.410        73
47.420        93
47.430        80
47.440        67
47.450        87
47.460        87
47.470       127
47.480       113
47.490        33
47.500        87
47.510        53
47.520       133
47.530       120
47.540       127
47.550        67
47.560        80
47.570        20
47.580        40
47.590       100
47.600        53
47.610       107
47.620        87
47.630        67
47.640        73
47.650        47
47.660        67
47.670       107
47.680        40
47.690        47
47.700        80
47.710        87
47.720        67
47.730        73
47.740        60
47.750       100
47.760        67
47.770        53
47.780        67
47.790        53
47.800        67
47.810       120
47.820        67
47.830        73
47.840        73
47.850        80
47.860        40
47.870        80
47.880        27
47.890        67
47.900        40
47.910        47
47.920        87
47.930        47
47.940        53
47.950        60
47.960        93
47.970        40
47.980        67
47.990        67
48.000       107
48.010        40
48.020        93
48.030        87
48.040       100
48.050        40
48.060        67
48.070        53
48.080        27
48.090        47
48.100        73
48.110       140
48.120        73
48.130        60
48.140        33
48.150        73
48.160        53
48.170        33
48.180        93
48.190        53
48.200        47
48.210        60
48.220        73
48.230        87
48.240        47
48.250        67
48.260        80
48.270        93
48.280        60
48.290        47
48.300        67
48.310        27
48.320        27
48.330        80
48.340        80
48.350        33
48.360        53
48.370        40
48.380        60
48.390        60
48.400        73
48.410        53
48.420        60
48.430        93
48.440        73
48.450        73
48.460        33
48.470        60
48.480        53
48.490        60
48.500        93
48.510        67
48.520        33
48.530        27
48.540        53
48.550        93
48.560        53
48.570        73
48.580        73
48.590        67
48.600        60
48.610        67
48.620        40
48.630        53
48.640        47
48.650        53
48.660        60
48.670        47
48.680        73
48.690        87
48.700        73
48.710        67
48.720        53
48.730        47
48.740        60
48.750        33
48.760        40
48.770        27
48.780        33
48.790        33
48.800        53
48.810        27
48.820        73
48.830        80
48.840        93
48.850        53
48.860        60
48.870        33
48.880        40
48.890        67
48.900        27
48.910        60
48.920        60
48.930        60
48.940        60
48.950        93
48.960        47
48.970        73
48.980        80
48.990        27
49.000        53
49.010        60
49.020        67
49.030        47
49.040        60
49.050        33
49.060        60
49.070        33
49.080        47
49.090        67
49.100        47
49.110        60
49.120        60
49.130        93
49.140        53
49.150        33
49.160        40
49.170        60
49.180        67
49.190        67
49.200        80
49.210        60
49.220        87
49.230        47
49.240        93
49.250        87
49.260        40
49.270        47
49.280        73
49.290        40
49.300        87
49.310        47
49.320        47
49.330        20
49.340        53
49.350        60
49.360        53
49.370        40
49.380        73
49.390        60
49.400        93
49.410        47
49.420        53
49.430        27
49.440        60
49.450        67
49.460        60
49.470        40
49.480       100
49.490        27
49.500        80
49.510        73
49.520        87
49.530        40
49.540        73
49.550        53
49.560        33
49.570        47
49.580        53
49.590        40
49.600        33
49.610        67
49.620        40
49.630        53
49.640        33
49.650        40
49.660        53
49.670        33
49.680        67
49.690        67
49.700        67
49.710        40
49.720        60
49.730        73
49.740        67
49.750        60
49.760        60
49.770        47
49.780        53
49.790        40
49.800        53
49.810        33
49.820        80
49.830        53
49.840        60
49.850        40
49.860        60
49.870        60
49.880        60
49.890        27
49.900        33
49.910        60
49.920        40
49.930        53
49.940        73
49.950        27
49.960        53
49.970        67
49.980        47
49.990        47
50.000        27
50.010        87
50.020        53
50.030        53
50.040        67
50.050        93
50.060        47
50.070        60
50.080        67
50.090        60
50.100        47
50.110        87
50.120        53
50.130        40
50.140        47
50.150        40
50.160        53
50.170        87
50.180        53
50.190        87
50.200        87
50.210        60
50.220        60
50.230        40
50.240        80
50.250        33
50.260        33
50.270        60
50.280        60
50.290        40
50.300        47
50.310        27
50.320        47
50.330        47
50.340        67
50.350        47
50.360        33
50.370        53
50.380        53
50.390        47
50.400        33
50.410        67
50.420        60
50.430        40
50.440        73
50.450        87
50.460        80
50.470        67
50.480        87
50.490        33
50.500        60
50.510        53
50.520        53
50.530        73
50.540        27
50.550        87
50.560        47
50.570        73
50.580        80
50.590        87
50.600       100
50.610        93
50.620       100
50.630        93
50.640       173
50.650       180
50.660       233
50.670       240
50.680       247
50.690       207
50.700       193
50.710       233
50.720       413
50.730       380
50.740       360
50.750       340
50.760       307
50.770       320
50.780       380
50.790       340
50.800       327
50.810       367
50.820       320
50.830       267
50.840       300
50.850       300
50.860       313
50.870       273
50.880       347
50.890       313
50.900       287
50.910       340
50.920       360
50.930       313
50.940       280
50.950       340
50.960       360
50.970       327
50.980       300
50.990       360
51.000       280
51.010       307
51.020       273
51.030       313
51.040       240
51.050       213
51.060       273
51.070       300
51.080       287
51.090       353
51.100       393
51.110       293
51.120       287
51.130       227
51.140       380
51.150       367
51.160       347
51.170       273
51.180       307
51.190       240
51.200       380
51.210       373
51.220       307
51.230       327
51.240       367
51.250       340
51.260       347
51.270       413
51.280       353
51.290       393
51.300       227
51.310       320
51.320       327
51.330       273
51.340       307
51.350       327
51.360       373
51.370       313
51.380       327
51.390       313
51.400       340
51.410       327
51.420       287
51.430       300
51.440       240
51.450       320
51.460       400
51.470       387
51.480       280
51.490       253
51.500       387
51.510       307
51.520       307
51.530       347
51.540       360
51.550       393
51.560       260
51.570       340
51.580       347
51.590       407
51.600       287
51.610       340
51.620       433
51.630       407
51.640       347
51.650       333
51.660       347
51.670       407
51.680       393
51.690       380
51.700       260
51.710       413
51.720       307
51.730       353
51.740       253
51.750       347
51.760       460
51.770       400
51.780       387
51.790       393
51.800       353
51.810       313
51.820       327
51.830       380
51.840       347
51.850       340
51.860       407
51.870       380
51.880       287
51.890       480
51.900       313
51.910       400
51.920       400
51.930       506
51.940       340
51.950       373
51.960       466
51.970       353
51.980       407
51.990       393
52.000       413
52.010       420
52.020       460
52.030       460
52.040       440
52.050       480
52.060       553
52.070       460
52.080       453
52.090       533
52.100       520
52.110       506
52.120       533
52.130       693
52.140       593
52.150       546
52.160       586
52.170       620
52.180       606
52.190       826
52.200       706
52.210       746
52.220       840
52.230       900
52.240      1053
52.250      1093
52.260      1393
52.270      1553
52.280      1653
52.290      2132
52.300      2219
52.310      2919
52.320      3112
52.330      3539
52.340      4145
52.350      4325
52.360      4751
52.370      5491
52.380      5498
52.390      6357
52.400      6218
52.410      6351
52.420      7090
52.430      7584
52.440      8170
52.450      8730
52.460      9683
52.470     11129
52.480     12522
52.490     15954
52.500     19159
52.510     27409
52.520     41743
52.530     60956
52.540     85772
52.550    107110
52.560    124477
52.570    132560
52.580    135599
52.590    132220
52.600    116054
52.610     92843
52.620     67013
52.630     45295
52.640     32041
52.650     27529
52.660     30188
52.670     37285
52.680     48547
52.690     58663
52.700     68979
52.710     72544
52.720     74997
52.730     72424
52.740     65221
52.750     50613
52.760     36685
52.770     23857
52.780     14741
52.790     10123
52.800      7077
52.810      5285
52.820      4245
52.830      3425
52.840      2959
52.850      2439
52.860      2266
52.870      1966
52.880      1746
52.890      1639
52.900      1446
52.910      1293
52.920      1339
52.930      1299
52.940      1140
52.950      1006
52.960      1013
52.970       953
52.980      1113
52.990       920
53.000       913
53.010       746
53.020       706
53.030       800
53.040       666
53.050       486
53.060       673
53.070       733
53.080       626
53.090       593
53.100       720
53.110       500
53.120       540
53.130       526
53.140       480
53.150       500
53.160       566
53.170       566
53.180       533
53.190       586
53.200       473
53.210       400
53.220       473
53.230       453
53.240       520
53.250       480
53.260       407
53.270       473
53.280       393
53.290       480
53.300       433
53.310       320
53.320       426
53.330       420
53.340       407
53.350       380
53.360       347
53.370       367
53.380       407
53.390       380
53.400       273
53.410       333
53.420       387
53.430       333
53.440       440
53.450       367
53.460       420
53.470       327
53.480       280
53.490       360
53.500       307
53.510       347
53.520       320
53.530       340
53.540       287
53.550       320
53.560       367
53.570       287
53.580       367
53.590       333
53.600       353
53.610       287
53.620       220
53.630       187
53.640       307
53.650       293
53.660       207
53.670       227
53.680       273
53.690       353
53.700       313
53.710       293
53.720       267
53.730       240
53.740       240
53.750       300
53.760       293
53.770       273
53.780       287
53.790       280
53.800       247
53.810       287
53.820       313
53.830       260
53.840       313
53.850       280
53.860       287
53.870       207
53.880       293
53.890       233
53.900       260
53.910       200
53.920       307
53.930       233
53.940       313
53.950       273
53.960       227
53.970       293
53.980       220
53.990       200
54.000       213
54.010       273
54.020       240
54.030       267
54.040       247
54.050       333
54.060       227
54.070       180
54.080       200
54.090       193
54.100       207
54.110       253
54.120       227
54.130       267
54.140       140
54.150       207
54.160       173
54.170       160
54.180       253
54.190       247
54.200       220
54.210       260
54.220       280
54.230       233
54.240       227
54.250       273
54.260       240
54.270       213
54.280       213
54.290       233
54.300       193
54.310       193
54.320       260
54.330       220
54.340       187
54.350       273
54.360       160
54.370       133
54.380       233
54.390       147
54.400       260
54.410       247
54.420       213
54.430       233
54.440       160
54.450       167
54.460       207
54.470       233
54.480       153
54.490       180
54.500       320
54.510       227
54.520       173
54.530       207
54.540       153
54.550       140
54.560       153
54.570       260
54.580       187
54.590       187
54.600       147
54.610       233
54.620       220
54.630       280
54.640       233
54.650       167
54.660       207
54.670       160
54.680       193
54.690       233
54.700       220
54.710       227
54.720       140
54.730       233
54.740       253
54.750       153
54.760       247
54.770       140
54.780       273
54.790       193
54.800       213
54.810       167
54.820       147
54.830       160
54.840       207
54.850       153
54.860       160
54.870       147
54.880       193
54.890       153
54.900       220
54.910       220
54.920       233
54.930       160
54.940       200
54.950       127
54.960       200
54.970       173
54.980       213
54.990       233
55.000       207
55.010       133
55.020       220
55.030       200
55.040       133
55.050       160
55.060       180
55.070       220
55.080       187
55.090       193
55.100       173
55.110       207
55.120       153
55.130       200
55.140       273
55.150       240
55.160       160
55.170       187
55.180       200
55.190       200
55.200       133
55.210       153
55.220       187
55.230       160
55.240       140
55.250       180
55.260       187
55.270       207
55.280       240
55.290       207
55.300       153
55.310       187
55.320       167
55.330       193
55.340       160
55.350       120
55.360       207
55.370       213
55.380       173
55.390       133
55.400       147
55.410       153
55.420       200
55.430       193
55.440       173
55.450       167
55.460       187
55.470       253
55.480       160
55.490       160
55.500       180
55.510       200
55.520       200
55.530       187
55.540       233
55.550       213
55.560       173
55.570       187
55.580       220
55.590       327
55.600       180
55.610       253
55.620       187
55.630       173
55.640       260
55.650       173
55.660       267
55.670       207
55.680       160
55.690       213
55.700       227
55.710       167
55.720       107
55.730       133
55.740       200
55.750       207
55.760       207
55.770       160
55.780       193
55.790       253
55.800       113
55.810       220
55.820       213
55.830       153
55.840       180
55.850       193
55.860       153
55.870       160
55.880       140
55.890       207
55.900       180
55.910       173
55.920       127
55.930       187
55.940       113
55.950       120
55.960       173
55.970       180
55.980       147
55.990       160
56.000       193
56.010       153
56.020       153
56.030       180
56.040       167
56.050       107
56.060       160
56.070       187
56.080       120
56.090       120
56.100       140
56.110       140
56.120       153
56.130       147
56.140       140
56.150       133
56.160       140
56.170       127
56.180       220
56.190       100
56.200       113
56.210       180
56.220       120
56.230       173
56.240       173
56.250       193
56.260       193
56.270       127
56.280       153
56.290       180
56.300       100
56.310       133
56.320       153
56.330        87
56.340       100
56.350       187
56.360       113
56.370       100
56.380        80
56.390       167
56.400       127
56.410       140
56.420       120
56.430       153
56.440       180
56.450       133
56.460       200
56.470       153
56.480       120
56.490        93
56.500       167
56.510       140
56.520       127
56.530       147
56.540       133
56.550       247
56.560       120
56.570       107
56.580       213
56.590       147
56.600       180
56.610       147
56.620        93
56.630       167
56.640       173
56.650       193
56.660       127
56.670       120
56.680       153
56.690       140
56.700       133
56.710       107
56.720       127
56.730        80
56.740       160
56.750       107
56.760       100
56.770       140
56.780       167
56.790       133
56.800       140
56.810       133
56.820       120
56.830       173
56.840       107
56.850       113
56.860       147
56.870       100
56.880       147
56.890       220
56.900        87
56.910       140
56.920       133
56.930       147
56.940       147
56.950       213
56.960       120
56.970       173
56.980       140
56.990       153
57.000        93
57.010       140
57.020       140
57.030       140
57.040        87
57.050       147
57.060       107
57.070       133
57.080       173
57.090       120
57.100       160
57.110        93
57.120       153
57.130       100
57.140        67
57.150       127
57.160       147
57.170        87
57.180        87
57.190       140
57.200       207
57.210        47
57.220       173
57.230        80
57.240       173
57.250       133
57.260       120
57.270       133
57.280       127
57.290       193
57.300        80
57.310       120
57.320       113
57.330       133
57.340       133
57.350       113
57.360       107
57.370       107
57.380        87
57.390       133
57.400        93
57.410       127
57.420       113
57.430       107
57.440       120
57.450       127
57.460       127
57.470       120
57.480        93
57.490       107
57.500       127
57.510       127
57.520       107
57.530        93
57.540       107
57.550       127
57.560        93
57.570       153
57.580        87
57.590       100
57.600       100
57.610       167
57.620       147
57.630       140
57.640       133
57.650       113
57.660       100
57.670       100
57.680       120
57.690       127
57.700        87
57.710       133
57.720        73
57.730        67
57.740       133
57.750       127
57.760        73
57.770        87
57.780       127
57.790        93
57.800       127
57.810       147
57.820        80
57.830       133
57.840       133
57.850       107
57.860       100
57.870       127
57.880        60
57.890       147
57.900       120
57.910        93
57.920       107
57.930       113
57.940       147
57.950       160
57.960        80
57.970        87
57.980        93
57.990       140
58.000       107
58.010        93
58.020        87
58.030        93
58.040       127
58.050        87
58.060       107
58.070       127
58.080        80
58.090       133
58.100       120
58.110        87
58.120       180
58.130       100
58.140       113
58.150        67
58.160       107
58.170        87
58.180       167
58.190       133
58.200       113
58.210       140
58.220       147
58.230       127
58.240       127
58.250       173
58.260        87
58.270       147
58.280       147
58.290        87
58.300       100
58.310        80
58.320       100
58.330       120
58.340       100
58.350       133
58.360       167
58.370        80
58.380       107
58.390       153
58.400        67
58.410       187
58.420        73
58.430        67
58.440       140
58.450       153
58.460       100
58.470        73
58.480       120
58.490       113
58.500       100
58.510        73
58.520        67
58.530        67
58.540        80
58.550        87
58.560       107
58.570       113
58.580        73
58.590        87
58.600        80
58.610        87
58.620        87
58.630       120
58.640        80
58.650       120
58.660       100
58.670        80
58.680        87
58.690       120
58.700       113
58.710       113
58.720        87
58.730        80
58.740       120
58.750        60
58.760       100
58.770       140
58.780        73
58.790        47
58.800        87
58.810       100
58.820       100
58.830        67
58.840        87
58.850       127
58.860        73
58.870       107
58.880       107
58.890        67
58.900        67
58.910       107
58.920        80
58.930       113
58.940       113
58.950        47
58.960        93
58.970        93
58.980       140
58.990       133
59.000       113
59.010       107
59.020       100
59.030        80
59.040        93
59.050       120
59.060       100
59.070        73
59.080        87
59.090       100
59.100       147
59.110       153
59.120       107
59.130        47
59.140        47
59.150       107
59.160        67
59.170       127
59.180        93
59.190       113
59.200       100
59.210        93
59.220        80
59.230       113
59.240        73
59.250        93
59.260        87
59.270       133
59.280        87
59.290        80
59.300       100
59.310        87
59.320        93
59.330        60
59.340       127
59.350       113
59.360        60
59.370       113
59.380        80
59.390        87
59.400        87
59.410       140
59.420       107
59.430       180
59.440        60
59.450       113
59.460       107
59.470        47
59.480        93
59.490        67
59.500       100
59.510       113
59.520       100
59.530        93
59.540        80
59.550        67
59.560        87
59.570        80
59.580        80
59.590       100
59.600        93
59.610        93
59.620       153
59.630       107
59.640        80
59.650        80
59.660       133
59.670       107
59.680        60
59.690        87
59.700        73
59.710        87
59.720       120
59.730       113
59.740       120
59.750       100
59.760        53
59.770        60
59.780       107
59.790       100
59.800        93
59.810        60
59.820        80
59.830       113
59.840       113
59.850        87
59.860        87
59.870       127
59.880       100
59.890        60
59.900        80
59.910        93
59.920       120
59.930       127
59.940        87
59.950       167
59.960       133
59.970        73
59.980        73
59.990        27
60.000        27
