20.000        53
20.010        53
20.020        20
20.030        47
20.040        27
20.050        33
20.060        67
20.070        40
20.080        47
20.090        40
20.100        47
20.110        67
20.120        27
20.130        67
20.140        40
20.150        27
20.160        47
20.170        20
20.180        40
20.190        40
20.200        13
20.210        47
20.220        13
20.230        53
20.240        67
20.250        20
20.260        33
20.270        87
20.280        53
20.290        53
20.300        53
20.310        60
20.320        47
20.330        53
20.340        47
20.350        40
20.360        40
20.370        53
20.380        60
20.390        40
20.400        53
20.410        33
20.420        40
20.430        47
20.440        53
20.450        33
20.460        33
20.470        20
20.480        47
20.490        53
20.500        60
20.510        40
20.520        40
20.530        40
20.540        47
20.550        40
20.560        33
20.570        47
20.580        40
20.590        27
20.600        33
20.610        60
20.620        40
20.630        20
20.640        47
20.650        40
20.660         7
20.670        13
20.680        33
20.690        40
20.700        60
20.710        60
20.720        27
20.730        47
20.740        53
20.750        47
20.760        40
20.770        73
20.780        67
20.790        73
20.800        20
20.810        27
20.820        47
20.830        67
20.840        73
20.850        47
20.860        47
20.870        40
20.880        40
20.890        73
20.900        40
20.910        40
20.920        40
20.930        47
20.940        53
20.950        53
20.960        60
20.970        67
20.980        47
20.990        33
21.000        47
21.010        53
21.020        47
21.030        80
21.040        80
21.050        87
21.060        73
21.070        20
21.080        80
21.090        13
21.100        73
21.110        60
21.120        53
21.130        53
21.140        60
21.150        27
21.160        40
21.170        73
21.180        73
21.190        60
21.200        40
21.210        87
21.220        87
21.230        73
21.240        40
21.250        67
21.260        67
21.270        87
21.280        93
21.290        47
21.300        93
21.310       120
21.320        53
21.330       107
21.340        73
21.350        60
21.360        60
21.370        67
21.380       100
21.390       107
21.400       113
21.410       100
21.420       153
21.430       100
21.440       147
21.450       187
21.460       140
21.470       267
21.480       147
21.490       127
21.500       207
21.510       260
21.520       213
21.530       233
21.540       320
21.550       280
21.560       220
21.570       293
21.580       300
21.590       327
21.600       380
21.610       273
21.620       340
21.630       333
21.640       400
21.650       380
21.660       347
21.670       466
21.680       340
21.690       387
21.700       433
21.710       293
21.720       313
21.730       333
21.740       273
21.750       213
21.760       253
21.770       193
21.780       253
21.790       207
21.800       160
21.810       187
21.820       180
21.830       147
21.840       120
21.850       107
21.860       127
21.870       127
21.880       120
21.890       113
21.900        87
21.910        40
21.920        87
21.930        67
21.940        40
21.950        47
21.960        60
21.970        87
21.980        60
21.990        47
22.000        73
22.010        53
22.020        47
22.030        67
22.040        47
22.050        47
22.060        53
22.070        47
22.080        53
22.090        47
22.100        80
22.110        40
22.120        20
22.130        73
22.140        53
22.150        33
22.160        40
22.170        53
22.180        80
22.190        53
22.200        47
22.210        47
22.220        33
22.230        13
22.240        67
22.250        20
22.260        33
22.270        40
22.280        80
22.290        40
22.300        20
22.310        53
22.320        53
22.330        13
22.340        73
22.350        40
22.360        47
22.370        40
22.380        33
22.390        40
22.400        53
22.410        53
22.420        40
22.430        53
22.440        33
22.450        40
22.460        47
22.470        13
22.480        47
22.490        53
22.500        40
22.510         7
22.520        53
22.530        27
22.540        47
22.550         7
22.560        40
22.570        53
22.580        67
22.590        47
22.600        33
22.610        40
22.620        27
22.630        40
22.640         7
22.650        27
22.660        13
22.670        40
22.680        27
22.690        40
22.700        47
22.710        27
22.720        53
22.730        27
22.740        20
22.750        27
22.760        27
22.770        40
22.780        53
22.790        40
22.800        47
22.810        87
22.820        27
22.830        27
22.840        47
22.850        40
22.860        40
22.870        40
22.880        33
22.890        53
22.900        40
22.910        60
22.920        27
22.930        20
22.940        40
22.950        27
22.960        40
22.970        53
22.980        33
22.990        40
23.000        27
23.010        47
23.020        13
23.030        33
23.040        67
23.050        20
23.060        40
23.070        33
23.080        20
23.090        40
23.100        40
23.110        20
23.120        60
23.130        33
23.140        40
23.150        53
23.160        40
23.170        40
23.180        47
23.190        47
23.200        40
23.210        53
23.220        40
23.230        13
23.240        33
23.250        20
23.260        47
23.270        40
23.280        80
23.290        33
23.300        20
23.310        27
23.320        13
23.330        20
23.340        47
23.350        73
23.360        33
23.370        87
23.380        60
23.390        33
23.400        73
23.410        27
23.420        27
23.430        33
23.440        27
23.450        40
23.460        33
23.470        27
23.480        33
23.490        47
23.500        27
23.510        27
23.520        47
23.530        33
23.540        27
23.550        20
23.560        40
23.570        33
23.580        60
23.590        33
23.600        47
23.610        47
23.620        20
23.630        27
23.640        33
23.650        33
23.660        60
23.670        60
23.680        20
23.690        40
23.700        47
23.710        13
23.720        27
23.730        40
23.740        33
23.750        40
23.760        53
23.770        27
23.780        40
23.790        47
23.800        20
23.810        20
23.820        27
23.830        27
23.840        53
23.850        40
23.860        27
23.870        53
23.880        40
23.890        27
23.900        27
23.910        53
23.920        67
23.930        20
23.940        40
23.950         7
23.960        60
23.970        27
23.980        33
23.990        20
24.000        13
24.010        40
24.020        33
24.030        20
24.040        27
24.050        33
24.060        20
24.070        13
24.080        47
24.090        33
24.100        20
24.110        53
24.120        60
24.130        13
24.140        27
24.150        20
24.160        47
24.170        53
24.180        33
24.190        13
24.200        60
24.210        27
24.220        60
24.230        27
24.240        27
24.250        40
24.260        20
24.270        47
24.280        20
24.290         7
24.300        13
24.310        27
24.320        33
24.330        20
24.340        33
24.350        27
24.360        27
24.370        33
24.380        13
24.390        33
24.400        60
24.410        13
24.420        33
24.430        40
24.440        27
24.450        53
24.460        47
24.470        33
24.480        20
24.490        20
24.500        53
24.510         7
24.520        40
24.530        27
24.540        47
24.550        53
24.560        47
24.570        47
24.580        27
24.590         7
24.600        13
24.610        20
24.620        47
24.630        27
24.640        33
24.650        33
24.660        27
24.670        33
24.680        47
24.690        40
24.700        47
24.710        40
24.720        73
24.730        27
24.740        47
24.750        20
24.760        53
24.770        40
24.780        47
24.790        33
24.800        53
24.810        33
24.820        40
24.830        60
24.840        33
24.850        27
24.860        60
24.870        47
24.880        60
24.890        27
24.900        53
24.910        20
24.920        53
24.930        20
24.940        20
24.950        27
24.960        67
24.970        33
24.980        53
24.990        13
25.000        33
25.010        33
25.020        47
25.030        13
25.040        13
25.050        20
25.060        33
25.070        20
25.080        93
25.090        27
25.100        40
25.110        13
25.120        27
25.130        47
25.140        40
25.150         0
25.160        33
25.170         7
25.180        40
25.190        33
25.200        27
25.210        47
25.220        53
25.230        33
25.240        40
25.250        40
25.260        27
25.270        27
25.280        27
25.290        53
25.300        40
25.310        80
25.320        47
25.330        33
25.340        27
25.350         7
25.360        40
25.370        60
25.380        40
25.390        73
25.400        80
25.410        47
25.420        13
25.430        53
25.440        20
25.450        20
25.460        53
25.470        47
25.480        40
25.490        40
25.500        93
25.510        67
25.520        33
25.530        20
25.540        33
25.550        60
25.560        40
25.570        40
25.580        27
25.590        87
25.600        87
25.610        87
25.620       113
25.630       127
25.640       113
25.650       113
25.660       100
25.670        80
25.680        73
25.690        47
25.700        67
25.710        60
25.720        67
25.730        40
25.740        53
25.750        33
25.760        33
25.770        20
25.780        67
25.790        47
25.800         7
25.810         7
25.820        33
25.830        13
25.840        53
25.850        40
25.860        47
25.870        53
25.880        20
25.890        33
25.900        33
25.910        33
25.920        33
25.930        27
25.940        33
25.950        33
25.960        33
25.970        20
25.980        27
25.990        27
26.000         7
26.010        13
26.020        33
26.030        27
26.040        20
26.050        13
26.060        20
26.070        47
26.080        27
26.090        40
26.100        27
26.110        33
26.120        40
26.130        13
26.140        40
26.150         7
26.160        20
26.170        33
26.180        47
26.190         7
26.200        33
26.210        33
26.220        33
26.230        47
26.240        20
26.250        13
26.260        53
26.270        27
26.280        33
26.290        27
26.300        53
26.310        20
26.320        40
26.330        33
26.340        27
26.350        33
26.360        20
26.370        27
26.380        20
26.390        47
26.400        33
26.410        20
26.420        40
26.430        27
26.440        13
26.450        27
26.460        27
26.470        20
26.480        13
26.490        20
26.500        47
26.510        47
26.520        27
26.530        40
26.540        20
26.550        53
26.560        20
26.570        53
26.580        40
26.590         7
26.600        27
26.610        20
26.620        40
26.630        13
26.640         7
26.650        33
26.660        47
26.670        33
26.680        13
26.690        40
26.700        33
26.710        20
26.720        20
26.730        47
26.740        67
26.750        20
26.760         0
26.770        67
26.780        67
26.790         7
26.800        40
26.810        20
26.820        13
26.830        40
26.840        27
26.850        33
26.860        40
26.870        40
26.880        20
26.890        20
26.900        13
26.910        33
26.920        47
26.930         7
26.940         7
26.950        53
26.960        27
26.970        20
26.980        20
26.990        13
27.000        20
27.010        27
27.020        13
27.030        13
27.040        47
27.050        33
27.060        13
27.070        27
27.080        33
27.090        27
27.100        13
27.110        13
27.120        20
27.130        33
27.140        33
27.150        80
27.160        20
27.170         7
27.180        20
27.190        20
27.200        13
27.210        27
27.220        20
27.230        53
27.240         7
27.250        33
27.260        40
27.270        27
27.280        40
27.290        27
27.300        20
27.310        47
27.320        47
27.330        27
27.340        33
27.350        20
27.360        47
27.370        47
27.380        20
27.390        47
27.400        33
27.410        40
27.420        20
27.430         7
27.440        33
27.450        33
27.460        40
27.470        27
27.480        20
27.490        47
27.500        20
27.510        20
27.520        33
27.530         0
27.540        67
27.550        27
27.560        60
27.570        20
27.580        13
27.590        47
27.600        33
27.610        20
27.620        47
27.630        13
27.640        13
27.650        20
27.660        27
27.670        20
27.680        33
27.690         7
27.700        33
27.710        33
27.720        33
27.730        33
27.740         7
27.750        33
27.760        13
27.770        33
27.780        33
27.790        27
27.800        13
27.810        60
27.820        20
27.830        53
27.840        47
27.850        13
27.860        33
27.870        40
27.880        47
27.890        20
27.900        13
27.910        27
27.920        40
27.930        53
27.940        33
27.950        20
27.960        40
27.970         7
27.980        33
27.990        33
28.000        33
28.010        33
28.020        33
28.030        33
28.040        33
28.050        60
28.060        20
28.070        20
28.080         7
28.090        27
28.100        13
28.110        47
28.120        27
28.130        20
28.140        13
28.150        20
28.160        13
28.170        20
28.180        27
28.190        20
28.200        67
28.210        27
28.220        27
28.230        33
28.240        27
28.250        27
28.260        53
28.270        20
28.280        33
28.290        13
28.300        13
28.310        27
28.320        13
28.330        13
28.340        27
28.350        40
28.360        27
28.370         7
28.380        40
28.390        33
28.400        27
28.410        40
28.420        27
28.430         7
28.440        53
28.450        27
28.460        20
28.470        53
28.480        33
28.490        33
28.500        40
28.510        27
28.520        40
28.530        27
28.540        20
28.550        20
28.560        20
28.570        33
28.580        13
28.590        20
28.600        40
28.610        27
28.620        33
28.630         7
28.640         7
28.650         7
28.660        47
28.670        27
28.680         7
28.690        13
28.700        27
28.710        20
28.720        33
28.730        33
28.740        27
28.750        20
28.760        13
28.770        13
28.780        20
28.790        20
28.800        33
28.810        47
28.820        33
28.830        27
28.840        27
28.850        20
28.860        27
28.870        13
28.880        27
28.890        20
28.900        27
28.910        13
28.920        27
28.930        27
28.940        27
28.950        53
28.960         7
28.970        67
28.980        20
28.990         7
29.000        27
29.010        20
29.020        27
29.030        40
29.040        27
29.050        60
29.060        40
29.070        40
29.080        60
29.090        33
29.100        40
29.110        27
29.120        33
29.130        53
29.140        53
29.150        60
29.160        53
29.170        40
29.180        53
29.190        47
29.200        53
29.210        73
29.220        67
29.230        67
29.240        33
29.250        60
29.260        47
29.270        80
29.280        67
29.290        53
29.300        73
29.310        53
29.320        67
29.330        67
29.340        60
29.350        40
29.360        60
29.370        73
29.380        60
29.390        20
29.400        40
29.410        33
29.420        40
29.430        20
29.440        27
29.450        27
29.460        73
29.470        27
29.480        13
29.490        20
29.500        53
29.510        27
29.520        33
29.530        27
29.540        33
29.550        47
29.560        20
29.570         7
29.580        20
29.590        47
29.600        33
29.610        20
29.620        40
29.630        47
29.640         7
29.650        20
29.660        27
29.670        47
29.680        40
29.690        13
29.700        47
29.710        47
29.720         7
29.730        20
29.740         7
29.750        20
29.760        47
29.770         7
29.780        13
29.790        27
29.800        33
29.810        33
29.820        13
29.830        53
29.840        33
29.850        33
29.860        47
29.870        27
29.880        20
29.890        13
29.900        33
29.910        27
29.920        33
29.930        20
29.940         7
29.950        27
29.960        20
29.970        27
29.980         0
29.990        47
30.000        27
30.010        13
30.020        20
30.030        13
30.040        27
30.050        40
30.060         7
30.070        47
30.080        47
30.090        60
30.100        13
30.110        20
30.120        20
30.130        47
30.140        20
30.150        33
30.160        33
30.170        40
30.180        20
30.190        13
30.200        27
30.210         0
30.220        67
30.230        20
30.240        40
30.250        13
30.260        47
30.270        60
30.280        13
30.290        13
30.300        20
30.310        13
30.320        47
30.330         7
30.340         0
30.350        33
30.360        40
30.370        20
30.380        20
30.390        27
30.400        27
30.410        33
30.420        40
30.430        47
30.440        33
30.450        47
30.460        60
30.470        60
30.480        20
30.490        40
30.500        53
30.510        33
30.520        47
30.530        40
30.540        87
30.550        80
30.560        67
30.570        67
30.580        40
30.590        40
30.600        40
30.610        80
30.620        60
30.630        60
30.640        93
30.650        73
30.660        47
30.670        80
30.680        80
30.690       120
30.700        67
30.710        87
30.720       140
30.730       173
30.740       187
30.750       100
30.760       193
30.770       227
30.780       227
30.790       327
30.800       260
30.810       267
30.820       320
30.830       473
30.840       480
30.850       387
30.860       493
30.870       413
30.880       580
30.890       640
30.900       540
30.910       600
30.920       560
30.930       520
30.940       473
30.950       633
30.960       653
30.970       533
30.980       506
30.990       460
31.000       440
31.010       573
31.020       426
31.030       460
31.040       340
31.050       253
31.060       233
31.070       267
31.080       260
31.090       220
31.100       227
31.110       127
31.120       120
31.130       113
31.140       113
31.150       140
31.160        60
31.170        87
31.180        73
31.190        87
31.200       113
31.210        67
31.220        53
31.230        87
31.240        87
31.250        60
31.260        67
31.270        53
31.280        47
31.290        60
31.300        27
31.310        27
31.320        33
31.330        40
31.340        27
31.350        27
31.360        60
31.370        40
31.380        67
31.390        33
31.400        53
31.410        27
31.420        40
31.430        60
31.440        60
31.450        27
31.460        53
31.470        40
31.480        27
31.490        40
31.500        80
31.510        33
31.520        33
31.530        53
31.540        13
31.550        33
31.560        33
31.570         7
31.580        53
31.590        40
31.600        27
31.610        33
31.620        27
31.630        13
31.640        20
31.650        33
31.660         7
31.670        13
31.680        20
31.690        27
31.700        27
31.710        27
31.720        40
31.730        13
31.740        20
31.750        27
31.760        40
31.770        20
31.780        33
31.790        13
31.800        13
31.810        20
31.820         7
31.830        33
31.840         7
31.850        60
31.860        40
31.870        47
31.880        13
31.890        20
31.900        40
31.910        13
31.920        60
31.930        47
31.940        53
31.950        33
31.960         7
31.970        20
31.980        53
31.990         7
32.000        20
32.010        20
32.020        33
32.030        40
32.040        33
32.050        67
32.060        13
32.070        13
32.080        40
32.090        13
32.100        20
32.110        47
32.120        20
32.130        20
32.140        27
32.150        20
32.160        33
32.170        20
32.180        33
32.190        27
32.200        40
32.210        67
32.220        33
32.230         0
32.240        20
32.250        27
32.260        27
32.270        33
32.280        33
32.290        53
32.300        27
32.310        33
32.320         0
32.330        33
32.340        20
32.350        33
32.360        33
32.370        40
32.380        27
32.390        53
32.400        33
32.410        20
32.420        27
32.430        27
32.440        33
32.450         7
32.460        33
32.470        27
32.480        20
32.490        47
32.500        20
32.510        20
32.520        33
32.530        27
32.540        40
32.550        40
32.560        13
32.570         0
32.580        60
32.590         7
32.600        33
32.610        27
32.620        33
32.630        40
32.640        13
32.650        20
32.660        27
32.670        13
32.680         7
32.690        53
32.700        47
32.710        27
32.720        27
32.730        20
32.740        33
32.750         7
32.760        13
32.770        27
32.780        20
32.790        13
32.800        20
32.810        13
32.820        27
32.830        20
32.840        27
32.850        40
32.860        20
32.870        13
32.880        13
32.890         7
32.900        20
32.910         7
32.920        20
32.930         7
32.940        20
32.950        13
32.960        33
32.970        40
32.980        27
32.990        33
33.000        27
33.010        20
33.020         7
33.030        13
33.040        13
33.050        27
33.060        27
33.070        13
33.080        13
33.090        20
33.100        40
33.110        47
33.120        40
33.130         7
33.140        27
33.150        20
33.160        27
33.170        27
33.180        20
33.190         7
33.200        13
33.210        27
33.220        20
33.230        33
33.240         7
33.250        47
33.260        40
33.270        20
33.280        20
33.290        33
33.300        13
33.310        33
33.320        13
33.330        20
33.340        27
33.350        13
33.360        13
33.370         0
33.380        13
33.390        67
33.400        20
33.410        27
33.420        20
33.430        40
33.440        40
33.450        33
33.460        40
33.470        33
33.480        47
33.490        40
33.500        27
33.510         7
33.520        20
33.530         7
33.540        13
33.550        13
33.560        27
33.570        33
33.580         7
33.590        20
33.600        27
33.610        27
33.620        13
33.630        33
33.640        40
33.650        13
33.660        33
33.670        33
33.680        20
33.690        20
33.700        27
33.710         7
33.720         7
33.730        13
33.740        33
33.750        40
33.760        27
33.770        13
33.780        13
33.790        27
33.800        27
33.810         0
33.820        13
33.830        33
33.840         7
33.850        27
33.860        53
33.870         0
33.880        13
33.890        20
33.900        20
33.910        13
33.920         7
33.930        27
33.940        40
33.950        27
33.960        13
33.970        13
33.980        27
33.990        27
34.000         0
34.010         7
34.020         7
34.030        20
34.040        20
34.050         7
34.060        13
34.070         7
34.080        13
34.090        13
34.100        20
34.110        13
34.120        13
34.130        20
34.140        27
34.150         7
34.160         7
34.170         7
34.180        20
34.190        33
34.200        67
34.210        27
34.220        20
34.230        13
34.240        20
34.250        13
34.260        27
34.270         7
34.280        27
34.290        13
34.300        20
34.310        27
34.320        13
34.330        40
34.340        20
34.350        40
34.360        20
34.370        33
34.380        27
34.390        13
34.400        20
34.410         7
34.420         7
34.430        20
34.440        20
34.450        60
34.460        13
34.470        40
34.480        13
34.490         7
34.500         0
34.510        40
34.520        27
34.530        33
34.540        27
34.550        20
34.560        20
34.570        47
34.580         7
34.590        20
34.600        20
34.610        33
34.620        13
34.630        27
34.640        27
34.650        33
34.660        33
34.670        47
34.680        13
34.690        33
34.700         7
34.710        27
34.720        13
34.730        27
34.740        27
34.750        20
34.760        33
34.770        13
34.780        27
34.790        20
34.800        27
34.810        20
34.820         7
34.830         7
34.840        13
34.850        13
34.860        40
34.870        27
34.880        33
34.890        27
34.900        27
34.910        13
34.920        47
34.930        27
34.940        33
34.950         0
34.960        13
34.970        13
34.980        20
34.990        47
35.000        33
35.010        20
35.020        20
35.030        13
35.040        33
35.050        13
35.060        13
35.070        13
35.080        53
35.090        20
35.100         7
35.110        27
35.120         0
35.130        13
35.140        20
35.150        20
35.160        27
35.170        33
35.180         0
35.190        47
35.200         7
35.210        13
35.220        20
35.230        20
35.240         7
35.250        27
35.260        13
35.270         7
35.280        20
35.290        13
35.300         7
35.310        13
35.320        13
35.330        20
35.340        20
35.350        47
35.360        53
35.370        13
35.380         7
35.390        20
35.400        27
35.410        33
35.420        20
35.430        13
35.440        33
35.450        20
35.460        27
35.470         0
35.480        40
35.490        67
35.500        27
35.510        13
35.520        13
35.530        27
35.540         7
35.550        20
35.560        13
35.570        27
35.580        20
35.590         7
35.600         7
35.610        47
35.620        13
35.630         0
35.640        27
35.650        47
35.660        20
35.670        27
35.680        33
35.690        40
35.700        40
35.710        13
35.720        20
35.730        20
35.740        40
35.750        40
35.760        20
35.770         7
35.780         7
35.790        27
35.800         7
35.810         7
35.820        27
35.830         0
35.840        13
35.850        40
35.860        27
35.870        13
35.880        53
35.890        33
35.900        20
35.910        20
35.920        47
35.930        33
35.940        33
35.950         7
35.960        27
35.970        33
35.980        20
35.990        20
36.000        27
36.010        13
36.020         7
36.030        13
36.040        20
36.050         7
36.060        33
36.070        27
36.080        53
36.090        47
36.100        40
36.110        13
36.120        20
36.130        13
36.140        40
36.150        13
36.160        20
36.170         7
36.180        20
36.190        13
36.200         7
36.210         0
36.220        27
36.230        27
36.240        27
36.250        13
36.260        33
36.270        40
36.280         7
36.290        13
36.300        20
36.310         0
36.320        13
36.330         7
36.340        20
36.350        33
36.360         0
36.370        47
36.380        13
36.390        27
36.400        20
36.410         7
36.420        20
36.430        13
36.440        40
36.450        13
36.460        13
36.470        20
36.480        13
36.490        20
36.500        20
36.510        13
36.520        20
36.530        33
36.540         7
36.550         0
36.560        13
36.570        20
36.580        13
36.590         7
36.600         7
36.610        27
36.620        20
36.630        13
36.640        33
36.650         0
36.660         7
36.670        20
36.680        27
36.690         7
36.700         0
36.710        20
36.720        27
36.730        20
36.740        13
36.750        13
36.760        33
36.770        33
36.780        20
36.790         0
36.800         7
36.810        13
36.820        20
36.830         7
36.840        20
36.850         7
36.860        13
36.870        13
36.880         7
36.890         7
36.900        13
36.910         7
36.920        20
36.930         7
36.940        20
36.950        33
36.960        20
36.970        20
36.980        13
36.990        13
37.000        20
37.010        13
37.020        33
37.030        13
37.040        27
37.050        20
37.060        13
37.070        27
37.080        13
37.090        13
37.100         7
37.110         7
37.120        13
37.130        20
37.140        13
37.150         7
37.160        27
37.170        20
37.180        33
37.190        27
37.200        33
37.210         0
37.220        33
37.230        40
37.240        20
37.250        20
37.260        20
37.270         7
37.280         7
37.290        27
37.300        27
37.310        40
37.320        20
37.330        40
37.340        33
37.350         7
37.360         0
37.370        27
37.380        20
37.390        27
37.400        13
37.410        13
37.420        27
37.430        13
37.440        33
37.450        20
37.460        13
37.470        33
37.480        13
37.490        33
37.500        20
37.510         7
37.520        13
37.530        13
37.540        27
37.550        20
37.560        20
37.570         7
37.580        27
37.590        13
37.600        20
37.610        20
37.620        33
37.630        20
37.640         7
37.650        40
37.660        33
37.670        20
37.680        27
37.690        13
37.700         7
37.710        13
37.720        27
37.730        20
37.740        20
37.750        20
37.760        20
37.770        27
37.780        13
37.790        27
37.800        13
37.810         0
37.820        13
37.830        20
37.840        27
37.850        33
37.860        33
37.870        20
37.880        20
37.890        27
37.900        27
37.910        13
37.920        27
37.930        20
37.940        27
37.950         0
37.960         0
37.970        13
37.980        13
37.990        27
38.000        33
38.010        20
38.020        20
38.030        33
38.040        20
38.050        13
38.060         7
38.070        40
38.080        27
38.090        33
38.100         0
38.110        27
38.120        20
38.130        33
38.140        47
38.150        27
38.160        13
38.170        47
38.180        53
38.190        27
38.200        47
38.210        40
38.220        20
38.230        13
38.240        20
38.250        60
38.260        27
38.270        33
38.280        73
38.290        40
38.300        47
38.310        47
38.320        20
38.330        20
38.340        27
38.350        67
38.360        27
38.370        27
38.380        53
38.390        47
38.400        40
38.410        53
38.420        60
38.430        33
38.440        40
38.450        33
38.460         7
38.470        40
38.480        20
38.490        27
38.500        13
38.510        27
38.520        20
38.530        13
38.540        13
38.550        40
38.560        13
38.570        20
38.580        20
38.590        20
38.600        33
38.610        13
38.620        40
38.630        13
38.640        13
38.650        20
38.660         7
38.670        27
38.680        27
38.690        40
38.700         0
38.710        27
38.720        27
38.730        13
38.740        33
38.750        13
38.760        27
38.770        33
38.780        13
38.790        27
38.800         7
38.810        20
38.820        27
38.830        27
38.840        13
38.850        20
38.860         0
38.870        60
38.880        20
38.890        33
38.900        20
38.910         7
38.920        27
38.930         0
38.940        13
38.950        40
38.960        13
38.970        27
38.980         0
38.990        47
39.000        40
39.010        40
39.020        27
39.030        20
39.040         7
39.050        13
39.060        13
39.070        20
39.080        53
39.090        60
39.100         7
39.110        27
39.120         7
39.130        20
39.140        20
39.150        33
39.160         7
39.170        13
39.180        47
39.190        20
39.200        40
39.210        27
39.220         7
39.230        40
39.240        13
39.250        47
39.260        20
39.270        27
39.280        40
39.290        27
39.300        40
39.310        33
39.320        27
39.330        33
39.340        27
39.350        13
39.360        53
39.370        20
39.380        53
39.390        27
39.400        47
39.410        13
39.420        40
39.430        27
39.440        20
39.450        33
39.460        33
39.470        40
39.480        20
39.490        13
39.500        27
39.510         7
39.520        20
39.530         7
39.540        20
39.550        27
39.560         7
39.570        13
39.580        27
39.590        20
39.600        13
39.610        27
39.620        47
39.630        13
39.640        13
39.650        47
39.660        33
39.670        40
39.680        40
39.690         0
39.700         0
39.710        33
39.720        13
39.730        27
39.740        13
39.750         7
39.760        33
39.770        13
39.780        20
39.790        13
39.800         0
39.810        47
39.820        20
39.830         7
39.840        40
39.850         7
39.860        20
39.870        47
39.880         0
39.890        13
39.900        27
39.910        20
39.920        40
39.930        27
39.940         7
39.950        27
39.960         0
39.970        27
39.980        33
39.990        27
40.000        33
40.010        27
40.020        13
40.030        13
40.040        27
40.050        33
40.060        27
40.070        13
40.080        27
40.090        20
40.100        20
40.110        40
40.120        33
40.130        27
40.140        13
40.150        13
40.160        13
40.170        13
40.180        40
40.190        27
40.200        27
40.210        20
40.220         7
40.230        20
40.240        13
40.250         7
40.260        20
40.270        20
40.280        33
40.290         7
40.300        20
40.310        13
40.320        33
40.330        13
40.340        20
40.350        20
40.360        40
40.370        20
40.380        27
40.390        47
40.400        13
40.410        47
40.420        27
40.430        20
40.440        33
40.450        27
40.460        27
40.470        27
40.480        20
40.490        33
40.500         7
40.510        13
40.520        20
40.530        27
40.540        40
40.550        27
40.560        40
40.570        20
40.580        20
40.590        27
40.600        13
40.610        20
40.620        13
40.630        20
40.640        20
40.650         0
40.660        13
40.670        20
40.680        33
40.690        40
40.700        20
40.710        27
40.720        33
40.730        33
40.740        27
40.750        27
40.760        13
40.770        33
40.780        27
40.790         0
40.800         7
40.810        20
40.820        13
40.830        20
40.840        13
40.850        20
40.860        27
40.870        20
40.880        27
40.890        27
40.900        13
40.910        27
40.920        20
40.930        27
40.940         7
40.950         7
40.960        47
40.970        20
40.980        40
40.990        13
41.000        27
41.010        27
41.020        53
41.030        13
41.040        20
41.050        20
41.060        13
41.070        20
41.080        20
41.090        20
41.100        13
41.110        27
41.120         0
41.130        13
41.140        13
41.150        27
41.160        40
41.170        20
41.180        27
41.190        40
41.200         7
41.210        13
41.220        13
41.230        33
41.240        13
41.250        27
41.260        33
41.270        13
41.280        53
41.290        33
41.300        27
41.310        20
41.320         7
41.330        20
41.340        20
41.350        13
41.360        27
41.370        33
41.380        40
41.390        27
41.400        20
41.410        20
41.420        33
41.430        13
41.440        13
41.450        27
41.460         7
41.470        47
41.480        27
41.490        13
41.500        13
41.510        20
41.520         7
41.530        33
41.540        33
41.550         7
41.560        33
41.570        13
41.580        33
41.590         7
41.600        33
41.610         7
41.620        13
41.630        13
41.640        13
41.650        40
41.660        27
41.670        27
41.680        20
41.690        33
41.700        20
41.710        33
41.720        20
41.730        13
41.740        20
41.750        40
41.760        20
41.770        13
41.780        47
41.790        20
41.800        53
41.810         7
41.820        33
41.830        20
41.840        27
41.850        20
41.860        13
41.870        27
41.880        13
41.890        13
41.900        33
41.910        13
41.920        20
41.930         7
41.940        13
41.950        13
41.960        33
41.970        27
41.980        40
41.990        13
42.000        20
42.010        40
42.020        20
42.030        40
42.040        20
42.050        40
42.060        13
42.070        13
42.080        20
42.090        27
42.100        13
42.110        20
42.120        27
42.130        20
42.140        20
42.150        27
42.160        33
42.170        27
42.180        20
42.190        47
42.200        27
42.210        20
42.220        13
42.230        13
42.240        20
42.250        13
42.260        27
42.270        27
42.280        13
42.290        33
42.300        27
42.310        13
42.320        20
42.330        13
42.340         0
42.350        33
42.360        33
42.370        20
42.380        27
42.390        47
42.400        53
42.410        20
42.420        13
42.430        33
42.440        33
42.450        27
42.460        27
42.470        47
42.480        40
42.490        53
42.500        60
42.510        27
42.520         7
42.530        33
42.540        33
42.550        27
42.560        33
42.570        13
42.580        20
42.590        33
42.600        13
42.610        13
42.620        20
42.630        33
42.640        47
42.650        33
42.660        20
42.670        27
42.680        13
42.690        27
42.700        33
42.710        47
42.720        33
42.730        27
42.740        13
42.750        27
42.760        47
42.770        33
42.780        53
42.790        20
42.800        33
42.810        27
42.820        60
42.830        27
42.840        33
42.850        27
42.860        53
42.870        47
42.880        33
42.890        47
42.900        60
42.910        40
42.920        20
42.930        47
42.940        27
42.950        27
42.960        20
42.970        40
42.980        47
42.990        40
43.000        40
43.010        93
43.020        53
43.030       107
43.040        40
43.050        27
43.060        53
43.070        27
43.080        33
43.090        47
43.100        40
43.110        40
43.120        47
43.130        67
43.140        53
43.150        33
43.160        73
43.170        40
43.180        40
43.190        33
43.200        67
43.210        80
43.220        47
43.230        73
43.240        47
43.250        60
43.260        53
43.270        73
43.280        33
43.290        13
43.300        87
43.310        80
43.320        40
43.330       100
43.340        53
43.350        80
43.360        87
43.370        87
43.380        53
43.390        80
43.400        27
43.410        87
43.420        47
43.430        60
43.440        33
43.450       107
43.460        67
43.470        80
43.480        47
43.490        60
43.500        67
43.510        53
43.520        73
43.530        47
43.540       107
43.550       107
43.560        67
43.570        60
43.580        73
43.590       127
43.600       127
43.610       140
43.620       107
43.630       120
43.640        93
43.650        93
43.660        87
43.670       147
43.680       107
43.690       127
43.700       180
43.710       153
43.720       147
43.730       233
43.740       173
43.750       240
43.760       187
43.770       260
43.780       180
43.790       140
43.800       340
43.810       233
43.820       233
43.830       240
43.840       300
43.850       267
43.860       280
43.870       333
43.880       407
43.890       340
43.900       293
43.910       320
43.920       360
43.930       400
43.940       453
43.950       380
43.960       347
43.970       460
43.980       606
43.990       473
44.000       560
44.010       613
44.020       586
44.030       606
44.040       407
44.050       486
44.060       526
44.070       407
44.080       473
44.090       500
44.100       580
44.110       600
44.120       553
44.130       586
44.140       580
44.150       580
44.160       686
44.170       493
44.180       540
44.190       460
44.200       540
44.210       473
44.220       633
44.230       420
44.240       533
44.250       586
44.260       493
44.270       333
44.280       400
44.290       320
44.300       267
44.310       407
44.320       360
44.330       300
44.340       360
44.350       333
44.360       347
44.370       253
44.380       220
44.390       260
44.400       300
44.410       280
44.420       253
44.430       153
44.440       180
44.450       233
44.460       233
44.470       193
44.480       193
44.490       153
44.500       133
44.510       147
44.520       153
44.530       147
44.540       160
44.550       147
44.560       113
44.570       120
44.580       107
44.590       133
44.600        93
44.610        67
44.620        87
44.630        87
44.640        73
44.650        80
44.660        53
44.670        60
44.680        47
44.690        67
44.700        60
44.710        73
44.720        47
44.730        60
44.740       107
44.750       113
44.760        73
44.770        33
44.780        33
44.790        20
44.800        60
44.810        40
44.820       120
44.830        47
44.840        73
44.850        33
44.860        47
44.870        53
44.880        20
44.890        67
44.900        47
44.910        53
44.920        73
44.930        33
44.940        87
44.950        53
44.960        47
44.970        33
44.980        47
44.990        27
45.000        33
45.010        27
45.020        47
45.030        47
45.040        87
45.050        87
45.060        33
45.070        93
45.080        47
45.090        33
45.100        47
45.110        53
45.120         7
45.130        67
45.140        33
45.150        27
45.160        27
45.170        33
45.180        40
45.190        27
45.200        40
45.210        33
45.220        47
45.230        27
45.240        47
45.250        33
45.260        40
45.270        40
45.280        27
45.290        40
45.300        73
45.310        60
45.320        27
45.330        40
45.340        13
45.350        27
45.360        47
45.370        33
45.380        27
45.390        27
45.400        27
45.410        40
45.420        60
45.430        53
45.440        33
45.450        53
45.460        33
45.470        47
45.480        13
45.490        27
45.500        40
45.510        40
45.520        40
45.530        27
45.540        27
45.550        33
45.560        27
45.570        33
45.580        20
45.590        33
45.600        20
45.610        20
45.620        20
45.630        40
45.640        40
45.650        27
45.660        33
45.670        53
45.680        13
45.690        20
45.700        27
45.710        33
45.720        33
45.730        40
45.740        27
45.750        27
45.760        40
45.770        40
45.780         7
45.790        13
45.800        33
45.810        40
45.820        60
45.830        20
45.840        67
45.850        27
45.860         7
45.870        20
45.880        20
45.890        13
45.900        13
45.910        20
45.920        20
45.930        13
45.940        27
45.950        13
45.960        20
45.970        13
45.980        40
45.990        27
46.000        33
46.010        20
46.020         7
46.030        40
46.040        20
46.050        40
46.060        27
46.070        53
46.080        33
46.090        27
46.100        40
46.110        27
46.120        13
46.130        60
46.140        27
46.150        27
46.160        13
46.170        40
46.180        13
46.190         7
46.200         7
46.210        20
46.220        13
46.230        20
46.240         0
46.250        13
46.260        33
46.270        33
46.280        13
46.290        20
46.300        13
46.310        20
46.320        13
46.330        20
46.340        53
46.350        13
46.360        20
46.370        27
46.380        13
46.390        27
46.400        27
46.410        33
46.420        40
46.430        27
46.440        47
46.450        13
46.460        27
46.470        20
46.480        27
46.490        33
46.500        20
46.510        13
46.520        40
46.530        33
46.540         7
46.550        13
46.560        33
46.570        27
46.580        20
46.590        40
46.600        33
46.610        40
46.620        73
46.630        13
46.640        27
46.650        13
46.660        27
46.670        27
46.680        13
46.690        40
46.700        33
46.710        13
46.720        33
46.730        27
46.740        40
46.750        40
46.760        20
46.770        27
46.780        13
46.790         7
46.800        40
46.810        47
46.820        40
46.830        27
46.840        40
46.850        33
46.860        20
46.870        20
46.880        33
46.890         7
46.900        27
46.910        47
46.920        33
46.930         7
46.940        33
46.950        13
46.960        13
46.970        33
46.980        27
46.990        27
47.000        20
47.010        27
47.020        13
47.030        13
47.040        27
47.050        40
47.060        27
47.070        20
47.080        33
47.090        27
47.100        27
47.110        20
47.120        73
47.130        67
47.140        20
47.150        20
47.160        13
47.170        33
47.180        27
47.190        53
47.200        13
47.210        13
47.220        33
47.230        53
47.240        33
47.250        27
47.260        47
47.270        47
47.280        27
47.290        27
47.300        13
47.310        27
47.320        33
47.330        33
47.340        33
47.350        40
47.360        40
47.370        33
47.380        47
47.390        13
47.400        33
47.410        33
47.420        20
47.430        33
47.440        47
47.450        33
47.460        47
47.470        20
47.480        27
47.490        27
47.500        40
47.510        53
47.520         7
47.530        27
47.540        67
47.550        13
47.560        40
47.570        20
47.580        47
47.590        13
47.600        33
47.610         0
47.620        27
47.630        40
47.640         7
47.650        13
47.660        40
47.670        20
47.680        20
47.690        40
47.700        40
47.710        27
47.720        60
47.730        60
47.740         7
47.750        27
47.760        40
47.770        20
47.780        60
47.790         0
47.800        27
47.810         0
47.820        33
47.830        20
47.840        33
47.850        33
47.860        13
47.870        20
47.880        27
47.890        33
47.900         7
47.910        13
47.920         0
47.930        13
47.940        33
47.950        27
47.960        13
47.970        13
47.980        20
47.990        20
48.000        13
48.010        33
48.020        20
48.030        27
48.040        13
48.050        27
48.060        20
48.070        20
48.080        27
48.090        13
48.100        27
48.110        40
48.120         7
48.130         7
48.140         7
48.150        33
48.160        27
48.170        13
48.180        33
48.190         7
48.200        20
48.210        27
48.220        20
48.230         7
48.240        40
48.250        40
48.260        13
48.270         7
48.280        20
48.290        20
48.300        40
48.310        87
48.320        47
48.330        33
48.340        60
48.350        13
48.360        60
48.370         7
48.380        47
48.390        20
48.400        60
48.410        47
48.420        40
48.430        27
48.440        40
48.450        27
48.460        47
48.470        27
48.480        33
48.490        20
48.500        40
48.510        40
48.520        47
48.530        20
48.540        40
48.550        20
48.560        33
48.570        20
48.580        20
48.590        33
48.600        33
48.610        13
48.620        33
48.630        13
48.640        33
48.650        33
48.660        27
48.670        27
48.680        27
48.690        33
48.700        27
48.710        13
48.720         0
48.730        20
48.740        33
48.750        27
48.760        13
48.770        20
48.780        20
48.790        27
48.800        33
48.810        20
48.820        13
48.830         7
48.840         0
48.850        13
48.860        67
48.870        20
48.880        27
48.890         7
48.900        20
48.910        13
48.920        47
48.930         7
48.940        33
48.950        40
48.960        27
48.970        20
48.980        27
48.990        47
49.000        13
49.010        27
49.020        40
49.030        13
49.040        33
49.050        20
49.060         7
49.070         7
49.080        13
49.090        40
49.100        27
49.110         0
49.120        20
49.130        40
49.140        33
49.150        20
49.160        47
49.170         7
49.180        47
49.190         0
49.200        27
49.210        20
49.220        20
49.230        40
49.240         7
49.250         0
49.260        20
49.270        20
49.280        27
49.290        33
49.300         7
49.310        13
49.320        40
49.330         0
49.340        20
49.350        13
49.360        27
49.370        20
49.380        27
49.390        20
49.400         0
49.410         7
49.420        20
49.430        20
49.440        33
49.450        53
49.460         7
49.470        20
49.480        13
49.490        27
49.500         0
49.510         7
49.520        13
49.530        13
49.540        33
49.550        13
49.560        33
49.570        27
49.580        20
49.590        13
49.600        20
49.610        13
49.620        47
49.630        13
49.640        13
49.650        20
49.660        13
49.670        33
49.680        20
49.690        20
49.700        13
49.710        33
49.720        13
49.730        40
49.740         7
49.750         7
49.760        20
49.770        40
49.780        13
49.790         7
49.800        27
49.810        20
49.820        27
49.830        33
49.840        27
49.850        13
49.860        33
49.870        20
49.880        20
49.890         7
49.900        27
49.910        20
49.920        13
49.930        13
49.940        27
49.950        13
49.960        13
49.970         7
49.980        20
49.990        27
50.000        40
50.010        13
50.020        20
50.030        33
50.040         7
50.050        27
50.060        20
50.070        47
50.080         0
50.090        20
50.100        20
50.110         7
50.120        20
50.130        40
50.140        20
50.150        20
50.160        27
50.170        20
50.180        20
50.190        47
50.200        13
50.210        33
50.220        13
50.230        27
50.240        27
50.250        13
50.260         7
50.270        33
50.280        47
50.290        13
50.300        20
50.310        40
50.320        13
50.330        20
50.340         7
50.350        33
50.360         7
50.370         7
50.380        33
50.390        20
50.400        20
50.410        53
50.420        13
50.430         7
50.440         7
50.450         0
50.460        20
50.470        13
50.480        13
50.490        13
50.500         7
50.510        27
50.520        53
50.530        20
50.540        13
50.550         7
50.560        27
50.570        20
50.580        13
50.590        27
50.600        13
50.610        13
50.620        20
50.630        20
50.640        20
50.650        33
50.660        27
50.670        13
50.680        13
50.690        20
50.700        20
50.710        13
50.720        13
50.730        20
50.740        27
50.750         7
50.760        20
50.770        27
50.780        33
50.790        20
50.800        33
50.810        13
50.820        13
50.830         7
50.840        40
50.850        20
50.860        33
50.870         7
50.880        13
50.890        27
50.900         7
50.910        20
50.920         7
50.930        13
50.940        13
50.950         7
50.960        40
50.970        20
50.980        13
50.990        27
51.000        27
51.010        33
51.020        20
51.030         7
51.040        13
51.050        33
51.060        33
51.070        20
51.080        33
51.090         7
51.100         7
51.110         7
51.120        40
51.130        20
51.140        20
51.150        20
51.160         7
51.170        33
51.180        20
51.190        27
51.200         7
51.210        33
51.220         7
51.230        40
51.240        20
51.250        27
51.260        20
51.270        33
51.280        33
51.290        27
51.300        20
51.310        13
51.320        40
51.330        20
51.340        20
51.350         7
51.360        13
51.370        13
51.380        13
51.390        13
51.400        13
51.410        20
51.420         7
51.430        33
51.440         7
51.450        47
51.460        40
51.470        33
51.480        27
51.490        33
51.500        27
51.510        20
51.520        13
51.530        47
51.540         0
51.550        40
51.560        33
51.570        27
51.580        40
51.590        20
51.600        40
51.610        20
51.620        20
51.630        33
51.640        13
51.650        47
51.660        20
51.670        53
51.680        20
51.690        27
51.700        33
51.710        40
51.720        47
51.730        47
51.740        20
51.750        20
51.760         7
51.770        20
51.780        20
51.790        20
51.800        40
51.810        60
51.820        20
51.830        33
51.840         7
51.850        47
51.860        27
51.870        20
51.880         7
51.890         0
51.900        20
51.910        20
51.920        40
51.930         7
51.940        33
51.950        20
51.960        40
51.970         7
51.980        20
51.990        53
52.000        53
52.010        20
52.020         7
52.030        33
52.040        13
52.050        60
52.060        33
52.070        33
52.080        33
52.090        20
52.100        27
52.110        13
52.120        40
52.130        27
52.140        47
52.150         7
52.160        27
52.170        13
52.180        40
52.190        20
52.200        33
52.210        20
52.220        47
52.230        67
52.240       147
52.250        80
52.260        67
52.270        47
52.280        67
52.290        87
52.300        67
52.310       127
52.320       100
52.330        67
52.340       107
52.350       100
52.360        80
52.370        93
52.380        67
52.390       100
52.400       100
52.410       120
52.420       100
52.430       133
52.440       107
52.450        93
52.460       107
52.470       140
52.480       147
52.490       147
52.500        93
52.510       100
52.520        80
52.530       147
52.540       193
52.550       180
52.560       180
52.570       193
52.580       187
52.590       253
52.600       260
52.610       287
52.620       240
52.630       187
52.640       187
52.650       213
52.660       187
52.670       180
52.680       160
52.690       173
52.700        93
52.710       133
52.720       160
52.730       147
52.740       133
52.750       113
52.760       107
52.770       153
52.780       140
52.790       107
52.800       140
52.810        73
52.820        60
52.830        80
52.840        73
52.850        27
52.860        80
52.870        33
52.880        27
52.890        33
52.900        33
52.910        40
52.920        47
52.930        53
52.940        33
52.950        53
52.960        33
52.970        40
52.980        47
52.990        27
53.000        47
53.010        33
53.020        20
53.030        47
53.040        13
53.050        27
53.060        33
53.070        27
53.080        47
53.090        33
53.100        13
53.110        33
53.120        53
53.130        13
53.140        40
53.150        20
53.160        33
53.170        27
53.180         0
53.190        60
53.200        33
53.210        40
53.220        47
53.230        33
53.240        40
53.250        20
53.260        40
53.270        20
53.280        13
53.290        27
53.300        20
53.310        20
53.320        13
53.330        40
53.340        13
53.350        33
53.360         7
53.370        27
53.380        27
53.390        47
53.400        27
53.410        20
53.420        33
53.430        20
53.440        13
53.450        20
53.460        33
53.470        33
53.480        27
53.490        27
53.500         0
53.510        33
53.520         7
53.530        20
53.540        20
53.550        20
53.560        27
53.570        20
53.580        27
53.590        27
53.600        33
53.610        27
53.620        20
53.630        27
53.640         7
53.650         7
53.660        40
53.670        27
53.680        47
53.690         7
53.700        33
53.710        20
53.720        47
53.730        20
53.740         0
53.750        27
53.760        20
53.770        20
53.780        13
53.790        20
53.800        27
53.810        13
53.820        20
53.830        20
53.840        27
53.850        20
53.860        33
53.870        20
53.880        20
53.890        27
53.900        20
53.910        20
53.920         7
53.930        20
53.940        20
53.950        13
53.960        47
53.970        20
53.980        13
53.990        60
54.000        20
54.010        13
54.020        20
54.030        27
54.040         7
54.050        20
54.060        27
54.070        27
54.080         7
54.090        27
54.100        33
54.110        13
54.120        27
54.130        13
54.140        47
54.150         7
54.160         7
54.170         7
54.180        40
54.190         7
54.200        13
54.210        20
54.220         0
54.230         7
54.240         7
54.250        27
54.260         7
54.270        20
54.280        13
54.290        47
54.300         0
54.310        33
54.320        40
54.330        33
54.340        27
54.350        47
54.360        20
54.370        13
54.380        13
54.390        13
54.400        33
54.410        20
54.420         7
54.430        33
54.440        13
54.450        20
54.460        13
54.470        33
54.480        33
54.490         0
54.500         7
54.510        13
54.520        27
54.530        13
54.540        27
54.550        33
54.560        13
54.570        13
54.580         7
54.590        27
54.600        27
54.610        33
54.620         7
54.630        20
54.640        33
54.650        27
54.660         0
54.670        27
54.680        40
54.690        40
54.700        20
54.710         0
54.720         7
54.730        40
54.740        13
54.750        20
54.760        13
54.770        33
54.780        40
54.790        20
54.800        13
54.810         7
54.820        13
54.830        27
54.840        40
54.850        27
54.860        27
54.870        13
54.880        20
54.890         7
54.900         7
54.910        27
54.920        27
54.930        33
54.940        27
54.950         7
54.960        13
54.970        13
54.980        20
54.990        40
55.000        13
55.010        27
55.020        33
55.030        27
55.040        27
55.050        27
55.060        20
55.070        33
55.080        27
55.090        33
55.100        47
55.110        27
55.120        40
55.130        20
55.140        33
55.150        33
55.160        47
55.170        27
55.180        40
55.190        20
55.200        20
55.210        27
55.220        73
55.230        20
55.240        13
55.250         7
55.260        33
55.270        13
55.280        27
55.290        20
55.300        27
55.310        27
55.320        33
55.330        20
55.340        33
55.350        13
55.360        13
55.370        20
55.380        33
55.390        33
55.400        13
55.410        13
55.420        27
55.430        33
55.440        33
55.450        13
55.460        13
55.470        27
55.480        33
55.490        13
55.500        13
55.510        33
55.520        27
55.530        33
55.540        13
55.550        13
55.560        20
55.570        33
55.580        40
55.590        33
55.600        20
55.610        33
55.620        13
55.630        33
55.640        20
55.650        20
55.660        27
55.670        20
55.680        20
55.690        33
55.700        13
55.710        33
55.720        27
55.730         7
55.740         7
55.750        20
55.760        13
55.770         7
55.780        33
55.790        27
55.800        13
55.810         7
55.820        13
55.830        13
55.840        13
55.850        13
55.860        20
55.870        27
55.880        27
55.890        27
55.900        27
55.910         7
55.920        13
55.930        13
55.940        13
55.950        20
55.960        13
55.970        13
55.980        20
55.990        53
56.000        27
56.010        33
56.020         7
56.030        27
56.040        20
56.050        13
56.060        13
56.070        20
56.080        20
56.090        20
56.100        13
56.110        27
56.120        27
56.130        20
56.140         0
56.150        13
56.160        13
56.170        33
56.180        13
56.190         0
56.200        20
56.210        13
56.220         7
56.230        33
56.240        13
56.250        20
56.260         7
56.270         7
56.280        40
56.290        27
56.300        33
56.310        27
56.320        13
56.330        20
56.340        20
56.350        20
56.360         0
56.370        20
56.380         7
56.390         0
56.400         0
56.410        33
56.420        20
56.430        20
56.440        27
56.450        33
56.460        33
56.470         7
56.480         7
56.490        13
56.500        20
56.510        13
56.520         0
56.530        27
56.540        13
56.550        13
56.560        20
56.570         0
56.580        20
56.590        13
56.600         7
56.610        20
56.620         7
56.630        27
56.640         7
56.650        40
56.660        13
56.670        33
56.680         7
56.690        20
56.700        13
56.710         7
56.720        13
56.730        13
56.740        13
56.750         0
56.760        20
56.770        20
56.780         7
56.790         7
56.800        20
56.810        13
56.820        13
56.830         7
56.840         7
56.850        20
56.860        20
56.870        13
56.880        20
56.890        27
56.900        27
56.910        13
56.920        40
56.930        27
56.940        20
56.950        13
56.960        20
56.970         0
56.980         7
56.990        20
57.000        27
57.010         0
57.020         7
57.030         7
57.040        33
57.050        13
57.060        20
57.070        13
57.080         7
57.090        13
57.100        13
57.110        47
57.120        27
57.130        20
57.140         7
57.150        33
57.160        40
57.170        13
57.180        20
57.190        20
57.200         7
57.210        13
57.220         7
57.230        33
57.240        27
57.250         0
57.260        40
57.270         0
57.280        20
57.290         7
57.300        20
57.310         7
57.320         7
57.330        33
57.340         7
57.350        13
57.360        27
57.370         0
57.380        13
57.390        20
57.400        33
57.410        20
57.420        13
57.430        20
57.440        47
57.450        40
57.460        27
57.470        13
57.480        20
57.490        27
57.500        27
57.510        13
57.520        20
57.530        27
57.540        40
57.550         7
57.560         0
57.570        27
57.580         0
57.590        20
57.600        13
57.610        13
57.620        33
57.630         0
57.640        20
57.650         7
57.660        20
57.670         7
57.680        20
57.690        33
57.700        13
57.710        27
57.720         7
57.730        20
57.740         7
57.750        13
57.760         0
57.770        27
57.780        27
57.790        27
57.800        27
57.810         7
57.820        20
57.830        20
57.840        27
57.850         7
57.860        20
57.870        27
57.880        13
57.890        13
57.900        33
57.910        27
57.920         7
57.930         7
57.940         0
57.950        20
57.960        13
57.970        33
57.980        20
57.990        13
58.000        13
58.010        13
58.020        13
58.030        27
58.040         7
58.050        33
58.060        13
58.070         0
58.080        13
58.090        13
58.100         0
58.110        13
58.120        13
58.130        20
58.140         7
58.150        40
58.160        20
58.170        13
58.180         7
58.190         0
58.200        33
58.210         0
58.220        20
58.230         7
58.240        20
58.250         7
58.260         7
58.270        20
58.280        20
58.290        13
58.300        13
58.310         7
58.320        13
58.330        13
58.340        20
58.350        13
58.360        27
58.370         0
58.380         0
58.390        27
58.400         7
58.410         0
58.420         0
58.430        33
58.440         0
58.450        33
58.460        20
58.470         7
58.480         7
58.490         0
58.500        13
58.510        13
58.520         7
58.530        27
58.540        20
58.550        13
58.560         7
58.570        20
58.580        13
58.590        20
58.600        13
58.610        20
58.620        13
58.630         7
58.640        20
58.650        13
58.660        13
58.670        20
58.680        13
58.690        27
58.700        13
58.710        13
58.720         7
58.730        13
58.740        13
58.750        20
58.760         7
58.770        27
58.780        27
58.790        13
58.800         7
58.810        13
58.820        13
58.830         7
58.840        13
58.850        20
58.860        13
58.870        20
58.880        33
58.890        33
58.900        27
58.910        27
58.920        20
58.930        20
58.940         7
58.950        27
58.960         0
58.970        13
58.980        20
58.990        33
59.000        13
59.010        20
59.020        13
59.030        20
59.040         0
59.050         7
59.060         7
59.070         7
59.080        20
59.090         7
59.100         0
59.110        13
59.120        13
59.130        13
59.140        13
59.150        13
59.160        20
59.170         7
59.180        20
59.190         7
59.200         0
59.210         7
59.220        20
59.230        20
59.240        13
59.250         0
59.260        27
59.270        13
59.280        20
59.290        27
59.300         0
59.310        13
59.320         7
59.330         7
59.340        20
59.350        20
59.360         0
59.370        13
59.380         7
59.390        20
59.400        13
59.410        13
59.420         7
59.430         7
59.440        27
59.450         7
59.460        40
59.470         0
59.480        13
59.490         7
59.500        33
59.510         7
59.520        27
59.530        33
59.540        27
59.550         7
59.560        27
59.570        13
59.580         0
59.590         0
59.600         7
59.610        13
59.620         7
59.630        13
59.640        13
59.650        13
59.660        20
59.670        20
59.680        27
59.690         7
59.700        13
59.710        13
59.720        13
59.730         7
59.740        33
59.750        13
59.760         7
59.770        13
59.780        20
59.790        13
59.800         7
59.810        33
59.820         7
59.830         0
59.840        13
59.850        27
59.860        20
59.870         7
59.880         7
59.890        13
59.900        20
59.910         7
59.920        13
59.930        20
59.940        13
59.950         7
59.960         7
59.970        27
59.980        13
59.990         0
60.000        27
