20.000        80
20.010        73
20.020        53
20.030        80
20.040        53
20.050        53
20.060        40
20.070         7
20.080        60
20.090        13
20.100        27
20.110        60
20.120        60
20.130        20
20.140        73
20.150       113
20.160        53
20.170        40
20.180        40
20.190        60
20.200        87
20.210        53
20.220        80
20.230        60
20.240        73
20.250        93
20.260        73
20.270        53
20.280        53
20.290        60
20.300        33
20.310        73
20.320        60
20.330        60
20.340        47
20.350        67
20.360        27
20.370        73
20.380        20
20.390        67
20.400        53
20.410        67
20.420        47
20.430        93
20.440       100
20.450        60
20.460         7
20.470        27
20.480        40
20.490        53
20.500        47
20.510        67
20.520        40
20.530        60
20.540        60
20.550        53
20.560        60
20.570        87
20.580        47
20.590        33
20.600        80
20.610        40
20.620        53
20.630        60
20.640        67
20.650        47
20.660        33
20.670        73
20.680        27
20.690        40
20.700        33
20.710        33
20.720        20
20.730        53
20.740        60
20.750        80
20.760        33
20.770        47
20.780        53
20.790        33
20.800        60
20.810        67
20.820        40
20.830        47
20.840        60
20.850        33
20.860        73
20.870        60
20.880        33
20.890        93
20.900        73
20.910        13
20.920        40
20.930       120
20.940        60
20.950        47
20.960        53
20.970        40
20.980        53
20.990        40
21.000        73
21.010        40
21.020        33
21.030        40
21.040        53
21.050        33
21.060        60
21.070        80
21.080        53
21.090        53
21.100        60
21.110        33
21.120        67
21.130        53
21.140        67
21.150        53
21.160        53
21.170        27
21.180        47
21.190        53
21.200       100
21.210        47
21.220        47
21.230        60
21.240        53
21.250        47
21.260        33
21.270        47
21.280       100
21.290        80
21.300        40
21.310        47
21.320        27
21.330        60
21.340        33
21.350        47
21.360        47
21.370        13
21.380        67
21.390        60
21.400        27
21.410        60
21.420        60
21.430        33
21.440        53
21.450        53
21.460        53
21.470        53
21.480        27
21.490        47
21.500        47
21.510        47
21.520        67
21.530        47
21.540        47
21.550        67
21.560        80
21.570        33
21.580        40
21.590        47
21.600        53
21.610        67
21.620        80
21.630        67
21.640        40
21.650        53
21.660        60
21.670        40
21.680         7
21.690        80
21.700        47
21.710        20
21.720        40
21.730        20
21.740        47
21.750        33
21.760        60
21.770        47
21.780        33
21.790        53
21.800        47
21.810        80
21.820        80
21.830        40
21.840        27
21.850        47
21.860        33
21.870        73
21.880        47
21.890        40
21.900        80
21.910        47
21.920        20
21.930        53
21.940        67
21.950        33
21.960        20
21.970        53
21.980        60
21.990        33
22.000        20
22.010        60
22.020        47
22.030        47
22.040        53
22.050        60
22.060        47
22.070        53
22.080        33
22.090        73
22.100        33
22.110        27
22.120        40
22.130        47
22.140        27
22.150        40
22.160        67
22.170        27
22.180        13
22.190        27
22.200        93
22.210        60
22.220        73
22.230        33
22.240        13
22.250        33
22.260        53
22.270        47
22.280        60
22.290        47
22.300        53
22.310        40
22.320        60
22.330        33
22.340        67
22.350        33
22.360        33
22.370        67
22.380        47
22.390        53
22.400        67
22.410        47
22.420        73
22.430        40
22.440        40
22.450        27
22.460        33
22.470        33
22.480        53
22.490        87
22.500        33
22.510        87
22.520        73
22.530        27
22.540        67
22.550        60
22.560        80
22.570        53
22.580        40
22.590        53
22.600        20
22.610        47
22.620        67
22.630        27
22.640        27
22.650        40
22.660        33
22.670        73
22.680        20
22.690        20
22.700        47
22.710        27
22.720        33
22.730        47
22.740        53
22.750        27
22.760        27
22.770        27
22.780        33
22.790        60
22.800        33
22.810        20
22.820        73
22.830        60
22.840        20
22.850        87
22.860        47
22.870        60
22.880        67
22.890         7
22.900        33
22.910        53
22.920        40
22.930        33
22.940        33
22.950        33
22.960        53
22.970        60
22.980        47
22.990        73
23.000        53
23.010        47
23.020        40
23.030        60
23.040        47
23.050         7
23.060        33
23.070        27
23.080        80
23.090        87
23.100        33
23.110        47
23.120        60
23.130        33
23.140        67
23.150        60
23.160        60
23.170        47
23.180        47
23.190        53
23.200        33
23.210        53
23.220        40
23.230        27
23.240        47
23.250        53
23.260        33
23.270        20
23.280        40
23.290        47
23.300        73
23.310        13
23.320        47
23.330        33
23.340        60
23.350        60
23.360        53
23.370        40
23.380        40
23.390        20
23.400        13
23.410        60
23.420        60
23.430        20
23.440        40
23.450        53
23.460        20
23.470        27
23.480        47
23.490        67
23.500        40
23.510        20
23.520        33
23.530        27
23.540        13
23.550        20
23.560        40
23.570        27
23.580        33
23.590         7
23.600        27
23.610        40
23.620        60
23.630        53
23.640        40
23.650        80
23.660        47
23.670        27
23.680        80
23.690        53
23.700        13
23.710        27
23.720        20
23.730        33
23.740        40
23.750        20
23.760        40
23.770        20
23.780        27
23.790        67
23.800        60
23.810        13
23.820        47
23.830        67
23.840        40
23.850        33
23.860        40
23.870        40
23.880        47
23.890        13
23.900        47
23.910        67
23.920        40
23.930        13
23.940        33
23.950        47
23.960        47
23.970        47
23.980        13
23.990        27
24.000        40
24.010        73
24.020        33
24.030        60
24.040         0
24.050        20
24.060        40
24.070        33
24.080        27
24.090        67
24.100        47
24.110        40
24.120        33
24.130        13
24.140        40
24.150         7
24.160        40
24.170        33
24.180        20
24.190        20
24.200        33
24.210        40
24.220        53
24.230        47
24.240        27
24.250        40
24.260        40
24.270        33
24.280        40
24.290        47
24.300        27
24.310        53
24.320        33
24.330        40
24.340        27
24.350        47
24.360        27
24.370        53
24.380        27
24.390        13
24.400        27
24.410        60
24.420        40
24.430        27
24.440        47
24.450        40
24.460        53
24.470        33
24.480        73
24.490        53
24.500        13
24.510        60
24.520        27
24.530        40
24.540        27
24.550        73
24.560        53
24.570        60
24.580        60
24.590        20
24.600        33
24.610        67
24.620         7
24.630        20
24.640        53
24.650        27
24.660        47
24.670        13
24.680        40
24.690        27
24.700        40
24.710        27
24.720        53
24.730        33
24.740        60
24.750        13
24.760        13
24.770        60
24.780        40
24.790        33
24.800        40
24.810        47
24.820        67
24.830        40
24.840        60
24.850        60
24.860        53
24.870        13
24.880        47
24.890        47
24.900        33
24.910        73
24.920        20
24.930        20
24.940        20
24.950        20
24.960        27
24.970        33
24.980        27
24.990        20
25.000        27
25.010        33
25.020        47
25.030        53
25.040        47
25.050        33
25.060        67
25.070        33
25.080        47
25.090        47
25.100        13
25.110        40
25.120        13
25.130        13
25.140        33
25.150        20
25.160        27
25.170        53
25.180        33
25.190        20
25.200        20
25.210        20
25.220        53
25.230        33
25.240        40
25.250        53
25.260        40
25.270        27
25.280        40
25.290        33
25.300        20
25.310        60
25.320        53
25.330        13
25.340        33
25.350        20
25.360        47
25.370        60
25.380        27
25.390        20
25.400        27
25.410        27
25.420        33
25.430        47
25.440        73
25.450        40
25.460        60
25.470        20
25.480        20
25.490        47
25.500        80
25.510        27
25.520        53
25.530        80
25.540        27
25.550        40
25.560        40
25.570        33
25.580        27
25.590        67
25.600        20
25.610        40
25.620        33
25.630        20
25.640        20
25.650        13
25.660         0
25.670        47
25.680        13
25.690        40
25.700        33
25.710        20
25.720        40
25.730        60
25.740        33
25.750        60
25.760        33
25.770        33
25.780        47
25.790        53
25.800        47
25.810        27
25.820        33
25.830        33
25.840        73
25.850        27
25.860        47
25.870        53
25.880        53
25.890        27
25.900        33
25.910        33
25.920        53
25.930        33
25.940        53
25.950        87
25.960        47
25.970        33
25.980         7
25.990        40
26.000       100
26.010        60
26.020        53
26.030        53
26.040        40
26.050        40
26.060        47
26.070        33
26.080        47
26.090        60
26.100        13
26.110        40
26.120        33
26.130        53
26.140        40
26.150        40
26.160        40
26.170        27
26.180        27
26.190        27
26.200        40
26.210        53
26.220        33
26.230        33
26.240        47
26.250        20
26.260        40
26.270        13
26.280        27
26.290        27
26.300        33
26.310        40
26.320        53
26.330        40
26.340        33
26.350        53
26.360        53
26.370        33
26.380        27
26.390         7
26.400        33
26.410        53
26.420        40
26.430        53
26.440        47
26.450        20
26.460        33
26.470        20
26.480        40
26.490        20
26.500        53
26.510        33
26.520        13
26.530        67
26.540        27
26.550        47
26.560        33
26.570        47
26.580        73
26.590        47
26.600        27
26.610        40
26.620        33
26.630        27
26.640        40
26.650        33
26.660        47
26.670        40
26.680        13
26.690        20
26.700        13
26.710         7
26.720        33
26.730        20
26.740        27
26.750        13
26.760        13
26.770        33
26.780        40
26.790        20
26.800        60
26.810        20
26.820         7
26.830        47
26.840        53
26.850        27
26.860        20
26.870        13
26.880        40
26.890        20
26.900        27
26.910        80
26.920        20
26.930        27
26.940        27
26.950        27
26.960        53
26.970        27
26.980        47
26.990        67
27.000        20
27.010        40
27.020        40
27.030         0
27.040        20
27.050        40
27.060        33
27.070        53
27.080        47
27.090        20
27.100        53
27.110        60
27.120        33
27.130        60
27.140        40
27.150         7
27.160        33
27.170        53
27.180        27
27.190        27
27.200        33
27.210        27
27.220        33
27.230        27
27.240        27
27.250        40
27.260        13
27.270        27
27.280        60
27.290        13
27.300        20
27.310        13
27.320        33
27.330        13
27.340        33
27.350        53
27.360        27
27.370        53
27.380        33
27.390        13
27.400        13
27.410        53
27.420        40
27.430        27
27.440        47
27.450        27
27.460        13
27.470        27
27.480        33
27.490        27
27.500        60
27.510        20
27.520        47
27.530        47
27.540        47
27.550        27
27.560        33
27.570        47
27.580        67
27.590        40
27.600        40
27.610        40
27.620        33
27.630        27
27.640        40
27.650        13
27.660        20
27.670        40
27.680        27
27.690        27
27.700        60
27.710        40
27.720        27
27.730        53
27.740        40
27.750        13
27.760        20
27.770        20
27.780        33
27.790         7
27.800        73
27.810        60
27.820        20
27.830        60
27.840        20
27.850        20
27.860        53
27.870        33
27.880        47
27.890        53
27.900        47
27.910        53
27.920        40
27.930        53
27.940       100
27.950        53
27.960        53
27.970        53
27.980        67
27.990        47
28.000        67
28.010        60
28.020        80
28.030        67
28.040        53
28.050       113
28.060        80
28.070        60
28.080        87
28.090        87
28.100       100
28.110        87
28.120       113
28.130       100
28.140        60
28.150       100
28.160       107
28.170        53
28.180        13
28.190       113
28.200        93
28.210        73
28.220        60
28.230        33
28.240        33
28.250        33
28.260        27
28.270        40
28.280        27
28.290        40
28.300        27
28.310        33
28.320        53
28.330        40
28.340        33
28.350        20
28.360        33
28.370        53
28.380        20
28.390        60
28.400        53
28.410        27
28.420        33
28.430        27
28.440        27
28.450        53
28.460        60
28.470        20
28.480        33
28.490        47
28.500        20
28.510        13
28.520        47
28.530        53
28.540        40
28.550        67
28.560        60
28.570        33
28.580        20
28.590        20
28.600        40
28.610        20
28.620        40
28.630        47
28.640        27
28.650        40
28.660        60
28.670        13
28.680        47
28.690        40
28.700        33
28.710        47
28.720        20
28.730        20
28.740        53
28.750        20
28.760        47
28.770        27
28.780        13
28.790        27
28.800        47
28.810        67
28.820        33
28.830        53
28.840        47
28.850        73
28.860         7
28.870        33
28.880        47
28.890        33
28.900        27
28.910        53
28.920        53
28.930        13
28.940        27
28.950        33
28.960        13
28.970        13
28.980        20
28.990        47
29.000        53
29.010        27
29.020        40
29.030        40
29.040        53
29.050        67
29.060        20
29.070        53
29.080        27
29.090        20
29.100        20
29.110        53
29.120        40
29.130        40
29.140        47
29.150        33
29.160        60
29.170        40
29.180        20
29.190        53
29.200        13
29.210        47
29.220        13
29.230        27
29.240        53
29.250        33
29.260        47
29.270        27
29.280        40
29.290        33
29.300        33
29.310        33
29.320        33
29.330         0
29.340        33
29.350        27
29.360         7
29.370        40
29.380        73
29.390        40
29.400        13
29.410        60
29.420        53
29.430        53
29.440        27
29.450        47
29.460        20
29.470        40
29.480        73
29.490        33
29.500        33
29.510        40
29.520        27
29.530        33
29.540        53
29.550        53
29.560        60
29.570        47
29.580        60
29.590        20
29.600        47
29.610        33
29.620        20
29.630        13
29.640        40
29.650        40
29.660        27
29.670        47
29.680        27
29.690        40
29.700        20
29.710        33
29.720        60
29.730        40
29.740        27
29.750        53
29.760        27
29.770        20
29.780        47
29.790        13
29.800        40
29.810        47
29.820        53
29.830        53
29.840        27
29.850        27
29.860        47
29.870        40
29.880        73
29.890        53
29.900        80
29.910        40
29.920        40
29.930        33
29.940        40
29.950        47
29.960        40
29.970        27
29.980        47
29.990        40
30.000        20
30.010        67
30.020        60
30.030        80
30.040        67
30.050        93
30.060        53
30.070        73
30.080        67
30.090        53
30.100       107
30.110        60
30.120        73
30.130        87
30.140        40
30.150        60
30.160        93
30.170        87
30.180       113
30.190        60
30.200        87
30.210        67
30.220        40
30.230       107
30.240        47
30.250       107
30.260        73
30.270       140
30.280        47
30.290        60
30.300        67
30.310        73
30.320       100
30.330       133
30.340       120
30.350        87
30.360        93
30.370       120
30.380       107
30.390        73
30.400        87
30.410       173
30.420        67
30.430        53
30.440       120
30.450       120
30.460        73
30.470       120
30.480        87
30.490       120
30.500        73
30.510       127
30.520       127
30.530        93
30.540       120
30.550        87
30.560       100
30.570        87
30.580        80
30.590        93
30.600       180
30.610        67
30.620       153
30.630       140
30.640       167
30.650       100
30.660       107
30.670       127
30.680       160
30.690       160
30.700       140
30.710       147
30.720       133
30.730       127
30.740       173
30.750       153
30.760       220
30.770       167
30.780       187
30.790       227
30.800       227
30.810       267
30.820       320
30.830       293
30.840       253
30.850       287
30.860       393
30.870       353
30.880       407
30.890       420
30.900       513
30.910       780
30.920       633
30.930       746
30.940       806
30.950       993
30.960      1120
30.970      1153
30.980      1599
30.990      1679
31.000      1866
31.010      2112
31.020      2426
31.030      2459
31.040      3192
31.050      3452
31.060      3938
31.070      4765
31.080      4725
31.090      5285
31.100      6018
31.110      6924
31.120      7037
31.130      8057
31.140      8610
31.150      8743
31.160      9370
31.170      9310
31.180      9736
31.190     10076
31.200      9916
31.210      9943
31.220      9416
31.230      8643
31.240      8430
31.250      7430
31.260      7051
31.270      6351
31.280      5931
31.290      4558
31.300      4218
31.310      3792
31.320      2846
31.330      2652
31.340      2292
31.350      1899
31.360      1686
31.370      1093
31.380      1100
31.390       840
31.400       620
31.410       686
31.420       480
31.430       473
31.440       500
31.450       340
31.460       347
31.470       340
31.480       260
31.490       180
31.500       260
31.510       300
31.520       173
31.530       240
31.540       167
31.550       193
31.560       253
31.570       220
31.580       140
31.590       140
31.600       207
31.610       133
31.620       167
31.630       173
31.640       100
31.650       100
31.660       160
31.670        73
31.680       160
31.690       127
31.700        80
31.710       113
31.720       113
31.730        93
31.740       140
31.750        93
31.760        87
31.770       127
31.780       107
31.790       187
31.800        60
31.810       147
31.820        93
31.830       140
31.840        80
31.850        87
31.860        93
31.870       107
31.880       100
31.890        87
31.900        87
31.910       113
31.920       107
31.930        67
31.940        73
31.950        80
31.960       100
31.970        93
31.980        93
31.990        93
32.000       120
32.010       100
32.020        87
32.030        93
32.040       100
32.050        60
32.060        60
32.070        87
32.080        87
32.090        87
32.100       120
32.110       113
32.120       100
32.130        93
32.140       113
32.150        80
32.160       113
32.170        73
32.180        60
32.190        33
32.200       107
32.210        67
32.220        93
32.230        80
32.240       127
32.250        67
32.260        80
32.270        93
32.280        60
32.290        27
32.300        53
32.310        73
32.320        73
32.330        73
32.340        33
32.350        73
32.360        47
32.370        67
32.380        33
32.390        73
32.400       120
32.410        93
32.420       107
32.430        93
32.440        40
32.450        67
32.460        27
32.470        73
32.480        67
32.490        87
32.500       100
32.510        67
32.520        80
32.530        27
32.540        47
32.550        60
32.560       100
32.570        80
32.580        67
32.590        40
32.600        60
32.610        47
32.620        60
32.630        67
32.640        27
32.650        60
32.660        73
32.670       120
32.680        53
32.690        80
32.700        60
32.710        47
32.720        47
32.730        80
32.740        80
32.750        27
32.760        53
32.770       107
32.780        47
32.790        73
32.800        80
32.810        40
32.820        67
32.830        53
32.840        80
32.850        27
32.860        40
32.870        73
32.880        60
32.890        80
32.900        93
32.910        27
32.920        93
32.930        80
32.940        80
32.950        53
32.960        80
32.970        67
32.980        40
32.990        60
33.000        87
33.010       100
33.020        53
33.030        47
33.040        47
33.050        47
33.060        47
33.070        60
33.080        53
33.090       107
33.100        53
33.110        67
33.120        67
33.130        80
33.140        80
33.150        40
33.160       107
33.170        60
33.180        47
33.190        60
33.200        80
33.210        60
33.220        33
33.230        80
33.240        53
33.250        53
33.260        33
33.270       100
33.280        73
33.290        67
33.300        67
33.310        47
33.320        40
33.330        33
33.340        73
33.350       107
33.360        60
33.370        60
33.380        27
33.390        20
33.400        80
33.410        53
33.420        67
33.430        53
33.440        53
33.450        73
33.460        40
33.470        60
33.480        40
33.490        60
33.500        40
33.510        47
33.520        20
33.530        47
33.540        60
33.550        53
33.560        73
33.570        47
33.580        60
33.590        33
33.600        47
33.610        47
33.620        20
33.630        27
33.640        60
33.650        33
33.660        73
33.670        53
33.680        33
33.690        67
33.700        73
33.710        67
33.720        40
33.730        47
33.740        40
33.750        67
33.760        33
33.770        73
33.780        40
33.790        47
33.800        73
33.810        40
33.820        40
33.830        60
33.840        73
33.850        47
33.860        53
33.870        33
33.880        20
33.890        60
33.900        33
33.910        60
33.920        53
33.930        40
33.940         7
33.950        60
33.960       100
33.970        60
33.980        47
33.990        27
34.000        40
34.010        47
34.020        40
34.030        47
34.040        73
34.050        27
34.060        40
34.070        60
34.080        73
34.090        33
34.100        47
34.110        60
34.120        40
34.130        13
34.140        60
34.150        60
34.160        53
34.170        40
34.180        33
34.190        60
34.200        47
34.210        40
34.220        47
34.230        53
34.240        73
34.250        60
34.260        27
34.270        47
34.280        47
34.290        33
34.300        67
34.310        40
34.320        13
34.330        40
34.340        67
34.350        67
34.360        33
34.370        33
34.380        20
34.390        27
34.400        40
34.410        60
34.420        47
34.430        53
34.440        40
34.450        67
34.460        87
34.470        60
34.480        67
34.490        40
34.500        73
34.510        47
34.520        53
34.530        40
34.540        47
34.550        47
34.560         7
34.570        20
34.580        47
34.590        47
34.600        53
34.610        67
34.620        40
34.630        40
34.640        40
34.650        33
34.660         7
34.670        60
34.680        40
34.690        73
34.700        47
34.710        27
34.720        47
34.730        60
34.740        53
34.750        33
34.760        33
34.770        20
34.780        60
34.790        40
34.800        27
34.810        53
34.820        60
34.830        80
34.840        73
34.850        47
34.860        27
34.870        53
34.880        47
34.890        47
34.900        40
34.910        33
34.920        47
34.930        27
34.940        33
34.950        60
34.960        40
34.970        47
34.980        80
34.990        60
35.000        53
35.010        40
35.020        47
35.030        33
35.040        13
35.050        67
35.060        67
35.070       127
35.080        60
35.090        67
35.100        73
35.110        80
35.120        87
35.130        73
35.140       100
35.150        67
35.160        93
35.170        53
35.180        47
35.190        73
35.200        47
35.210        40
35.220       107
35.230        60
35.240        47
35.250        93
35.260        53
35.270        33
35.280        40
35.290        60
35.300        33
35.310        60
35.320        53
35.330        27
35.340        60
35.350        20
35.360        47
35.370         7
35.380        27
35.390        33
35.400        47
35.410        27
35.420        20
35.430        33
35.440        40
35.450        53
35.460        40
35.470        73
35.480        27
35.490        27
35.500        33
35.510        27
35.520        67
35.530        40
35.540        40
35.550        27
35.560        27
35.570        33
35.580        27
35.590        40
35.600        33
35.610        33
35.620        60
35.630        40
35.640        73
35.650        33
35.660        20
35.670        40
35.680        53
35.690        40
35.700        47
35.710        20
35.720        33
35.730        47
35.740        53
35.750        60
35.760        13
35.770        47
35.780        40
35.790        47
35.800        27
35.810        40
35.820        67
35.830        33
35.840        33
35.850        40
35.860        33
35.870        33
35.880        40
35.890        40
35.900        93
35.910        53
35.920        20
35.930        33
35.940        20
35.950        27
35.960         0
35.970        40
35.980        40
35.990        33
36.000        27
36.010        13
36.020        27
36.030        20
36.040        33
36.050        40
36.060        53
36.070        40
36.080        27
36.090        27
36.100        53
36.110        20
36.120        33
36.130        20
36.140        40
36.150        47
36.160        40
36.170        33
36.180        27
36.190        47
36.200        47
36.210        47
36.220        33
36.230        33
36.240        27
36.250        27
36.260        40
36.270        20
36.280        20
36.290        47
36.300        60
36.310        60
36.320        47
36.330        27
36.340        27
36.350        67
36.360        27
36.370        60
36.380        20
36.390         7
36.400        40
36.410        47
36.420        33
36.430        33
36.440        33
36.450        53
36.460        33
36.470        13
36.480        47
36.490        40
36.500        40
36.510         7
36.520        47
36.530        33
36.540        47
36.550        27
36.560        40
36.570        40
36.580        33
36.590        40
36.600        13
36.610        20
36.620        27
36.630        93
36.640        27
36.650        93
36.660         7
36.670        60
36.680        33
36.690        53
36.700        27
36.710        27
36.720        13
36.730        13
36.740        60
36.750        20
36.760        27
36.770        60
36.780        27
36.790        33
36.800        40
36.810        33
36.820        73
36.830        27
36.840        40
36.850        53
36.860        33
36.870        27
36.880        73
36.890        27
36.900        27
36.910        27
36.920        67
36.930        40
36.940        53
36.950        73
36.960        47
36.970        20
36.980        13
36.990        73
37.000        20
37.010        47
37.020        27
37.030        33
37.040        33
37.050        40
37.060        40
37.070        27
37.080         7
37.090        20
37.100         7
37.110        27
37.120        33
37.130        33
37.140        53
37.150        20
37.160        20
37.170        33
37.180        20
37.190        33
37.200        33
37.210        20
37.220        33
37.230        20
37.240         7
37.250        27
37.260        27
37.270        33
37.280        40
37.290        33
37.300        47
37.310        33
37.320        47
37.330        60
37.340        60
37.350        27
37.360        20
37.370        40
37.380        27
37.390        33
37.400        33
37.410        40
37.420        33
37.430        27
37.440        47
37.450        40
37.460        40
37.470        53
37.480         7
37.490        33
37.500        27
37.510        27
37.520        47
37.530        20
37.540        47
37.550        13
37.560        27
37.570         0
37.580        47
37.590        27
37.600        53
37.610        27
37.620        73
37.630        33
37.640        20
37.650        40
37.660         0
37.670        27
37.680        27
37.690        20
37.700        13
37.710        13
37.720        33
37.730        67
37.740        33
37.750        40
37.760        13
37.770        47
37.780        47
37.790        27
37.800        33
37.810        47
37.820        33
37.830        33
37.840        20
37.850         0
37.860        33
37.870        27
37.880        13
37.890        60
37.900        33
37.910        40
37.920        47
37.930        20
37.940        53
37.950        13
37.960        47
37.970        40
37.980        20
37.990         7
38.000        40
38.010        40
38.020        40
38.030        33
38.040        33
38.050        20
38.060        13
38.070        27
38.080        13
38.090        40
38.100        53
38.110        33
38.120        40
38.130        40
38.140        40
38.150        27
38.160        20
38.170        40
38.180        13
38.190        47
38.200        47
38.210        60
38.220        60
38.230        33
38.240        33
38.250        47
38.260        67
38.270        13
38.280        47
38.290        33
38.300        40
38.310        33
38.320        40
38.330        33
38.340        53
38.350        20
38.360        40
38.370        40
38.380        27
38.390        33
38.400        20
38.410        53
38.420        33
38.430        47
38.440        20
38.450        47
38.460        13
38.470        40
38.480        60
38.490        80
38.500        60
38.510        27
38.520        60
38.530        27
38.540        53
38.550        53
38.560        40
38.570        33
38.580        53
38.590        27
38.600        33
38.610        53
38.620        33
38.630        53
38.640        13
38.650        33
38.660        47
38.670        27
38.680        27
38.690        27
38.700        47
38.710        27
38.720        27
38.730        13
38.740        33
38.750        13
38.760        33
38.770        33
38.780        13
38.790        13
38.800        27
38.810         7
38.820        20
38.830        47
38.840        33
38.850        13
38.860        27
38.870        27
38.880        33
38.890        40
38.900        40
38.910        13
38.920        33
38.930        33
38.940         7
38.950        33
38.960        13
38.970        27
38.980        13
38.990        33
39.000        27
39.010        13
39.020        13
39.030        20
39.040        47
39.050        40
39.060        33
39.070         7
39.080        27
39.090         7
39.100        20
39.110        20
39.120        20
39.130        13
39.140        27
39.150        33
39.160         7
39.170        20
39.180        27
39.190        27
39.200        33
39.210        20
39.220        33
39.230         7
39.240        13
39.250        33
39.260        27
39.270         7
39.280         7
39.290        40
39.300        20
39.310        20
39.320        20
39.330        33
39.340        20
39.350        13
39.360        40
39.370        27
39.380        27
39.390        13
39.400        33
39.410        60
39.420        53
39.430        40
39.440        33
39.450        20
39.460        20
39.470        40
39.480        27
39.490        13
39.500        40
39.510        20
39.520        27
39.530        20
39.540         7
39.550        27
39.560        20
39.570        33
39.580        13
39.590        20
39.600        20
39.610        40
39.620        13
39.630        20
39.640        20
39.650        20
39.660        13
39.670        20
39.680         0
39.690        33
39.700        27
39.710        40
39.720        67
39.730        20
39.740        53
39.750        27
39.760        13
39.770        13
39.780         7
39.790        13
39.800         0
39.810        20
39.820        40
39.830        20
39.840         7
39.850        27
39.860        13
39.870        40
39.880        20
39.890        27
39.900        20
39.910        33
39.920         0
39.930        20
39.940        33
39.950         7
39.960         0
39.970        33
39.980        27
39.990        13
40.000         0
40.010        13
40.020        33
40.030        33
40.040         7
40.050        33
40.060        13
40.070        13
40.080        60
40.090        33
40.100        20
40.110        13
40.120         7
40.130        20
40.140         7
40.150        27
40.160        20
40.170        33
40.180        13
40.190        40
40.200        27
40.210        20
40.220        67
40.230        27
40.240        20
40.250        13
40.260        13
40.270        13
40.280        13
40.290        20
40.300        33
40.310        40
40.320        27
40.330        40
40.340        20
40.350        20
40.360         7
40.370        20
40.380         7
40.390        13
40.400        27
40.410        33
40.420        13
40.430        33
40.440        13
40.450        20
40.460         0
40.470        20
40.480        40
40.490         0
40.500         7
40.510        13
40.520        27
40.530        33
40.540        33
40.550        20
40.560        13
40.570        13
40.580        33
40.590        20
40.600        13
40.610         7
40.620        27
40.630        27
40.640         7
40.650        27
40.660        20
40.670        40
40.680        13
40.690        13
40.700        40
40.710         7
40.720        33
40.730         7
40.740        20
40.750        20
40.760        13
40.770        40
40.780        27
40.790        33
40.800        13
40.810        27
40.820        20
40.830        13
40.840        13
40.850         7
40.860        20
40.870         7
40.880        20
40.890        27
40.900        13
40.910         7
40.920        40
40.930        33
40.940         7
40.950         0
40.960         7
40.970        20
40.980         7
40.990        13
41.000         7
41.010        27
41.020        27
41.030        13
41.040        13
41.050        27
41.060         7
41.070        20
41.080        13
41.090        27
41.100        13
41.110        33
41.120        20
41.130        47
41.140         7
41.150        27
41.160        20
41.170         7
41.180        20
41.190        40
41.200        20
41.210        33
41.220         0
41.230        27
41.240        27
41.250         0
41.260        13
41.270        27
41.280        13
41.290        13
41.300        20
41.310        40
41.320        20
41.330        47
41.340        13
41.350        20
41.360        20
41.370        47
41.380        13
41.390        13
41.400        13
41.410        13
41.420        20
41.430        13
41.440         7
41.450        33
41.460        20
41.470        13
41.480        33
41.490        47
41.500        13
41.510        33
41.520        47
41.530        67
41.540        20
41.550        20
41.560        73
41.570        33
41.580        53
41.590        80
41.600        40
41.610       140
41.620        87
41.630        73
41.640        60
41.650        73
41.660        93
41.670        80
41.680        80
41.690        67
41.700        47
41.710        27
41.720       100
41.730        33
41.740        67
41.750        53
41.760        67
41.770        67
41.780        47
41.790        40
41.800        40
41.810        60
41.820        27
41.830        27
41.840        20
41.850        27
41.860        13
41.870        53
41.880        27
41.890        20
41.900        13
41.910        40
41.920        13
41.930        20
41.940        40
41.950        27
41.960        27
41.970        20
41.980        40
41.990         0
42.000        33
42.010        13
42.020        13
42.030         7
42.040        20
42.050        33
42.060        27
42.070        33
42.080        13
42.090        13
42.100         0
42.110        13
42.120        13
42.130        27
42.140        13
42.150         0
42.160        27
42.170        20
42.180        20
42.190        13
42.200        27
42.210         0
42.220        27
42.230        13
42.240         7
42.250        27
42.260        27
42.270        27
42.280        13
42.290        20
42.300        20
42.310        27
42.320        20
42.330        13
42.340        40
42.350         7
42.360         7
42.370        27
42.380        27
42.390        27
42.400         7
42.410        27
42.420        33
42.430         7
42.440        20
42.450        13
42.460        20
42.470        27
42.480         0
42.490        27
42.500        27
42.510        40
42.520         0
42.530        27
42.540        20
42.550         7
42.560        20
42.570        20
42.580        20
42.590         7
42.600        27
42.610         0
42.620        20
42.630        27
42.640        27
42.650        33
42.660        20
42.670        20
42.680        27
42.690        20
42.700         7
42.710        27
42.720        27
42.730        20
42.740        13
42.750        20
42.760         7
42.770        27
42.780        27
42.790        13
42.800        20
42.810         7
42.820        20
42.830        13
42.840        13
42.850        20
42.860        13
42.870        20
42.880        13
42.890        27
42.900        13
42.910        13
42.920         0
42.930        20
42.940        40
42.950        47
42.960        40
42.970        20
42.980        40
42.990        20
43.000        13
43.010         0
43.020        33
43.030        33
43.040         0
43.050         0
43.060        40
43.070        20
43.080        13
43.090        13
43.100        13
43.110        20
43.120        13
43.130        13
43.140        13
43.150        47
43.160        13
43.170        27
43.180        40
43.190        13
43.200        13
43.210        27
43.220        20
43.230        13
43.240        13
43.250        20
43.260         7
43.270        40
43.280        13
43.290        27
43.300         7
43.310        27
43.320        33
43.330        27
43.340        13
43.350         7
43.360        27
43.370        20
43.380        40
43.390        13
43.400         0
43.410        13
43.420        40
43.430        27
43.440        13
43.450         7
43.460        13
43.470        40
43.480        20
43.490         7
43.500        20
43.510        13
43.520        13
43.530        47
43.540        20
43.550        20
43.560         7
43.570        40
43.580        13
43.590        27
43.600        33
43.610        13
43.620         7
43.630         7
43.640        13
43.650         0
43.660        13
43.670        20
43.680        33
43.690         7
43.700        20
43.710        40
43.720        27
43.730        27
43.740         7
43.750        13
43.760        27
43.770         0
43.780        20
43.790        13
43.800         7
43.810         0
43.820        13
43.830        13
43.840         7
43.850        20
43.860        27
43.870        27
43.880        27
43.890        20
43.900        20
43.910        13
43.920        27
43.930         7
43.940        27
43.950        27
43.960        13
43.970        13
43.980         7
43.990        13
44.000        20
44.010        33
44.020        47
44.030         7
44.040        20
44.050        13
44.060        13
44.070        20
44.080        13
44.090        27
44.100        13
44.110        27
44.120        33
44.130        27
44.140        20
44.150        13
44.160         7
44.170         7
44.180        40
44.190        13
44.200        13
44.210        27
44.220         7
44.230        13
44.240        13
44.250        20
44.260        13
44.270         7
44.280        33
44.290        27
44.300        13
44.310        13
44.320        20
44.330        20
44.340         7
44.350        27
44.360        13
44.370        20
44.380        20
44.390         7
44.400        27
44.410        13
44.420        13
44.430         7
44.440         7
44.450        33
44.460        27
44.470         7
44.480        33
44.490         7
44.500        33
44.510        27
44.520        20
44.530        20
44.540        33
44.550        20
44.560        13
44.570         0
44.580        20
44.590        27
44.600        27
44.610         7
44.620         7
44.630        27
44.640        33
44.650        20
44.660        27
44.670        33
44.680        20
44.690        33
44.700         7
44.710        27
44.720         7
44.730        20
44.740        20
44.750         7
44.760        20
44.770        47
44.780        13
44.790        40
44.800        40
44.810        27
44.820        27
44.830        40
44.840         7
44.850        40
44.860        40
44.870        53
44.880        40
44.890        20
44.900        33
44.910        20
44.920        20
44.930        13
44.940         7
44.950        33
44.960        33
44.970        27
44.980        33
44.990         7
45.000        20
45.010        27
45.020         7
45.030         7
45.040         7
45.050        27
45.060        13
45.070         0
45.080        13
45.090        13
45.100        13
45.110        53
45.120        20
45.130         7
45.140        40
45.150        20
45.160        27
45.170         0
45.180         0
45.190        13
45.200        13
45.210        40
45.220        20
45.230        27
45.240        13
45.250        27
45.260        40
45.270        20
45.280        20
45.290        13
45.300         0
45.310        13
45.320         7
45.330        33
45.340         7
45.350        27
45.360        20
45.370         7
45.380        20
45.390         0
45.400        13
45.410         7
45.420        20
45.430        27
45.440        13
45.450        13
45.460        20
45.470        27
45.480         0
45.490        27
45.500        20
45.510        20
45.520        20
45.530        13
45.540        13
45.550        13
45.560         7
45.570         7
45.580        20
45.590        13
45.600         7
45.610         7
45.620        67
45.630        27
45.640        13
45.650        20
45.660        27
45.670        20
45.680         0
45.690        27
45.700         7
45.710         0
45.720         0
45.730        20
45.740         7
45.750         0
45.760         7
45.770        13
45.780        33
45.790        27
45.800        20
45.810        27
45.820        13
45.830        20
45.840        13
45.850        40
45.860        13
45.870         7
45.880        13
45.890         7
45.900        33
45.910        20
45.920        27
45.930        27
45.940         0
45.950         7
45.960        13
45.970        20
45.980         0
45.990         7
46.000        13
46.010        13
46.020        20
46.030        20
46.040        27
46.050        40
46.060        13
46.070         0
46.080         7
46.090         7
46.100         7
46.110        13
46.120        20
46.130        60
46.140        27
46.150        27
46.160        13
46.170        13
46.180        20
46.190         0
46.200        13
46.210         7
46.220        13
46.230        13
46.240        13
46.250         7
46.260        13
46.270        20
46.280        13
46.290        13
46.300        13
46.310         0
46.320        27
46.330         7
46.340        13
46.350        27
46.360         7
46.370        20
46.380         0
46.390        33
46.400         0
46.410         0
46.420         7
46.430        13
46.440        20
46.450        20
46.460        40
46.470        33
46.480         7
46.490        20
46.500        20
46.510        27
46.520        20
46.530        20
46.540        27
46.550        20
46.560        33
46.570        40
46.580         7
46.590         7
46.600         0
46.610        13
46.620        13
46.630         0
46.640        20
46.650        13
46.660        20
46.670        13
46.680        13
46.690        13
46.700         7
46.710         7
46.720        13
46.730        13
46.740        33
46.750         0
46.760         7
46.770        27
46.780         7
46.790        13
46.800        33
46.810        13
46.820        40
46.830        20
46.840        13
46.850        27
46.860        13
46.870        13
46.880        13
46.890         7
46.900         0
46.910        13
46.920        20
46.930        20
46.940         7
46.950        13
46.960        13
46.970        20
46.980         0
46.990         7
47.000         0
47.010        13
47.020        13
47.030        20
47.040         0
47.050         7
47.060        27
47.070        20
47.080        13
47.090        20
47.100         0
47.110        20
47.120        27
47.130        20
47.140        40
47.150        27
47.160        13
47.170        20
47.180        13
47.190        13
47.200         7
47.210         7
47.220        13
47.230        13
47.240        20
47.250         7
47.260        13
47.270        13
47.280        33
47.290         7
47.300        20
47.310        27
47.320        27
47.330         7
47.340        13
47.350        27
47.360         0
47.370        20
47.380         0
47.390        20
47.400         7
47.410        27
47.420         0
47.430        20
47.440        13
47.450         0
47.460        47
47.470        20
47.480        27
47.490        27
47.500        27
47.510        13
47.520        13
47.530         7
47.540         0
47.550        13
47.560         7
47.570        20
47.580        27
47.590        40
47.600         7
47.610        20
47.620         7
47.630        20
47.640        13
47.650         7
47.660         7
47.670        40
47.680         0
47.690        33
47.700        13
47.710        13
47.720        27
47.730         7
47.740        20
47.750        33
47.760        13
47.770        13
47.780        13
47.790        27
47.800        27
47.810        20
47.820        13
47.830         7
47.840        13
47.850        27
47.860        13
47.870        27
47.880        20
47.890        13
47.900         7
47.910        13
47.920         7
47.930        27
47.940        20
47.950        13
47.960        13
47.970         7
47.980        20
47.990        13
48.000        27
48.010        13
48.020        13
48.030        13
48.040         7
48.050        20
48.060         0
48.070        27
48.080        13
48.090        13
48.100        13
48.110        13
48.120        27
48.130         7
48.140         7
48.150        40
48.160        13
48.170        13
48.180         7
48.190        33
48.200        20
48.210         0
48.220        13
48.230         7
48.240        20
48.250        13
48.260        13
48.270        13
48.280         7
48.290        13
48.300         7
48.310        20
48.320         7
48.330        20
48.340         7
48.350        13
48.360        33
48.370        20
48.380        13
48.390        20
48.400        13
48.410        27
48.420        33
48.430        20
48.440        13
48.450        13
48.460         7
48.470        20
48.480        13
48.490         7
48.500        13
48.510        20
48.520        20
48.530        13
48.540        33
48.550         7
48.560        27
48.570        47
48.580        27
48.590        20
48.600        20
48.610        13
48.620         7
48.630        13
48.640         7
48.650        13
48.660        13
48.670        33
48.680         0
48.690        20
48.700        33
48.710        20
48.720        27
48.730         7
48.740        13
48.750        33
48.760        20
48.770        20
48.780        20
48.790        33
48.800        27
48.810         0
48.820        20
48.830        33
48.840         7
48.850        13
48.860        20
48.870         7
48.880        20
48.890        13
48.900        13
48.910        13
48.920        20
48.930         7
48.940         7
48.950         0
48.960         7
48.970        13
48.980        53
48.990        33
49.000         0
49.010         7
49.020        33
49.030        20
49.040        27
49.050        27
49.060         0
49.070         7
49.080        27
49.090        20
49.100        13
49.110        20
49.120        20
49.130        13
49.140        33
49.150         7
49.160         7
49.170        27
49.180        20
49.190         0
49.200        13
49.210        20
49.220        20
49.230        33
49.240        27
49.250        13
49.260        20
49.270         0
49.280        20
49.290         7
49.300         0
49.310        27
49.320        13
49.330         7
49.340         7
49.350        20
49.360        20
49.370        13
49.380         7
49.390        13
49.400        13
49.410        13
49.420        13
49.430         7
49.440        27
49.450        20
49.460        20
49.470        33
49.480        27
49.490         0
49.500         7
49.510        13
49.520         7
49.530        27
49.540        40
49.550        40
49.560        20
49.570         0
49.580         7
49.590        13
49.600        33
49.610         0
49.620         0
49.630         7
49.640        13
49.650         7
49.660         7
49.670         0
49.680         7
49.690        13
49.700        27
49.710         7
49.720         7
49.730        40
49.740         7
49.750        13
49.760        13
49.770        40
49.780        40
49.790        27
49.800        13
49.810        13
49.820        27
49.830        20
49.840        20
49.850        20
49.860        20
49.870        20
49.880        27
49.890        27
49.900        27
49.910        20
49.920        20
49.930        20
49.940        13
49.950        13
49.960        20
49.970         7
49.980        40
49.990        33
50.000         7
50.010        13
50.020        13
50.030         7
50.040         7
50.050        13
50.060        20
50.070        13
50.080        40
50.090        13
50.100         7
50.110        20
50.120         0
50.130        13
50.140         7
50.150        47
50.160        13
50.170        33
50.180        13
50.190        20
50.200        33
50.210        20
50.220        20
50.230         7
50.240        13
50.250        33
50.260        27
50.270        33
50.280         7
50.290        33
50.300        13
50.310        27
50.320        13
50.330        20
50.340         7
50.350        33
50.360        27
50.370        13
50.380         7
50.390        13
50.400        27
50.410        27
50.420        33
50.430        20
50.440        13
50.450        27
50.460        60
50.470        33
50.480        13
50.490         7
50.500        33
50.510        13
50.520        27
50.530         7
50.540        33
50.550        33
50.560        20
50.570        20
50.580        13
50.590        33
50.600        33
50.610        27
50.620         7
50.630         7
50.640        27
50.650        13
50.660        13
50.670         7
50.680         7
50.690        20
50.700         0
50.710        13
50.720        20
50.730        27
50.740        13
50.750        20
50.760        33
50.770         7
50.780        27
50.790        27
50.800         0
50.810        20
50.820        33
50.830         7
50.840         7
50.850        33
50.860        20
50.870        20
50.880        27
50.890        20
50.900        13
50.910        13
50.920        13
50.930        20
50.940        20
50.950        27
50.960        20
50.970        13
50.980        13
50.990         7
51.000        13
51.010        13
51.020         0
51.030         7
51.040        40
51.050        13
51.060        27
51.070         7
51.080        20
51.090        13
51.100        20
51.110        13
51.120         7
51.130         0
51.140        33
51.150        13
51.160        13
51.170        13
51.180         7
51.190        13
51.200        27
51.210        47
51.220         0
51.230         7
51.240         0
51.250        13
51.260        20
51.270        27
51.280         0
51.290        27
51.300        20
51.310        13
51.320         0
51.330         7
51.340         0
51.350        13
51.360        20
51.370        20
51.380        20
51.390         7
51.400        27
51.410        13
51.420        20
51.430         0
51.440         7
51.450        13
51.460         0
51.470        20
51.480        20
51.490        20
51.500        20
51.510         7
51.520         7
51.530         7
51.540        20
51.550        13
51.560        13
51.570         7
51.580         7
51.590         7
51.600        13
51.610        13
51.620         7
51.630        20
51.640        20
51.650        27
51.660         7
51.670         7
51.680        20
51.690         7
51.700        13
51.710         0
51.720         7
51.730         7
51.740        20
51.750        33
51.760        13
51.770         7
51.780         0
51.790        33
51.800        40
51.810         7
51.820        13
51.830         7
51.840         7
51.850         7
51.860         7
51.870         7
51.880         7
51.890        13
51.900        20
51.910         0
51.920         7
51.930         0
51.940         7
51.950         7
51.960         0
51.970         7
51.980        13
51.990        20
52.000        13
52.010         0
52.020         7
52.030         7
52.040        33
52.050        20
52.060        13
52.070        13
52.080        27
52.090        13
52.100        27
52.110         7
52.120        13
52.130        13
52.140        13
52.150        13
52.160        27
52.170         7
52.180         0
52.190         7
52.200         7
52.210        20
52.220         7
52.230         7
52.240        20
52.250        13
52.260         7
52.270        13
52.280         7
52.290        20
52.300         0
52.310        13
52.320        27
52.330        13
52.340         7
52.350        13
52.360        13
52.370        27
52.380         7
52.390         0
52.400        20
52.410         0
52.420         7
52.430        53
52.440        33
52.450         7
52.460        47
52.470        47
52.480        47
52.490        33
52.500        53
52.510       127
52.520       120
52.530        87
52.540        93
52.550       100
52.560        87
52.570        47
52.580        60
52.590        40
52.600        20
52.610        40
52.620        20
52.630        73
52.640        47
52.650        33
52.660        87
52.670        80
52.680        53
52.690        67
52.700        20
52.710        47
52.720        13
52.730        60
52.740         7
52.750         7
52.760        33
52.770        33
52.780         7
52.790         7
52.800        20
52.810        20
52.820         7
52.830         0
52.840        13
52.850         7
52.860        20
52.870        27
52.880        20
52.890         0
52.900         7
52.910         0
52.920        33
52.930         7
52.940        13
52.950        27
52.960        13
52.970         7
52.980         7
52.990        13
53.000         7
53.010        20
53.020         7
53.030        20
53.040         7
53.050        13
53.060        27
53.070        33
53.080        20
53.090        13
53.100         0
53.110        13
53.120        27
53.130        13
53.140        13
53.150         7
53.160        27
53.170         7
53.180        13
53.190         7
53.200         7
53.210         7
53.220        20
53.230        27
53.240         7
53.250         7
53.260         7
53.270         0
53.280        13
53.290        27
53.300         7
53.310         7
53.320         7
53.330        13
53.340         7
53.350        33
53.360        13
53.370        20
53.380         7
53.390        33
53.400        13
53.410         7
53.420         7
53.430         0
53.440        13
53.450        13
53.460         0
53.470        13
53.480         7
53.490        20
53.500        13
53.510         0
53.520         0
53.530        27
53.540         7
53.550         7
53.560         7
53.570        53
53.580        20
53.590         7
53.600         7
53.610         7
53.620         0
53.630        13
53.640        13
53.650         0
53.660         7
53.670         0
53.680        13
53.690         0
53.700        33
53.710         7
53.720         7
53.730         0
53.740        13
53.750        20
53.760        20
53.770        13
53.780         7
53.790         7
53.800        27
53.810         7
53.820         0
53.830         7
53.840         7
53.850        20
53.860         0
53.870        33
53.880         0
53.890        27
53.900        27
53.910        13
53.920        20
53.930        13
53.940        27
53.950        13
53.960         0
53.970         7
53.980        13
53.990        13
54.000         7
54.010        20
54.020        13
54.030        13
54.040        20
54.050         7
54.060        33
54.070         0
54.080        13
54.090        13
54.100        13
54.110         0
54.120        20
54.130         7
54.140        13
54.150        13
54.160         7
54.170        13
54.180        20
54.190        27
54.200        33
54.210        13
54.220        13
54.230        13
54.240         7
54.250        13
54.260        20
54.270        13
54.280         0
54.290        13
54.300         7
54.310        13
54.320        13
54.330         7
54.340        27
54.350         7
54.360        27
54.370         7
54.380        27
54.390        27
54.400        20
54.410         7
54.420         0
54.430         7
54.440         7
54.450        13
54.460         7
54.470        53
54.480        13
54.490        13
54.500         7
54.510         0
54.520        27
54.530        20
54.540        20
54.550        13
54.560         7
54.570         0
54.580         0
54.590         7
54.600         7
54.610         0
54.620        13
54.630        13
54.640        13
54.650        13
54.660         0
54.670        13
54.680         0
54.690         7
54.700        27
54.710         0
54.720        20
54.730        20
54.740         0
54.750         7
54.760         7
54.770         0
54.780         0
54.790        13
54.800        13
54.810        20
54.820        13
54.830        13
54.840        27
54.850         7
54.860         7
54.870        13
54.880        13
54.890        13
54.900        33
54.910        13
54.920        40
54.930         7
54.940         7
54.950        13
54.960         7
54.970        13
54.980         0
54.990        13
55.000         7
55.010         7
55.020        13
55.030        13
55.040        40
55.050         0
55.060        20
55.070        47
55.080        33
55.090        33
55.100        27
55.110        20
55.120        20
55.130        27
55.140        20
55.150        20
55.160        33
55.170        27
55.180         7
55.190         0
55.200         7
55.210        20
55.220        13
55.230        13
55.240        20
55.250        33
55.260        13
55.270        47
55.280        13
55.290        20
55.300        20
55.310         7
55.320        13
55.330        33
55.340        13
55.350        33
55.360        20
55.370        40
55.380        13
55.390        20
55.400        13
55.410        27
55.420        33
55.430        40
55.440        53
55.450        27
55.460        40
55.470        80
55.480        27
55.490        53
55.500        47
55.510        40
55.520        67
55.530        53
55.540        53
55.550        87
55.560        67
55.570        73
55.580        13
55.590        60
55.600        20
55.610        87
55.620        67
55.630        53
55.640        87
55.650        53
55.660       133
55.670       133
55.680        73
55.690        67
55.700        93
55.710        73
55.720        60
55.730        67
55.740        80
55.750        47
55.760        73
55.770        27
55.780        60
55.790        40
55.800        53
55.810        67
55.820        40
55.830        33
55.840        67
55.850        67
55.860        20
55.870        33
55.880        60
55.890        40
55.900        27
55.910        47
55.920        27
55.930        33
55.940        27
55.950        33
55.960        20
55.970        13
55.980        33
55.990        13
56.000        40
56.010        27
56.020        47
56.030        27
56.040        13
56.050        40
56.060        40
56.070        40
56.080        53
56.090        13
56.100        20
56.110        20
56.120        20
56.130         7
56.140        40
56.150        20
56.160        20
56.170        27
56.180        13
56.190         0
56.200         7
56.210        27
56.220         7
56.230         7
56.240         7
56.250        20
56.260        27
56.270        27
56.280         7
56.290        13
56.300        27
56.310         0
56.320         7
56.330        20
56.340         7
56.350        20
56.360        20
56.370        13
56.380        13
56.390        27
56.400         7
56.410        20
56.420        20
56.430        20
56.440        13
56.450        20
56.460        20
56.470         0
56.480        33
56.490         0
56.500        27
56.510         7
56.520         7
56.530        20
56.540         7
56.550         7
56.560         7
56.570        27
56.580        27
56.590         0
56.600        27
56.610        20
56.620         7
56.630        20
56.640        13
56.650         7
56.660         7
56.670        13
56.680        20
56.690         0
56.700         7
56.710        33
56.720         7
56.730         0
56.740         0
56.750        13
56.760        27
56.770         0
56.780        13
56.790        33
56.800         0
56.810         7
56.820        27
56.830         0
56.840        33
56.850        40
56.860         0
56.870         0
56.880         7
56.890         0
56.900         7
56.910        13
56.920         0
56.930         0
56.940        13
56.950        13
56.960        13
56.970         0
56.980        20
56.990        13
57.000        13
57.010        13
57.020        27
57.030        27
57.040        13
57.050        20
57.060        13
57.070         7
57.080         7
57.090         7
57.100         0
57.110        20
57.120         0
57.130         7
57.140        40
57.150        13
57.160         7
57.170        13
57.180        13
57.190        13
57.200        33
57.210         7
57.220        13
57.230        13
57.240        20
57.250        27
57.260         7
57.270         7
57.280        33
57.290        13
57.300        13
57.310        47
57.320        20
57.330        20
57.340        27
57.350        27
57.360        20
57.370        13
57.380        13
57.390        20
57.400         7
57.410         7
57.420        33
57.430        40
57.440        27
57.450        27
57.460        20
57.470        27
57.480        47
57.490        27
57.500        47
57.510        47
57.520        53
57.530        47
57.540        27
57.550        20
57.560        27
57.570        27
57.580        27
57.590        27
57.600        33
57.610        40
57.620        53
57.630        40
57.640        13
57.650        27
57.660        13
57.670        27
57.680        40
57.690        40
57.700         7
57.710        13
57.720        33
57.730        20
57.740        33
57.750        20
57.760         7
57.770        13
57.780        13
57.790        13
57.800         7
57.810        20
57.820        13
57.830         7
57.840        20
57.850        40
57.860         0
57.870         0
57.880         7
57.890        40
57.900         0
57.910        20
57.920         0
57.930         7
57.940         7
57.950         0
57.960         7
57.970         7
57.980        20
57.990         0
58.000        40
58.010         7
58.020        27
58.030        60
58.040        20
58.050        27
58.060         0
58.070        20
58.080         0
58.090        27
58.100        13
58.110        53
58.120        13
58.130         7
58.140        33
58.150        27
58.160         7
58.170        40
58.180         7
58.190        13
58.200        27
58.210        20
58.220        27
58.230        27
58.240        27
58.250         0
58.260        13
58.270        13
58.280        27
58.290        40
58.300        20
58.310        13
58.320         0
58.330        13
58.340         7
58.350        13
58.360         7
58.370         0
58.380         7
58.390        20
58.400        40
58.410         7
58.420         7
58.430        27
58.440        13
58.450         7
58.460        20
58.470         7
58.480        33
58.490        13
58.500        20
58.510         7
58.520        47
58.530         7
58.540        27
58.550        13
58.560         0
58.570         0
58.580        13
58.590         7
58.600        20
58.610         0
58.620        13
58.630         7
58.640        13
58.650         7
58.660        20
58.670         0
58.680        27
58.690         7
58.700        20
58.710         7
58.720         0
58.730         7
58.740        13
58.750         0
58.760         7
58.770        20
58.780        13
58.790        20
58.800        13
58.810         7
58.820        13
58.830         7
58.840         0
58.850         7
58.860         7
58.870         7
58.880        13
58.890        13
58.900        27
58.910        13
58.920         7
58.930         7
58.940        20
58.950         7
58.960         7
58.970        20
58.980         7
58.990         7
59.000         7
59.010        13
59.020        20
59.030        20
59.040        13
59.050        13
59.060         7
59.070        13
59.080         0
59.090        13
59.100        20
59.110         7
59.120         7
59.130        13
59.140         0
59.150        20
59.160        27
59.170         7
59.180        27
59.190        13
59.200         7
59.210         7
59.220        20
59.230        33
59.240         7
59.250         7
59.260        20
59.270        20
59.280        20
59.290         0
59.300        13
59.310        13
59.320        20
59.330         7
59.340        13
59.350         7
59.360        20
59.370         0
59.380         7
59.390         0
59.400        13
59.410        20
59.420        13
59.430        13
59.440        27
59.450         7
59.460         7
59.470         0
59.480        27
59.490        27
59.500         7
59.510         7
59.520         7
59.530         7
59.540        20
59.550         7
59.560        27
59.570        33
59.580        20
59.590         7
59.600         7
59.610         0
59.620        27
59.630        20
59.640        40
59.650         7
59.660         7
59.670        20
59.680        13
59.690        20
59.700        13
59.710         7
59.720        13
59.730        27
59.740        27
59.750        20
59.760        20
59.770         7
59.780         7
59.790         0
59.800         7
59.810         7
59.820        20
59.830        20
59.840         7
59.850         0
59.860        27
59.870        20
59.880        27
59.890         0
59.900        33
59.910         0
59.920         0
59.930        20
59.940        27
59.950        33
59.960        13
59.970        13
59.980        20
59.990         0
60.000         0
