20.000       110
20.020       103
20.040       123
20.060       117
20.080       128
20.100       142
20.120       125
20.140       117
20.160       110
20.180       130
20.200       113
20.220       108
20.240       118
20.260       133
20.280       125
20.300       115
20.320       113
20.340       105
20.360       112
20.380       122
20.400       122
20.420       120
20.440       147
20.460       118
20.480       115
20.500       132
20.520       133
20.540       107
20.560       135
20.580       123
20.600       150
20.620       123
20.640       125
20.660       138
20.680       127
20.700       108
20.720       142
20.740       130
20.760       138
20.780       113
20.800       103
20.820       138
20.840       130
20.860       115
20.880       137
20.900       127
20.920       140
20.940       108
20.960       115
20.980       125
21.000       157
21.020       110
21.040       117
21.060       137
21.080       135
21.100       113
21.120       125
21.140       135
21.160       120
21.180       112
21.200       135
21.220       103
21.240       158
21.260       140
21.280       132
21.300       130
21.320       135
21.340       143
21.360       137
21.380       123
21.400       135
21.420       117
21.440       142
21.460       132
21.480       128
21.500       133
21.520       117
21.540       147
21.560       150
21.580       170
21.600       123
21.620       165
21.640       157
21.660       158
21.680       130
21.700       138
21.720       157
21.740       140
21.760       142
21.780       135
21.800       135
21.820       155
21.840       157
21.860       143
21.880       145
21.900       145
21.920       147
21.940       167
21.960       133
21.980       140
22.000       147
22.020       150
22.040       130
22.060       133
22.080       175
22.100       157
22.120       125
22.140       160
22.160       167
22.180       155
22.200       147
22.220       162
22.240       117
22.260       128
22.280       128
22.300       170
22.320       168
22.340       155
22.360       160
22.380       150
22.400       155
22.420       138
22.440       150
22.460       168
22.480       147
22.500       200
22.520       148
22.540       163
22.560       173
22.580       172
22.600       202
22.620       182
22.640       145
22.660       168
22.680       178
22.700       180
22.720       192
22.740       173
22.760       153
22.780       227
22.800       198
22.820       183
22.840       200
22.860       247
22.880       200
22.900       227
22.920       237
22.940       260
22.960       257
22.980       197
23.000       258
23.020       292
23.040       468
23.060      1013
23.080      1498
23.100      1629
23.120      1438
23.140       671
23.160       380
23.180       273
23.200       292
23.220       273
23.240       257
23.260       197
23.280       252
23.300       220
23.320       228
23.340       182
23.360       235
23.380       193
23.400       233
23.420       202
23.440       223
23.460       223
23.480       185
23.500       222
23.520       195
23.540       203
23.560       195
23.580       172
23.600       220
23.620       223
23.640       228
23.660       195
23.680       200
23.700       238
23.720       192
23.740       212
23.760       187
23.780       180
23.800       180
23.820       178
23.840       182
23.860       188
23.880       182
23.900       210
23.920       170
23.940       195
23.960       195
23.980       190
24.000       202
24.020       207
24.040       172
24.060       207
24.080       190
24.100       185
24.120       175
24.140       200
24.160       205
24.180       202
24.200       243
24.220       165
24.240       202
24.260       198
24.280       193
24.300       193
24.320       198
24.340       203
24.360       185
24.380       190
24.400       183
24.420       213
24.440       203
24.460       220
24.480       228
24.500       195
24.520       217
24.540       190
24.560       210
24.580       220
24.600       232
24.620       215
24.640       247
24.660       285
24.680       305
24.700       395
24.720       595
24.740       715
24.760       838
24.780       838
24.800       866
24.820       855
24.840       820
24.860       805
24.880       843
24.900       910
24.920       865
24.940       835
24.960       795
24.980       836
25.000       885
25.020       848
25.040       820
25.060       870
25.080       906
25.100       858
25.120       883
25.140      1023
25.160       985
25.180       900
25.200       953
25.220       991
25.240       995
25.260      1076
25.280      1048
25.300      1143
25.320      1188
25.340      1288
25.360      1603
25.380      2321
25.400      3452
25.420      5058
25.440      7046
25.460      9166
25.480     10801
25.500     12492
25.520     16288
25.540     38723
25.560    113028
25.580    164074
25.600    177261
25.620    173606
25.640    135866
25.660    110506
25.680     96570
25.700     54093
25.720     18896
25.740     11535
25.760      8990
25.780      6647
25.800      4718
25.820      3677
25.840      2766
25.860      1926
25.880      1619
25.900      1396
25.920      1351
25.940      1281
25.960      1140
25.980      1221
26.000      1128
26.020      1055
26.040      1021
26.060       953
26.080       948
26.100       938
26.120       998
26.140       888
26.160       860
26.180       878
26.200       721
26.220       821
26.240       786
26.260       753
26.280       711
26.300       741
26.320       698
26.340       728
26.360       816
26.380       765
26.400       653
26.420       728
26.440       720
26.460       805
26.480       680
26.500       686
26.520       655
26.540       646
26.560       673
26.580       688
26.600       603
26.620       603
26.640       655
26.660       668
26.680       633
26.700       651
26.720       631
26.740       623
26.760       631
26.780       645
26.800       571
26.820       631
26.840       623
26.860       585
26.880       586
26.900       550
26.920       566
26.940       583
26.960       573
26.980       540
27.000       551
27.020       603
27.040       520
27.060       626
27.080       525
27.100       546
27.120       548
27.140       518
27.160       525
27.180       543
27.200       570
27.220       540
27.240       503
27.260       580
27.280       506
27.300       550
27.320       458
27.340       468
27.360       511
27.380       458
27.400       543
27.420       483
27.440       596
27.460       550
27.480       558
27.500       526
27.520       508
27.540       466
27.560       540
27.580       515
27.600       488
27.620       481
27.640       493
27.660       470
27.680       505
27.700       460
27.720       478
27.740       491
27.760       476
27.780       490
27.800       443
27.820       526
27.840       458
27.860       496
27.880       528
27.900       451
27.920       465
27.940       521
27.960       446
27.980       453
28.000       453
28.020       470
28.040       365
28.060       435
28.080       453
28.100       440
28.120       495
28.140       445
28.160       431
28.180       458
28.200       441
28.220       428
28.240       428
28.260       417
28.280       473
28.300       480
28.320       425
28.340       415
28.360       438
28.380       402
28.400       476
28.420       481
28.440       448
28.460       471
28.480       377
28.500       440
28.520       417
28.540       461
28.560       425
28.580       363
28.600       380
28.620       410
28.640       417
28.660       318
28.680       372
28.700       455
28.720       382
28.740       435
28.760       343
28.780       435
28.800       410
28.820       373
28.840       383
28.860       407
28.880       377
28.900       378
28.920       352
28.940       408
28.960       363
28.980       420
29.000       407
29.020       372
29.040       397
29.060       426
29.080       383
29.100       370
29.120       382
29.140       363
29.160       328
29.180       373
29.200       377
29.220       373
29.240       345
29.260       367
29.280       357
29.300       300
29.320       408
29.340       345
29.360       348
29.380       367
29.400       372
29.420       383
29.440       358
29.460       338
29.480       348
29.500       362
29.520       342
29.540       323
29.560       372
29.580       312
29.600       373
29.620       325
29.640       332
29.660       332
29.680       372
29.700       350
29.720       328
29.740       362
29.760       347
29.780       342
29.800       378
29.820       343
29.840       323
29.860       318
29.880       370
29.900       310
29.920       332
29.940       312
29.960       283
29.980       360
30.000       318
30.020       302
30.040       302
30.060       338
30.080       343
30.100       335
30.120       307
30.140       335
30.160       302
30.180       323
30.200       345
30.220       302
30.240       327
30.260       290
30.280       320
30.300       272
30.320       287
30.340       307
30.360       293
30.380       300
30.400       265
30.420       285
30.440       282
30.460       290
30.480       295
30.500       293
30.520       302
30.540       292
30.560       265
30.580       263
30.600       287
30.620       303
30.640       297
30.660       295
30.680       298
30.700       275
30.720       283
30.740       263
30.760       290
30.780       278
30.800       265
30.820       292
30.840       277
30.860       250
30.880       275
30.900       275
30.920       302
30.940       267
30.960       280
30.980       268
31.000       265
31.020       283
31.040       268
31.060       283
31.080       288
31.100       265
31.120       253
31.140       252
31.160       262
31.180       260
31.200       288
31.220       280
31.240       263
31.260       237
31.280       290
31.300       240
31.320       210
31.340       225
31.360       253
31.380       250
31.400       242
31.420       228
31.440       252
31.460       265
31.480       248
31.500       222
31.520       268
31.540       215
31.560       248
31.580       233
31.600       243
31.620       260
31.640       223
31.660       223
31.680       250
31.700       228
31.720       230
31.740       247
31.760       187
31.780       228
31.800       208
31.820       212
31.840       202
31.860       220
31.880       235
31.900       240
31.920       190
31.940       225
31.960       215
31.980       187
32.000       197
32.020       232
32.040       207
32.060       215
32.080       193
32.100       215
32.120       198
32.140       198
32.160       243
32.180       175
32.200       225
32.220       195
32.240       195
32.260       232
32.280       193
32.300       207
32.320       197
32.340       195
32.360       225
32.380       200
32.400       187
32.420       182
32.440       172
32.460       168
32.480       202
32.500       198
32.520       182
32.540       193
32.560       237
32.580       197
32.600       207
32.620       185
32.640       223
32.660       147
32.680       190
32.700       167
32.720       210
32.740       170
32.760       162
32.780       188
32.800       198
32.820       185
32.840       183
32.860       192
32.880       187
32.900       150
32.920       163
32.940       193
32.960       167
32.980       162
33.000       153
33.020       148
33.040       168
33.060       153
33.080       185
33.100       168
33.120       160
33.140       193
33.160       158
33.180       168
33.200       170
33.220       165
33.240       140
33.260       150
33.280       188
33.300       162
33.320       167
33.340       165
33.360       177
33.380       158
33.400       187
33.420       167
33.440       210
33.460       147
33.480       175
33.500       183
33.520       157
33.540       182
33.560       133
33.580       168
33.600       158
33.620       173
33.640       155
33.660       172
33.680       167
33.700       148
33.720       137
33.740       155
33.760       170
33.780       148
33.800       153
33.820       155
33.840       147
33.860       142
33.880       142
33.900       143
33.920       127
33.940       115
33.960       123
33.980       172
34.000       130
34.020       177
34.040       153
34.060       118
34.080       135
34.100       105
34.120       135
34.140       145
34.160       145
34.180       128
34.200       145
34.220       120
34.240       127
34.260       157
34.280       123
34.300       132
34.320       162
34.340       147
34.360       133
34.380       117
34.400       138
34.420       105
34.440       135
34.460       110
34.480       158
34.500       123
34.520       118
34.540       142
34.560       130
34.580       125
34.600       128
34.620       137
34.640       123
34.660       107
34.680       117
34.700       140
34.720       140
34.740       122
34.760       120
34.780       137
34.800       127
34.820       107
34.840       120
34.860       113
34.880       140
34.900       138
34.920       123
34.940       133
34.960       113
34.980       105
35.000        97
35.020       113
35.040       142
35.060       123
35.080       120
35.100       102
35.120        93
35.140       115
35.160        93
35.180       130
35.200       120
35.220       110
35.240       117
35.260       105
35.280       118
35.300       110
35.320       112
35.340       125
35.360       112
35.380        92
35.400       110
35.420       110
35.440       115
35.460       123
35.480       127
35.500       105
35.520       108
35.540        88
35.560       118
35.580       105
35.600       108
35.620       117
35.640        97
35.660        92
35.680       107
35.700       110
35.720       113
35.740        93
35.760        92
35.780        98
35.800       105
35.820       122
35.840        90
35.860        98
35.880        92
35.900       108
35.920       125
35.940        87
35.960        93
35.980        95
36.000       110
36.020       108
36.040        92
36.060        93
36.080       103
36.100       115
36.120       103
36.140        97
36.160       103
36.180        82
36.200       100
36.220       112
36.240        90
36.260        93
36.280       102
36.300        95
36.320        95
36.340       112
36.360        73
36.380       107
36.400       108
36.420        90
36.440        97
36.460        93
36.480        87
36.500        98
36.520        98
36.540        92
36.560        82
36.580        92
36.600        87
36.620       110
36.640        88
36.660        90
36.680       102
36.700        85
36.720        95
36.740        98
36.760       108
36.780        95
36.800        98
36.820        93
36.840       115
36.860       113
36.880        78
36.900        88
36.920        83
36.940        90
36.960        78
36.980        70
37.000        60
37.020        93
37.040        87
37.060        92
37.080        88
37.100        67
37.120        77
37.140       102
37.160        73
37.180        70
37.200        82
37.220       100
37.240        57
37.260        88
37.280       100
37.300        77
37.320        60
37.340        67
37.360        83
37.380        85
37.400        87
37.420        77
37.440        67
37.460        92
37.480        85
37.500        82
37.520        87
37.540        88
37.560        90
37.580        63
37.600        72
37.620        83
37.640        75
37.660        72
37.680        58
37.700        72
37.720        73
37.740        67
37.760        97
37.780        78
37.800        92
37.820        67
37.840        77
37.860        93
37.880        77
37.900        58
37.920        47
37.940        78
37.960        75
37.980        65
38.000        68
38.020        78
38.040        85
38.060        67
38.080        82
38.100        75
38.120        58
38.140        63
38.160        63
38.180        77
38.200        58
38.220        72
38.240        63
38.260        65
38.280        65
38.300        70
38.320        63
38.340        68
38.360        80
38.380        58
38.400        92
38.420        48
38.440        58
38.460        77
38.480        97
38.500        73
38.520        78
38.540        78
38.560        63
38.580        92
38.600        78
38.620        78
38.640        60
38.660        68
38.680        90
38.700        60
38.720        75
38.740        63
38.760        63
38.780        52
38.800        50
38.820        53
38.840        67
38.860        68
38.880        67
38.900        57
38.920        60
38.940        57
38.960        65
38.980        58
39.000        60
39.020        50
39.040        73
39.060        57
39.080        48
39.100        58
39.120        55
39.140        70
39.160        77
39.180        60
39.200        70
39.220        63
39.240        50
39.260        52
39.280        38
39.300        58
39.320        73
39.340        58
39.360        87
39.380        65
39.400        58
39.420        48
39.440        47
39.460        77
39.480        57
39.500        67
39.520        65
39.540        57
39.560        57
39.580        60
39.600        62
39.620        53
39.640        85
39.660        45
39.680        60
39.700        63
39.720        38
39.740        73
39.760        58
39.780        72
39.800        68
39.820        55
39.840        82
39.860        53
39.880        63
39.900        55
39.920        53
39.940        52
39.960        55
39.980        67
40.000        33
40.020        45
40.040        58
40.060        52
40.080        62
40.100        65
40.120        53
40.140        70
40.160        50
40.180        50
40.200        55
40.220        43
40.240        42
40.260        57
40.280        55
40.300        53
40.320        60
40.340        57
40.360        53
40.380        50
40.400        63
40.420        45
40.440        47
40.460        48
40.480        52
40.500        53
40.520        55
40.540        45
40.560        58
40.580        47
40.600        58
40.620        43
40.640        50
40.660        60
40.680        65
40.700        48
40.720        63
40.740        58
40.760        47
40.780        57
40.800        42
40.820        38
40.840        55
40.860        55
40.880        63
40.900        55
40.920        58
40.940        43
40.960        35
40.980        67
41.000        57
41.020        37
41.040        45
41.060        50
41.080        48
41.100        58
41.120        58
41.140        40
41.160        52
41.180        67
41.200        52
41.220        62
41.240        53
41.260        52
41.280        58
41.300        45
41.320        42
41.340        47
41.360        55
41.380        32
41.400        63
41.420        58
41.440        53
41.460        62
41.480        42
41.500        53
41.520        35
41.540        48
41.560        57
41.580        43
41.600        53
41.620        33
41.640        52
41.660        57
41.680        55
41.700        55
41.720        32
41.740        57
41.760        48
41.780        48
41.800        53
41.820        52
41.840        43
41.860        58
41.880        50
41.900        63
41.920        65
41.940        63
41.960        50
41.980        27
42.000        38
42.020        45
42.040        32
42.060        47
42.080        45
42.100        58
42.120        57
42.140        48
42.160        35
42.180        33
42.200        42
42.220        52
42.240        52
42.260        52
42.280        47
42.300        48
42.320        50
42.340        35
42.360        55
42.380        60
42.400        53
42.420        43
42.440        42
42.460        45
42.480        50
42.500        42
42.520        55
42.540        43
42.560        38
42.580        43
42.600        47
42.620        37
42.640        40
42.660        48
42.680        37
42.700        38
42.720        52
42.740        45
42.760        38
42.780        35
42.800        35
42.820        50
42.840        48
42.860        48
42.880        52
42.900        70
42.920        52
42.940        33
42.960        45
42.980        30
43.000        52
43.020        52
43.040        50
43.060        42
43.080        42
43.100        50
43.120        37
43.140        47
43.160        53
43.180        52
43.200        55
43.220        35
43.240        52
43.260        28
43.280        40
43.300        35
43.320        48
43.340        45
43.360        35
43.380        33
43.400        38
43.420        30
43.440        40
43.460        55
43.480        33
43.500        40
43.520        47
43.540        62
43.560        33
43.580        53
43.600        48
43.620        35
43.640        47
43.660        40
43.680        45
43.700        48
43.720        45
43.740        38
43.760        52
43.780        42
43.800        57
43.820        33
43.840        48
43.860        47
43.880        37
43.900        57
43.920        50
43.940        47
43.960        43
43.980        43
44.000        25
44.020        53
44.040        45
44.060        45
44.080        45
44.100        43
44.120        40
44.140        32
44.160        42
44.180        45
44.200        50
44.220        42
44.240        40
44.260        37
44.280        52
44.300        58
44.320        38
44.340        52
44.360        37
44.380        37
44.400        35
44.420        43
44.440        38
44.460        45
44.480        52
44.500        32
44.520        38
44.540        50
44.560        38
44.580        60
44.600        43
44.620        43
44.640        42
44.660        43
44.680        43
44.700        30
44.720        38
44.740        47
44.760        52
44.780        40
44.800        42
44.820        47
44.840        42
44.860        42
44.880        25
44.900        37
44.920        47
44.940        42
44.960        38
44.980        38
45.000        47
45.020        45
45.040        38
45.060        63
45.080        45
45.100        47
45.120        60
45.140        37
45.160        35
45.180        32
45.200        48
45.220        37
45.240        35
45.260        48
45.280        27
45.300        57
45.320        52
45.340        32
45.360        43
45.380        32
45.400        28
45.420        30
45.440        38
45.460        43
45.480        35
45.500        47
45.520        38
45.540        27
45.560        53
45.580        43
45.600        50
45.620        23
45.640        35
45.660        27
45.680        38
45.700        33
45.720        43
45.740        40
45.760        47
45.780        43
45.800        28
45.820        42
45.840        38
45.860        42
45.880        38
45.900        38
45.920        40
45.940        38
45.960        30
45.980        47
46.000        42
46.020        42
46.040        48
46.060        42
46.080        30
46.100        53
46.120        42
46.140        32
46.160        50
46.180        33
46.200        43
46.220        37
46.240        45
46.260        43
46.280        42
46.300        48
46.320        38
46.340        47
46.360        57
46.380        57
46.400        55
46.420        47
46.440        28
46.460        40
46.480        50
46.500        40
46.520        48
46.540        30
46.560        55
46.580        47
46.600        50
46.620        30
46.640        57
46.660        40
46.680        43
46.700        48
46.720        62
46.740        72
46.760        68
46.780        73
46.800        90
46.820        78
46.840        80
46.860        67
46.880        57
46.900        68
46.920        67
46.940        87
46.960        98
46.980        93
47.000        80
47.020       115
47.040       102
47.060       123
47.080       158
47.100       193
47.120       373
47.140       751
47.160      1108
47.180      1389
47.200      1288
47.220       908
47.240       533
47.260       280
47.280       165
47.300       113
47.320       135
47.340       120
47.360       110
47.380       113
47.400        85
47.420        87
47.440        80
47.460        87
47.480        70
47.500        85
47.520        93
47.540        70
47.560        58
47.580        68
47.600        98
47.620        82
47.640        82
47.660        58
47.680        42
47.700        78
47.720        80
47.740        67
47.760        63
47.780        60
47.800        48
47.820        68
47.840        72
47.860        75
47.880        63
47.900        57
47.920        53
47.940        62
47.960        43
47.980        67
48.000        48
48.020        58
48.040        40
48.060        72
48.080        58
48.100        43
48.120        62
48.140        47
48.160        72
48.180        57
48.200        40
48.220        68
48.240        45
48.260        60
48.280        60
48.300        65
48.320        53
48.340        50
48.360        52
48.380        52
48.400        48
48.420        33
48.440        50
48.460        37
48.480        53
48.500        55
48.520        67
48.540        52
48.560        47
48.580        53
48.600        45
48.620        38
48.640        43
48.660        38
48.680        52
48.700        58
48.720        75
48.740        52
48.760        47
48.780        53
48.800        62
48.820        53
48.840        33
48.860        48
48.880        57
48.900        57
48.920        48
48.940        40
48.960        53
48.980        42
49.000        42
49.020        23
49.040        50
49.060        35
49.080        38
49.100        53
49.120        42
49.140        47
49.160        47
49.180        53
49.200        42
49.220        52
49.240        58
49.260        42
49.280        43
49.300        40
49.320        42
49.340        45
49.360        43
49.380        42
49.400        53
49.420        48
49.440        45
49.460        37
49.480        43
49.500        42
49.520        50
49.540        43
49.560        45
49.580        32
49.600        47
49.620        55
49.640        37
49.660        47
49.680        52
49.700        47
49.720        55
49.740        55
49.760        58
49.780        47
49.800        50
49.820        48
49.840        53
49.860        47
49.880        70
49.900        42
49.920        42
49.940        62
49.960        48
49.980        43
50.000        43
50.020        52
50.040        43
50.060        40
50.080        27
50.100        55
50.120        48
50.140        48
50.160        40
50.180        43
50.200        37
50.220        45
50.240        43
50.260        45
50.280        48
50.300        55
50.320        50
50.340        52
50.360        42
50.380        47
50.400        43
50.420        53
50.440        37
50.460        52
50.480        50
50.500        52
50.520        52
50.540        78
50.560        67
50.580        83
50.600        88
50.620       120
50.640       182
50.660       263
50.680       288
50.700       330
50.720       335
50.740       377
50.760       365
50.780       382
50.800       357
50.820       320
50.840       426
50.860       347
50.880       325
50.900       363
50.920       382
50.940       418
50.960       382
50.980       345
51.000       382
51.020       407
51.040       337
51.060       372
51.080       377
51.100       460
51.120       330
51.140       402
51.160       367
51.180       390
51.200       397
51.220       407
51.240       417
51.260       385
51.280       392
51.300       402
51.320       408
51.340       390
51.360       410
51.380       367
51.400       378
51.420       435
51.440       410
51.460       397
51.480       395
51.500       405
51.520       380
51.540       388
51.560       438
51.580       456
51.600       426
51.620       412
51.640       402
51.660       493
51.680       436
51.700       417
51.720       470
51.740       473
51.760       378
51.780       461
51.800       506
51.820       465
51.840       443
51.860       496
51.880       466
51.900       496
51.920       490
51.940       451
51.960       485
51.980       498
52.000       543
52.020       570
52.040       690
52.060       651
52.080       668
52.100       668
52.120       778
52.140       788
52.160       851
52.180       860
52.200       950
52.220      1028
52.240      1213
52.260      1531
52.280      1773
52.300      2329
52.320      3072
52.340      3364
52.360      4070
52.380      4825
52.400      5881
52.420      6874
52.440      8495
52.460     10596
52.480     14549
52.500     23392
52.520     51444
52.540    109876
52.560    154668
52.580    167091
52.600    144539
52.620     84513
52.640     41360
52.660     41030
52.680     68034
52.700     92984
52.720     98979
52.740     83918
52.760     47323
52.780     20075
52.800     10301
52.820      7079
52.840      5988
52.860      5055
52.880      4055
52.900      3054
52.920      2081
52.940      1706
52.960      1531
52.980      1381
53.000      1283
53.020      1078
53.040      1003
53.060       895
53.080       893
53.100       866
53.120       871
53.140       786
53.160       775
53.180       741
53.200       623
53.220       696
53.240       671
53.260       711
53.280       626
53.300       641
53.320       530
53.340       553
53.360       598
53.380       521
53.400       521
53.420       468
53.440       536
53.460       508
53.480       520
53.500       468
53.520       541
53.540       473
53.560       430
53.580       375
53.600       450
53.620       413
53.640       387
53.660       433
53.680       431
53.700       373
53.720       397
53.740       387
53.760       415
53.780       375
53.800       373
53.820       365
53.840       373
53.860       350
53.880       372
53.900       358
53.920       370
53.940       333
53.960       358
53.980       338
54.000       348
54.020       352
54.040       352
54.060       305
54.080       295
54.100       318
54.120       327
54.140       313
54.160       288
54.180       252
54.200       312
54.220       310
54.240       363
54.260       297
54.280       333
54.300       305
54.320       287
54.340       278
54.360       282
54.380       310
54.400       307
54.420       298
54.440       287
54.460       298
54.480       268
54.500       313
54.520       270
54.540       272
54.560       290
54.580       257
54.600       325
54.620       287
54.640       297
54.660       247
54.680       277
54.700       278
54.720       223
54.740       320
54.760       300
54.780       285
54.800       243
54.820       285
54.840       260
54.860       300
54.880       287
54.900       292
54.920       230
54.940       255
54.960       268
54.980       250
55.000       268
55.020       310
55.040       267
55.060       272
55.080       233
55.100       222
55.120       232
55.140       267
55.160       227
55.180       263
55.200       242
55.220       267
55.240       170
55.260       228
55.280       258
55.300       288
55.320       285
55.340       258
55.360       247
55.380       212
55.400       260
55.420       260
55.440       268
55.460       230
55.480       267
55.500       227
55.520       220
55.540       210
55.560       197
55.580       220
55.600       225
55.620       200
55.640       257
55.660       230
55.680       233
55.700       213
55.720       237
55.740       218
55.760       200
55.780       222
55.800       240
55.820       223
55.840       205
55.860       197
55.880       223
55.900       230
55.920       208
55.940       225
55.960       218
55.980       242
56.000       213
56.020       183
56.040       202
56.060       230
56.080       227
56.100       195
56.120       202
56.140       233
56.160       243
56.180       195
56.200       177
56.220       218
56.240       228
56.260       205
56.280       217
56.300       210
56.320       198
56.340       223
56.360       205
56.380       197
56.400       247
56.420       220
56.440       183
56.460       217
56.480       180
56.500       183
56.520       237
56.540       175
56.560       220
56.580       167
56.600       185
56.620       192
56.640       228
56.660       252
56.680       197
56.700       192
56.720       202
56.740       220
56.760       195
56.780       205
56.800       210
56.820       185
56.840       213
56.860       182
56.880       188
56.900       200
56.920       172
56.940       225
56.960       155
56.980       198
57.000       207
57.020       197
57.040       172
57.060       192
57.080       190
57.100       160
57.120       182
57.140       170
57.160       212
57.180       182
57.200       207
57.220       163
57.240       200
57.260       195
57.280       160
57.300       137
57.320       190
57.340       177
57.360       198
57.380       173
57.400       188
57.420       177
57.440       177
57.460       183
57.480       173
57.500       163
57.520       192
57.540       185
57.560       165
57.580       138
57.600       198
57.620       195
57.640       187
57.660       183
57.680       178
57.700       142
57.720       208
57.740       153
57.760       185
57.780       175
57.800       175
57.820       152
57.840       162
57.860       213
57.880       167
57.900       178
57.920       178
57.940       173
57.960       190
57.980       173
58.000       182
58.020       185
58.040       155
58.060       145
58.080       192
58.100       138
58.120       153
58.140       167
58.160       157
58.180       183
58.200       152
58.220       153
58.240       147
58.260       163
58.280       182
58.300       147
58.320       177
58.340       140
58.360       137
58.380       143
58.400       182
58.420       158
58.440       187
58.460       157
58.480       173
58.500       150
58.520       160
58.540       173
58.560       153
58.580       150
58.600       143
58.620       130
58.640       152
58.660       140
58.680       152
58.700       147
58.720       158
58.740       145
58.760       148
58.780       155
58.800       120
58.820       140
58.840       145
58.860       143
58.880       165
58.900       153
58.920       182
58.940       168
58.960       162
58.980       130
59.000       167
59.020       170
59.040       167
59.060       153
59.080       127
59.100       147
59.120       122
59.140       143
59.160       123
59.180       167
59.200       195
59.220       150
59.240       140
59.260       120
59.280       158
59.300       153
59.320       128
59.340       157
59.360       115
59.380       132
59.400       135
59.420       160
59.440       145
59.460       132
59.480       140
59.500       130
59.520       118
59.540       120
59.560       187
59.580       143
59.600       155
59.620       157
59.640       117
59.660       153
59.680       157
59.700       130
59.720       130
59.740        98
59.760       122
59.780       162
59.800       157
59.820       128
59.840       130
59.860       147
59.880       143
59.900         0
59.920         2
59.940         0
59.960         0
59.980         2
60.000         2
