20.000         0
20.020         0
20.040         0
20.060       267
20.080       913
20.100       870
20.120       753
20.140       860
20.160       823
20.180       756
20.200       886
20.220       983
20.240       746
20.260       766
20.280       833
20.300       796
20.320       850
20.340       770
20.360       906
20.380       793
20.400       813
20.420       830
20.440       896
20.460       796
20.480       756
20.500       866
20.520       816
20.540       806
20.560       790
20.580       883
20.600       833
20.620       766
20.640       810
20.660       890
20.680       836
20.700       890
20.720       813
20.740       900
20.760       806
20.780       890
20.800       853
20.820       920
20.840       900
20.860       766
20.880       770
20.900       826
20.920       833
20.940       950
20.960       943
20.980       866
21.000       903
21.020      1023
21.040       913
21.060       936
21.080       976
21.100       943
21.120       923
21.140      1000
21.160      1090
21.180      1013
21.200      1026
21.220      1086
21.240      1023
21.260       970
21.280      1006
21.300      1100
21.320      1040
21.340      1026
21.360      1130
21.380      1143
21.400      1283
21.420      1183
21.440      1073
21.460      1040
21.480       996
21.500      1113
21.520       916
21.540       983
21.560       746
21.580       850
21.600       873
21.620       793
21.640       886
21.660       806
21.680       966
21.700       953
21.720       973
21.740       910
21.760       906
21.780       893
21.800       990
21.820      1026
21.840      1156
21.860      1216
21.880      1086
21.900      1083
21.920      1203
21.940      1056
21.960      1020
21.980      1196
22.000       976
22.020       916
22.040       980
22.060       886
22.080      1053
22.100       916
22.120       960
22.140       823
22.160       963
22.180       783
22.200       836
22.220       790
22.240       796
22.260       793
22.280       730
22.300       783
22.320       716
22.340       846
22.360       776
22.380       723
22.400       736
22.420       733
22.440       643
22.460       760
22.480       603
22.500       716
22.520       663
22.540       710
22.560       710
22.580       720
22.600       750
22.620       736
22.640       756
22.660       663
22.680       696
22.700       680
22.720       680
22.740       730
22.760       670
22.780       646
22.800       656
22.820       696
22.840       653
22.860       826
22.880       780
22.900       783
22.920       796
22.940       710
22.960       770
22.980       786
23.000       693
23.020       773
23.040       806
23.060       920
23.080       773
23.100       770
23.120       736
23.140       733
23.160       616
23.180       753
23.200       723
23.220       683
23.240       763
23.260       676
23.280       670
23.300       643
23.320       690
23.340       690
23.360       603
23.380       560
23.400       643
23.420       680
23.440       756
23.460       716
23.480       620
23.500       636
23.520       710
23.540       680
23.560       676
23.580       706
23.600       770
23.620       770
23.640       786
23.660       733
23.680       740
23.700       716
23.720       670
23.740       640
23.760       670
23.780       700
23.800       706
23.820       706
23.840       703
23.860       610
23.880       696
23.900       663
23.920       650
23.940       616
23.960       663
23.980       626
24.000       596
24.020       640
24.040       666
24.060       610
24.080       630
24.100       613
24.120       673
24.140       596
24.160       600
24.180       560
24.200       553
24.220       630
24.240       603
24.260       630
24.280       613
24.300       666
24.320       620
24.340       736
24.360       620
24.380       603
24.400       610
24.420       653
24.440       696
24.460       646
24.480       633
24.500       680
24.520       656
24.540       640
24.560       720
24.580       756
24.600       776
24.620       770
24.640       870
24.660       916
24.680       920
24.700       973
24.720      1053
24.740       976
24.760      1173
24.780      1243
24.800      1343
24.820      1489
24.840      1463
24.860      1389
24.880      1323
24.900      1336
24.920      1379
24.940      1319
24.960      1256
24.980      1166
25.000      1016
25.020       940
25.040       790
25.060       686
25.080       753
25.100       630
25.120       676
25.140       683
25.160       613
25.180       640
25.200       590
25.220       550
25.240       606
25.260       596
25.280       526
25.300       543
25.320       570
25.340       570
25.360       513
25.380       583
25.400       516
25.420       600
25.440       650
25.460       573
25.480       513
25.500       566
25.520       550
25.540       563
25.560       580
25.580       510
25.600       573
25.620       546
25.640       570
25.660       633
25.680       503
25.700       533
25.720       566
25.740       570
25.760       533
25.780       536
25.800       576
25.820       596
25.840       580
25.860       553
25.880       470
25.900       520
25.920       593
25.940       570
25.960       550
25.980       596
26.000       633
26.020       520
26.040       566
26.060       636
26.080       610
26.100       600
26.120       590
26.140       556
26.160       563
26.180       476
26.200       533
26.220       590
26.240       570
26.260       593
26.280       623
26.300       583
26.320       560
26.340       610
26.360       576
26.380       590
26.400       570
26.420       493
26.440       556
26.460       540
26.480       543
26.500       556
26.520       593
26.540       560
26.560       540
26.580       600
26.600       663
26.620       563
26.640       523
26.660       590
26.680       573
26.700       563
26.720       596
26.740       630
26.760       620
26.780       583
26.800       526
26.820       606
26.840       606
26.860       570
26.880       576
26.900       620
26.920       510
26.940       423
26.960       506
26.980       433
27.000       480
27.020       510
27.040       480
27.060       553
27.080       500
27.100       450
27.120       480
27.140       460
27.160       513
27.180       573
27.200       520
27.220       516
27.240       493
27.260       550
27.280       496
27.300       540
27.320       473
27.340       583
27.360       550
27.380       490
27.400       520
27.420       520
27.440       500
27.460       586
27.480       546
27.500       483
27.520       510
27.540       463
27.560       523
27.580       470
27.600       556
27.620       563
27.640       463
27.660       523
27.680       526
27.700       440
27.720       516
27.740       593
27.760       556
27.780       483
27.800       556
27.820       460
27.840       493
27.860       476
27.880       496
27.900       516
27.920       746
27.940       553
27.960       583
27.980       683
28.000       633
28.020       616
28.040       633
28.060       676
28.080       556
28.100       660
28.120       543
28.140       583
28.160       520
28.180       503
28.200       503
28.220       550
28.240       543
28.260       546
28.280       516
28.300       443
28.320       570
28.340       580
28.360       546
28.380       520
28.400       590
28.420       490
28.440       430
28.460       500
28.480       570
28.500       586
28.520       566
28.540       540
28.560       516
28.580       546
28.600       560
28.620       466
28.640       463
28.660       513
28.680       546
28.700       493
28.720       496
28.740       513
28.760       526
28.780       566
28.800       696
28.820       516
28.840       583
28.860       540
28.880       613
28.900       640
28.920       573
28.940       623
28.960       646
28.980       660
29.000       776
29.020       816
29.040       760
29.060       930
29.080       940
29.100       903
29.120       933
29.140      1090
29.160      1136
29.180      1196
29.200      1226
29.220      1466
29.240      1619
29.260      1726
29.280      1889
29.300      1829
29.320      2216
29.340      2312
29.360      2479
29.380      2339
29.400      2422
29.420      2462
29.440      2219
29.460      2036
29.480      1856
29.500      1506
29.520      1086
29.540      1040
29.560       836
29.580       736
29.600       606
29.620       573
29.640       560
29.660       540
29.680       436
29.700       563
29.720       516
29.740       520
29.760       476
29.780       506
29.800       473
29.820       543
29.840       490
29.860       480
29.880       470
29.900       493
29.920       496
29.940       460
29.960       503
29.980       480
30.000       460
30.020       496
30.040       503
30.060       476
30.080       480
30.100       506
30.120       473
30.140       516
30.160       433
30.180       480
30.200       483
30.220       496
30.240       530
30.260       440
30.280       453
30.300       450
30.320       436
30.340       443
30.360       530
30.380       413
30.400       523
30.420       466
30.440       516
30.460       536
30.480       496
30.500       426
30.520       423
30.540       443
30.560       430
30.580       476
30.600       453
30.620       466
30.640       460
30.660       420
30.680       466
30.700       503
30.720       500
30.740       503
30.760       463
30.780       483
30.800       463
30.820       480
30.840       417
30.860       440
30.880       430
30.900       510
30.920       493
30.940       503
30.960       410
30.980       590
31.000       480
31.020       456
31.040       420
31.060       490
31.080       516
31.100       593
31.120       560
31.140       536
31.160       516
31.180       536
31.200       543
31.220       493
31.240       460
31.260       470
31.280       466
31.300       490
31.320       530
31.340       523
31.360       470
31.380       466
31.400       576
31.420       576
31.440       493
31.460       563
31.480       540
31.500       480
31.520       513
31.540       456
31.560       480
31.580       506
31.600       506
31.620       496
31.640       390
31.660       450
31.680       480
31.700       483
31.720       436
31.740       466
31.760       423
31.780       450
31.800       483
31.820       460
31.840       446
31.860       443
31.880       483
31.900       453
31.920       453
31.940       500
31.960       360
31.980       440
32.000       540
32.020       523
32.040       423
32.060       546
32.080       426
32.100       516
32.120       407
32.140       480
32.160       476
32.180       420
32.200       483
32.220       470
32.240       463
32.260       506
32.280       503
32.300       490
32.320       530
32.340       423
32.360       496
32.380       493
32.400       503
32.420       530
32.440       510
32.460       523
32.480       490
32.500       367
32.520       520
32.540       510
32.560       460
32.580       486
32.600       490
32.620       493
32.640       443
32.660       470
32.680       423
32.700       466
32.720       410
32.740       526
32.760       440
32.780       426
32.800       490
32.820       473
32.840       536
32.860       493
32.880       516
32.900       560
32.920       583
32.940       660
32.960       606
32.980       510
33.000       496
33.020       610
33.040       616
33.060       543
33.080       490
33.100       493
33.120       450
33.140       390
33.160       496
33.180       480
33.200       493
33.220       553
33.240       496
33.260       456
33.280       453
33.300       500
33.320       423
33.340       456
33.360       483
33.380       473
33.400       493
33.420       486
33.440       460
33.460       433
33.480       473
33.500       426
33.520       496
33.540       397
33.560       453
33.580       460
33.600       440
33.620       436
33.640       407
33.660       440
33.680       426
33.700       407
33.720       453
33.740       433
33.760       473
33.780       440
33.800       456
33.820       417
33.840       360
33.860       493
33.880       466
33.900       503
33.920       436
33.940       433
33.960       480
33.980       446
34.000       453
34.020       493
34.040       473
34.060       470
34.080       450
34.100       470
34.120       480
34.140       583
34.160       490
34.180       520
34.200       390
34.220       460
34.240       436
34.260       456
34.280       383
34.300       430
34.320       453
34.340       476
34.360       506
34.380       463
34.400       423
34.420       530
34.440       436
34.460       453
34.480       473
34.500       473
34.520       426
34.540       526
34.560       476
34.580       516
34.600       483
34.620       470
34.640       473
34.660       506
34.680       470
34.700       426
34.720       513
34.740       556
34.760       473
34.780       556
34.800       463
34.820       573
34.840       536
34.860       546
34.880       573
34.900       563
34.920       443
34.940       523
34.960       463
34.980       540
35.000       510
35.020       536
35.040       600
35.060       523
35.080       576
35.100       443
35.120       417
35.140       530
35.160       533
35.180       453
35.200       510
35.220       510
35.240       520
35.260       496
35.280       506
35.300       493
35.320       516
35.340       466
35.360       576
35.380       443
35.400       540
35.420       566
35.440       533
35.460       593
35.480       460
35.500       643
35.520       520
35.540       596
35.560       563
35.580       503
35.600       626
35.620       573
35.640       513
35.660       553
35.680       650
35.700       546
35.720       623
35.740       613
35.760       566
35.780       656
35.800       750
35.820       716
35.840       706
35.860       706
35.880       796
35.900       850
35.920       780
35.940       790
35.960       770
35.980       803
36.000       840
36.020       826
36.040       783
36.060       656
36.080       540
36.100       650
36.120       560
36.140       593
36.160       536
36.180       496
36.200       506
36.220       500
36.240       460
36.260       486
36.280       506
36.300       443
36.320       576
36.340       433
36.360       453
36.380       513
36.400       560
36.420       463
36.440       500
36.460       563
36.480       463
36.500       473
36.520       480
36.540       530
36.560       546
36.580       543
36.600       583
36.620       513
36.640       500
36.660       576
36.680       510
36.700       520
36.720       440
36.740       553
36.760       387
36.780       456
36.800       546
36.820       506
36.840       460
36.860       466
36.880       480
36.900       423
36.920       486
36.940       480
36.960       470
36.980       533
37.000       433
37.020       520
37.040       436
37.060       473
37.080       377
37.100       483
37.120       560
37.140       466
37.160       540
37.180       570
37.200       510
37.220       520
37.240       466
37.260       433
37.280       480
37.300       510
37.320       430
37.340       533
37.360       470
37.380       546
37.400       546
37.420       580
37.440       543
37.460       476
37.480       530
37.500       496
37.520       593
37.540       546
37.560       500
37.580       546
37.600       596
37.620       543
37.640       596
37.660       510
37.680       493
37.700       620
37.720       593
37.740       636
37.760       690
37.780       670
37.800       556
37.820       620
37.840       686
37.860       566
37.880       466
37.900       550
37.920       530
37.940       573
37.960       596
37.980       586
38.000       540
38.020       553
38.040       543
38.060       453
38.080       643
38.100       663
38.120       613
38.140       606
38.160       596
38.180       580
38.200       660
38.220       630
38.240       663
38.260       633
38.280       716
38.300       676
38.320       643
38.340       610
38.360       646
38.380       710
38.400       603
38.420       736
38.440       723
38.460       580
38.480       573
38.500       673
38.520       700
38.540       620
38.560       616
38.580       593
38.600       676
38.620       590
38.640       540
38.660       573
38.680       536
38.700       600
38.720       533
38.740       550
38.760       540
38.780       576
38.800       563
38.820       653
38.840       616
38.860       653
38.880       613
38.900       600
38.920       620
38.940       543
38.960       640
38.980       633
39.000       593
39.020       710
39.040       603
39.060       640
39.080       713
39.100       716
39.120       936
39.140       743
39.160       840
39.180       853
39.200       920
39.220       896
39.240       860
39.260       970
39.280       803
39.300       863
39.320      1093
39.340       970
39.360       893
39.380       940
39.400       910
39.420       840
39.440       803
39.460       883
39.480       816
39.500       750
39.520       693
39.540       803
39.560       616
39.580       550
39.600       630
39.620       466
39.640       500
39.660       590
39.680       486
39.700       553
39.720       493
39.740       496
39.760       550
39.780       540
39.800       510
39.820       466
39.840       523
39.860       553
39.880       570
39.900       506
39.920       520
39.940       480
39.960       540
39.980       610
40.000       540
40.020       486
40.040       513
40.060       526
40.080       473
40.100       526
40.120       483
40.140       500
40.160       503
40.180       520
40.200       446
40.220       570
40.240       460
40.260       503
40.280       523
40.300       543
40.320       533
40.340       523
40.360       513
40.380       520
40.400       397
40.420       576
40.440       476
40.460       553
40.480       546
40.500       570
40.520       460
40.540       466
40.560       513
40.580       456
40.600       480
40.620       536
40.640       570
40.660       506
40.680       423
40.700       476
40.720       510
40.740       563
40.760       480
40.780       420
40.800       556
40.820       503
40.840       556
40.860       560
40.880       516
40.900       566
40.920       510
40.940       516
40.960       530
40.980       560
41.000       476
41.020       600
41.040       496
41.060       473
41.080       483
41.100       570
41.120       473
41.140       516
41.160       453
41.180       563
41.200       533
41.220       486
41.240       580
41.260       566
41.280       486
41.300       506
41.320       450
41.340       500
41.360       510
41.380       456
41.400       546
41.420       550
41.440       433
41.460       563
41.480       520
41.500       423
41.520       603
41.540       583
41.560       513
41.580       530
41.600       483
41.620       520
41.640       536
41.660       506
41.680       523
41.700       483
41.720       540
41.740       603
41.760       500
41.780       473
41.800       530
41.820       423
41.840       530
41.860       533
41.880       546
41.900       543
41.920       546
41.940       576
41.960       580
41.980       536
42.000       533
42.020       580
42.040       563
42.060       530
42.080       490
42.100       533
42.120       513
42.140       573
42.160       603
42.180       543
42.200       530
42.220       573
42.240       590
42.260       516
42.280       550
42.300       453
42.320       550
42.340       546
42.360       630
42.380       556
42.400       436
42.420       583
42.440       563
42.460       496
42.480       506
42.500       586
42.520       523
42.540       583
42.560       513
42.580       530
42.600       520
42.620       620
42.640       410
42.660       563
42.680       510
42.700       556
42.720       540
42.740       560
42.760       546
42.780       636
42.800       536
42.820       596
42.840       570
42.860       673
42.880       693
42.900       703
42.920       656
42.940       743
42.960       746
42.980       733
43.000       890
43.020       763
43.040       786
43.060       973
43.080       903
43.100       900
43.120      1100
43.140      1083
43.160      1066
43.180      1070
43.200      1236
43.220      1166
43.240      1339
43.260      1329
43.280      1196
43.300      1303
43.320      1323
43.340      1220
43.360      1286
43.380      1086
43.400      1070
43.420       990
43.440       956
43.460       860
43.480       896
43.500       853
43.520       863
43.540       676
43.560       716
43.580       660
43.600       613
43.620       690
43.640       676
43.660       676
43.680       770
43.700       743
43.720       740
43.740       706
43.760       733
43.780       803
43.800       816
43.820       763
43.840       706
43.860       716
43.880       650
43.900       750
43.920       683
43.940       620
43.960       676
43.980       626
44.000       713
44.020       643
44.040       700
44.060       603
44.080       680
44.100       716
44.120       690
44.140       640
44.160       676
44.180       706
44.200       693
44.220       553
44.240       693
44.260       756
44.280       723
44.300       716
44.320       733
44.340       756
44.360       803
44.380       836
44.400       806
44.420       790
44.440       873
44.460       956
44.480       996
44.500       990
44.520      1043
44.540      1070
44.560      1070
44.580      1183
44.600      1096
44.620      1246
44.640      1173
44.660      1210
44.680      1223
44.700      1230
44.720      1349
44.740      1256
44.760      1326
44.780      1293
44.800      1323
44.820      1226
44.840      1246
44.860      1279
44.880      1306
44.900      1279
44.920      1343
44.940      1369
44.960      1133
44.980      1163
45.000      1160
45.020      1090
45.040      1056
45.060      1103
45.080      1073
45.100       926
45.120      1016
45.140       916
45.160       986
45.180       946
45.200      1006
45.220       883
45.240       803
45.260       903
45.280       840
45.300       910
45.320       773
45.340       906
45.360       726
45.380       803
45.400       680
45.420       826
45.440       826
45.460       713
45.480       703
45.500       743
45.520       686
45.540       703
45.560       770
45.580       706
45.600       773
45.620       740
45.640       726
45.660       660
45.680       586
45.700       626
45.720       760
45.740       636
45.760       720
45.780       646
45.800       773
45.820       650
45.840       636
45.860       553
45.880       643
45.900       613
45.920       576
45.940       656
45.960       543
45.980       546
46.000       473
46.020       540
46.040       640
46.060       586
46.080       553
46.100       513
46.120       510
46.140       670
46.160       540
46.180       636
46.200       600
46.220       603
46.240       636
46.260       510
46.280       480
46.300       553
46.320       503
46.340       576
46.360       540
46.380       513
46.400       570
46.420       516
46.440       546
46.460       613
46.480       490
46.500       610
46.520       523
46.540       590
46.560       570
46.580       506
46.600       530
46.620       533
46.640       533
46.660       540
46.680       520
46.700       566
46.720       610
46.740       563
46.760       676
46.780       526
46.800       586
46.820       523
46.840       563
46.860       563
46.880       513
46.900       553
46.920       566
46.940       683
46.960       636
46.980       606
47.000       620
47.020       610
47.040       693
47.060       753
47.080       626
47.100       786
47.120       706
47.140       643
47.160       723
47.180       653
47.200       706
47.220       760
47.240       696
47.260       753
47.280       790
47.300       923
47.320       756
47.340       806
47.360       943
47.380       910
47.400       896
47.420      1016
47.440       920
47.460       953
47.480       983
47.500       943
47.520      1026
47.540      1033
47.560       846
47.580       790
47.600       870
47.620       726
47.640       633
47.660       593
47.680       710
47.700       603
47.720       580
47.740       603
47.760       646
47.780       633
47.800       403
47.820       506
47.840       550
47.860       503
47.880       580
47.900       490
47.920       550
47.940       456
47.960       473
47.980       520
48.000       523
48.020       576
48.040       576
48.060       566
48.080       626
48.100       476
48.120       566
48.140       506
48.160       616
48.180       623
48.200       646
48.220       643
48.240       683
48.260       663
48.280       740
48.300       693
48.320       730
48.340       623
48.360       823
48.380       850
48.400       856
48.420       883
48.440       920
48.460      1033
48.480       980
48.500       980
48.520       863
48.540       916
48.560       816
48.580       773
48.600       806
48.620       783
48.640       666
48.660       570
48.680       630
48.700       563
48.720       530
48.740       510
48.760       556
48.780       460
48.800       456
48.820       460
48.840       410
48.860       383
48.880       483
48.900       463
48.920       510
48.940       463
48.960       476
48.980       400
49.000       503
