20.000       173
20.020       160
20.040       120
20.060       120
20.080       133
20.100       153
20.120       160
20.140       100
20.160       180
20.180       100
20.200       133
20.220       213
20.240       180
20.260       120
20.280       160
20.300       173
20.320       173
20.340       113
20.360       140
20.380       160
20.400       120
20.420       180
20.440       147
20.460       140
20.480       180
20.500       147
20.520       100
20.540       173
20.560       153
20.580       147
20.600       173
20.620       153
20.640       100
20.660       133
20.680       140
20.700       180
20.720       147
20.740       127
20.760       180
20.780       113
20.800        67
20.820       113
20.840       127
20.860       120
20.880       133
20.900       133
20.920       140
20.940       107
20.960       100
20.980       160
21.000       220
21.020       180
21.040       187
21.060       167
21.080       153
21.100       167
21.120       153
21.140       113
21.160       167
21.180       133
21.200       147
21.220       153
21.240       113
21.260       147
21.280       147
21.300       133
21.320       200
21.340       133
21.360       133
21.380       180
21.400       113
21.420       200
21.440       160
21.460       160
21.480       107
21.500       173
21.520       187
21.540       140
21.560       120
21.580       113
21.600       207
21.620       107
21.640       160
21.660       173
21.680       187
21.700       120
21.720       113
21.740       127
21.760       140
21.780        87
21.800       160
21.820       147
21.840       160
21.860       227
21.880       100
21.900       200
21.920       167
21.940       193
21.960       120
21.980       120
22.000       173
22.020       153
22.040       167
22.060       133
22.080       187
22.100       153
22.120       193
22.140       180
22.160       127
22.180       173
22.200       107
22.220       153
22.240       167
22.260       147
22.280       133
22.300       133
22.320       187
22.340       173
22.360       187
22.380       167
22.400       167
22.420       167
22.440       247
22.460       213
22.480       173
22.500       220
22.520       180
22.540       180
22.560       120
22.580       207
22.600       200
22.620       193
22.640       213
22.660       193
22.680       147
22.700       207
22.720       140
22.740       200
22.760       233
22.780       173
22.800       200
22.820       227
22.840       207
22.860       227
22.880       260
22.900       220
22.920       260
22.940       247
22.960       340
22.980       287
23.000       393
23.020       307
23.040       300
23.060       393
23.080       793
23.100      1506
23.120      2119
23.140      1986
23.160      1346
23.180       626
23.200       446
23.220       393
23.240       360
23.260       307
23.280       333
23.300       273
23.320       327
23.340       200
23.360       260
23.380       240
23.400       213
23.420       240
23.440       293
23.460       220
23.480       173
23.500       293
23.520       187
23.540       213
23.560       253
23.580       293
23.600       227
23.620       187
23.640       267
23.660       233
23.680       280
23.700       267
23.720       227
23.740       207
23.760       260
23.780       227
23.800       247
23.820       260
23.840       293
23.860       207
23.880       253
23.900       220
23.920       173
23.940       260
23.960       147
23.980       253
24.000       213
24.020       280
24.040       167
24.060       200
24.080       293
24.100       247
24.120       240
24.140       173
24.160       307
24.180       200
24.200       200
24.220       207
24.240       227
24.260       193
24.280       260
24.300       253
24.320       200
24.340       373
24.360       253
24.380       187
24.400       233
24.420       200
24.440       253
24.460       207
24.480       180
24.500       233
24.520       240
24.540       200
24.560       227
24.580       247
24.600       287
24.620       320
24.640       180
24.660       227
24.680       233
24.700       227
24.720       440
24.740       633
24.760       766
24.780       980
24.800       840
24.820      1020
24.840      1013
24.860      1006
24.880       946
24.900      1000
24.920      1000
24.940       866
24.960      1066
24.980       986
25.000      1060
25.020       986
25.040      1093
25.060      1060
25.080      1060
25.100      1173
25.120      1060
25.140      1006
25.160      1046
25.180      1033
25.200      1073
25.220       933
25.240      1006
25.260      1226
25.280      1233
25.300      1446
25.320      1599
25.340      1333
25.360      1733
25.380      1866
25.400      2352
25.420      3619
25.440      5358
25.460      7857
25.480     11069
25.500     14121
25.520     16733
25.540     20418
25.560     27682
25.580     68892
25.600    159430
25.620    200686
25.640    207750
25.660    192810
25.680    146868
25.700    129515
25.720    104951
25.740     46901
25.760     20745
25.780     14354
25.800     10762
25.820      8070
25.840      5811
25.860      4018
25.880      2799
25.900      2146
25.920      1866
25.940      1653
25.960      1486
25.980      1533
26.000      1346
26.020      1160
26.040      1333
26.060      1293
26.080      1146
26.100      1273
26.120      1133
26.140      1180
26.160      1066
26.180       973
26.200      1100
26.220       946
26.240       980
26.260       993
26.280       886
26.300       720
26.320       966
26.340      1053
26.360      1046
26.380      1013
26.400       926
26.420       846
26.440       766
26.460       820
26.480       813
26.500       740
26.520       766
26.540       806
26.560       840
26.580       620
26.600       680
26.620       893
26.640       753
26.660       766
26.680       766
26.700       840
26.720       800
26.740       713
26.760       766
26.780       686
26.800       786
26.820       733
26.840       726
26.860       633
26.880       633
26.900       766
26.920       800
26.940       713
26.960       753
26.980       680
27.000       526
27.020       760
27.040       820
27.060       753
27.080       793
27.100       653
27.120       720
27.140       693
27.160       653
27.180       580
27.200       686
27.220       633
27.240       633
27.260       653
27.280       606
27.300       606
27.320       686
27.340       700
27.360       600
27.380       680
27.400       586
27.420       553
27.440       573
27.460       593
27.480       580
27.500       673
27.520       660
27.540       553
27.560       666
27.580       513
27.600       546
27.620       673
27.640       613
27.660       606
27.680       560
27.700       580
27.720       606
27.740       486
27.760       573
27.780       540
27.800       573
27.820       606
27.840       580
27.860       526
27.880       513
27.900       546
27.920       473
27.940       546
27.960       580
27.980       580
28.000       520
28.020       520
28.040       493
28.060       480
28.080       613
28.100       546
28.120       520
28.140       473
28.160       513
28.180       513
28.200       480
28.220       446
28.240       440
28.260       633
28.280       740
28.300       486
28.320       580
28.340       546
28.360       606
28.380       546
28.400       640
28.420       600
28.440       440
28.460       500
28.480       520
28.500       533
28.520       533
28.540       560
28.560       453
28.580       520
28.600       460
28.620       486
28.640       573
28.660       400
28.680       553
28.700       580
28.720       473
28.740       546
28.760       573
28.780       520
28.800       440
28.820       520
28.840       367
28.860       506
28.880       500
28.900       513
28.920       433
28.940       493
28.960       533
28.980       553
29.000       566
29.020       580
29.040       426
29.060       506
29.080       520
29.100       473
29.120       413
29.140       486
29.160       486
29.180       566
29.200       566
29.220       480
29.240       440
29.260       420
29.280       506
29.300       560
29.320       540
29.340       460
29.360       626
29.380       493
29.400       473
29.420       426
29.440       413
29.460       473
29.480       493
29.500       526
29.520       493
29.540       540
29.560       506
29.580       493
29.600       453
29.620       553
29.640       360
29.660       540
29.680       413
29.700       420
29.720       433
29.740       453
29.760       407
29.780       486
29.800       546
29.820       473
29.840       387
29.860       446
29.880       473
29.900       380
29.920       413
29.940       407
29.960       353
29.980       433
30.000       387
30.020       393
30.040       367
30.060       466
30.080       500
30.100       347
30.120       340
30.140       506
30.160       433
30.180       347
30.200       473
30.220       533
30.240       480
30.260       373
30.280       440
30.300       446
30.320       353
30.340       347
30.360       360
30.380       367
30.400       413
30.420       446
30.440       466
30.460       353
30.480       433
30.500       380
30.520       327
30.540       440
30.560       367
30.580       353
30.600       393
30.620       400
30.640       393
30.660       380
30.680       380
30.700       380
30.720       353
30.740       367
30.760       420
30.780       360
30.800       340
30.820       380
30.840       340
30.860       367
30.880       446
30.900       407
30.920       327
30.940       493
30.960       360
30.980       273
31.000       347
31.020       387
31.040       340
31.060       333
31.080       340
31.100       367
31.120       333
31.140       360
31.160       387
31.180       307
31.200       273
31.220       340
31.240       413
31.260       300
31.280       320
31.300       347
31.320       273
31.340       327
31.360       320
31.380       380
31.400       426
31.420       293
31.440       233
31.460       240
31.480       367
31.500       247
31.520       307
31.540       300
31.560       313
31.580       380
31.600       280
31.620       353
31.640       227
31.660       380
31.680       307
31.700       273
31.720       327
31.740       353
31.760       460
31.780       313
31.800       333
31.820       407
31.840       307
31.860       313
31.880       253
31.900       300
31.920       353
31.940       240
31.960       313
31.980       307
32.000       353
32.020       247
32.040       300
32.060       393
32.080       313
32.100       220
32.120       247
32.140       280
32.160       353
32.180       220
32.200       333
32.220       240
32.240       340
32.260       293
32.280       233
32.300       240
32.320       307
32.340       320
32.360       240
32.380       227
32.400       307
32.420       240
32.440       273
32.460       273
32.480       287
32.500       307
32.520       293
32.540       280
32.560       240
32.580       233
32.600       307
32.620       267
32.640       353
32.660       293
32.680       307
32.700       267
32.720       373
32.740       360
32.760       320
32.780       380
32.800       453
32.820       606
32.840       653
32.860       606
32.880       706
32.900       666
32.920       666
32.940       760
32.960       700
32.980       660
33.000       746
33.020       533
33.040       546
33.060       540
33.080       387
33.100       480
33.120       347
33.140       333
33.160       293
33.180       293
33.200       327
33.220       260
33.240       360
33.260       300
33.280       233
33.300       300
33.320       360
33.340       247
33.360       200
33.380       280
33.400       287
33.420       207
33.440       207
33.460       247
33.480       220
33.500       247
33.520       253
33.540       267
33.560       180
33.580       187
33.600       200
33.620       227
33.640       240
33.660       260
33.680       180
33.700       260
33.720       220
33.740       240
33.760       273
33.780       167
33.800       147
33.820       200
33.840       167
33.860       173
33.880       247
33.900       213
33.920       220
33.940       260
33.960       140
33.980       180
34.000       233
34.020       227
34.040       153
34.060       227
34.080       260
34.100       253
34.120       153
34.140       207
34.160       207
34.180       267
34.200       180
34.220       227
34.240       173
34.260       180
34.280       193
34.300       193
34.320       273
34.340       200
34.360       193
34.380       180
34.400       153
34.420       233
34.440       127
34.460       233
34.480       200
34.500       213
34.520       140
34.540       200
34.560       187
34.580       253
34.600       253
34.620       227
34.640       200
34.660       160
34.680       193
34.700       140
34.720       153
34.740       187
34.760       180
34.780       160
34.800       153
34.820       147
34.840       193
34.860       173
34.880       207
34.900       180
34.920       213
34.940       187
34.960       227
34.980       187
35.000       153
35.020       173
35.040       187
35.060       167
35.080       200
35.100       153
35.120       147
35.140       173
35.160       160
35.180       167
35.200       173
35.220       160
35.240       173
35.260       200
35.280       187
35.300       173
35.320       153
35.340       220
35.360       200
35.380       180
35.400        80
35.420       133
35.440       180
35.460       247
35.480       147
35.500       153
35.520       247
35.540       233
35.560       200
35.580       147
35.600       233
35.620       220
35.640       227
35.660       247
35.680       127
35.700       140
35.720       187
35.740       133
35.760       220
35.780       167
35.800       180
35.820       220
35.840       267
35.860       147
35.880       133
35.900       200
35.920       127
35.940       140
35.960       247
35.980       120
36.000       173
36.020       253
36.040       200
36.060       107
36.080       153
36.100       167
36.120       120
36.140       160
36.160       200
36.180       220
36.200       153
36.220       167
36.240       100
36.260       160
36.280       120
36.300       227
36.320       147
36.340       153
36.360       140
36.380       100
36.400        93
36.420       147
36.440       140
36.460       100
36.480       153
36.500        87
36.520       120
36.540       147
36.560       133
36.580       127
36.600       213
36.620       113
36.640       200
36.660       220
36.680       107
36.700       173
36.720       187
36.740       167
36.760       127
36.780       147
36.800       133
36.820       120
36.840        93
36.860       187
36.880       167
36.900        73
36.920       153
36.940       193
36.960       140
36.980       200
37.000       180
37.020       127
37.040       127
37.060       120
37.080       113
37.100       180
37.120       173
37.140       120
37.160       100
37.180       127
37.200       113
37.220       147
37.240       140
37.260       193
37.280        73
37.300       107
37.320       100
37.340       140
37.360       120
37.380       180
37.400       173
37.420       133
37.440       107
37.460       153
37.480       133
37.500        87
37.520       153
37.540       113
37.560       147
37.580       113
37.600       120
37.620        93
37.640       147
37.660       147
37.680       107
37.700        67
37.720       133
37.740       107
37.760       160
37.780       213
37.800       160
37.820       100
37.840       147
37.860       133
37.880       167
37.900       120
37.920       140
37.940       153
37.960       153
37.980       140
38.000       173
38.020        80
38.040       107
38.060       127
38.080       140
38.100       140
38.120       133
38.140       127
38.160       127
38.180       113
38.200       133
38.220       120
38.240       133
38.260       100
38.280        73
38.300       140
38.320       120
38.340        87
38.360       107
38.380        80
38.400        73
38.420       127
38.440       127
38.460       133
38.480       147
38.500       107
38.520       100
38.540       153
38.560        80
38.580        87
38.600       127
38.620       133
38.640       107
38.660       107
38.680       140
38.700       107
38.720       147
38.740       127
38.760       113
38.780       120
38.800       113
38.820       100
38.840        87
38.860       160
38.880       107
38.900       113
38.920       133
38.940       107
38.960        87
38.980        80
39.000        80
39.020       120
39.040        87
39.060       113
39.080       100
39.100       107
39.120        67
39.140       100
39.160       120
39.180       120
39.200       140
39.220       147
39.240       133
39.260       167
39.280        73
39.300       127
39.320        60
39.340       127
39.360       153
39.380        73
39.400        73
39.420       100
39.440        47
39.460       127
39.480       113
39.500        73
39.520        93
39.540        87
39.560        93
39.580        93
39.600        80
39.620       180
39.640       100
39.660       100
39.680        80
39.700       100
39.720        80
39.740       100
39.760       100
39.780       120
39.800       100
39.820       127
39.840       120
39.860       160
39.880       120
39.900        60
39.920        80
39.940       127
39.960        93
39.980       100
40.000       200
40.020       160
40.040        40
40.060       100
40.080        73
40.100       100
40.120        87
40.140        73
40.160        80
40.180        87
40.200       100
40.220       153
40.240       133
40.260       173
40.280       107
40.300       100
40.320        47
40.340        40
40.360        87
40.380        47
40.400       140
40.420        87
40.440        53
40.460        67
40.480        73
40.500        93
40.520        93
40.540        87
40.560       100
40.580       120
40.600        60
40.620        40
40.640        93
40.660       107
40.680        60
40.700       127
40.720        80
40.740        80
40.760       107
40.780       107
40.800       107
40.820        60
40.840       127
40.860       100
40.880       100
40.900       100
40.920        67
40.940       100
40.960       113
40.980       100
41.000       100
41.020        67
41.040        87
41.060        60
41.080       120
41.100        80
41.120       140
41.140        93
41.160        80
41.180        80
41.200        80
41.220       107
41.240       133
41.260        73
41.280       107
41.300        80
41.320        67
41.340        47
41.360       127
41.380        60
41.400       100
41.420        67
41.440       133
41.460       107
41.480        80
41.500        67
41.520        73
41.540        93
41.560       160
41.580        60
41.600       153
41.620        60
41.640        87
41.660        53
41.680        73
41.700        73
41.720       107
41.740       113
41.760        87
41.780       100
41.800       127
41.820        80
41.840       113
41.860        87
41.880        33
41.900        67
41.920        73
41.940       100
41.960       173
41.980        80
42.000        67
42.020        80
42.040        80
42.060       107
42.080       113
42.100       100
42.120        60
42.140        33
42.160       113
42.180        60
42.200        67
42.220        67
42.240       113
42.260       113
42.280        40
42.300        60
42.320        93
42.340        73
42.360        73
42.380       127
42.400        87
42.420        80
42.440       107
42.460        93
42.480       167
42.500        87
42.520       127
42.540        87
42.560       100
42.580       120
42.600        60
42.620        73
42.640       113
42.660        73
42.680        87
42.700        47
42.720       100
42.740       100
42.760        60
42.780       120
42.800        93
42.820        93
42.840       120
42.860        80
42.880        87
42.900       107
42.920        87
42.940        53
42.960        60
42.980        67
43.000        67
43.020        67
43.040       100
43.060        93
43.080        40
43.100       100
43.120        67
43.140        67
43.160       107
43.180       140
43.200       100
43.220        67
43.240       100
43.260        80
43.280        93
43.300       100
43.320        73
43.340        60
43.360        80
43.380        60
43.400       107
43.420       127
43.440        60
43.460        40
43.480        47
43.500        67
43.520        53
43.540        53
43.560        60
43.580        67
43.600        80
43.620        67
43.640        60
43.660        60
43.680        60
43.700        40
43.720        67
43.740        73
43.760        53
43.780        20
43.800        53
43.820        60
43.840       107
43.860       100
43.880       100
43.900       107
43.920        73
43.940        73
43.960        80
43.980        67
44.000        67
44.020       100
44.040        73
44.060        60
44.080        80
44.100        60
44.120        53
44.140        40
44.160        73
44.180        87
44.200        73
44.220        47
44.240        73
44.260        47
44.280        73
44.300        60
44.320        93
44.340        47
44.360        53
44.380        80
44.400        93
44.420        87
44.440        67
44.460        67
44.480        80
44.500        73
44.520        80
44.540        47
44.560        60
44.580        47
44.600        80
44.620        67
44.640        80
44.660        53
44.680       100
44.700        67
44.720        33
44.740       120
44.760        73
44.780        60
44.800        67
44.820        53
44.840        67
44.860        80
44.880        67
44.900        80
44.920       127
44.940        47
44.960        73
44.980        67
45.000        60
45.020        93
45.040        53
45.060        93
45.080        67
45.100        60
45.120        80
45.140        80
45.160        47
45.180       107
45.200        53
45.220        40
45.240        73
45.260        80
45.280       113
45.300        87
45.320        80
45.340        53
45.360        93
45.380        67
45.400        93
45.420        33
45.440        73
45.460        47
45.480        53
45.500        87
45.520        67
45.540        67
45.560        67
45.580       120
45.600        93
45.620        73
45.640        80
45.660        53
45.680        80
45.700        60
45.720        40
45.740        27
45.760        67
45.780        53
45.800        93
45.820        80
45.840        67
45.860        73
45.880        60
45.900        40
45.920        60
45.940        40
45.960       107
45.980        73
46.000        67
46.020        73
46.040        80
46.060        60
46.080        33
46.100        80
46.120        40
46.140        40
46.160        87
46.180        87
46.200       113
46.220       107
46.240       107
46.260        93
46.280        73
46.300        93
46.320        80
46.340       100
46.360        80
46.380        73
46.400       100
46.420       107
46.440        73
46.460        93
46.480        47
46.500        33
46.520       113
46.540       120
46.560       107
46.580        47
46.600        60
46.620        73
46.640       113
46.660       107
46.680        93
46.700        67
46.720        87
46.740       133
46.760        93
46.780       160
46.800        93
46.820       147
46.840       120
46.860       160
46.880       133
46.900       133
46.920       133
46.940       100
46.960       200
46.980       127
47.000       160
47.020        67
47.040       107
47.060       187
47.080       233
47.100       207
47.120       233
47.140       353
47.160       720
47.180      1233
47.200      1746
47.220      2066
47.240      1733
47.260      1006
47.280       580
47.300       340
47.320       273
47.340       280
47.360       293
47.380       167
47.400       207
47.420       187
47.440       187
47.460       153
47.480       193
47.500       120
47.520       147
47.540       160
47.560        53
47.580       113
47.600       173
47.620       107
47.640       127
47.660        93
47.680        80
47.700        93
47.720       107
47.740        67
47.760        80
47.780       133
47.800        80
47.820        73
47.840        47
47.860       100
47.880        80
47.900       107
47.920        93
47.940        93
47.960        93
47.980        60
48.000       120
48.020       120
48.040       100
48.060       107
48.080        67
48.100       107
48.120        67
48.140        73
48.160        73
48.180        80
48.200       107
48.220       100
48.240       113
48.260       127
48.280        87
48.300       100
48.320        53
48.340       127
48.360       120
48.380       120
48.400       107
48.420        67
48.440        60
48.460        53
48.480        80
48.500        80
48.520        53
48.540       133
48.560        60
48.580        47
48.600        80
48.620        67
48.640        33
48.660        60
48.680        33
48.700        80
48.720       100
48.740        67
48.760        87
48.780        87
48.800        53
48.820        80
48.840        67
48.860        80
48.880        47
48.900       100
48.920        93
48.940        40
48.960        73
48.980        60
49.000        67
49.020        73
49.040        60
49.060        93
49.080        93
49.100       107
49.120        93
49.140        67
49.160        87
49.180        33
49.200       107
49.220        67
49.240        67
49.260        40
49.280        73
49.300        93
49.320        80
49.340        80
49.360        80
49.380        80
49.400        47
49.420        93
49.440        47
49.460       100
49.480        67
49.500        47
49.520        80
49.540        80
49.560       100
49.580       127
49.600        80
49.620        73
49.640        40
49.660        40
49.680       113
49.700        67
49.720        60
49.740        53
49.760        60
49.780        73
49.800        60
49.820        60
49.840        73
49.860        53
49.880        73
49.900        67
49.920        53
49.940        53
49.960       120
49.980       107
50.000        67
50.020        67
50.040        60
50.060        60
50.080        33
50.100        67
50.120        53
50.140        73
50.160        67
50.180        73
50.200        73
50.220        67
50.240        53
50.260        60
50.280        93
50.300        60
50.320        87
50.340        93
50.360       100
50.380        67
50.400        93
50.420        60
50.440        93
50.460        73
50.480        73
50.500       113
50.520        93
50.540        80
50.560       100
50.580        93
50.600       140
50.620       160
50.640       193
50.660       187
50.680       267
50.700       413
50.720       440
50.740       426
50.760       546
50.780       566
50.800       533
50.820       433
50.840       693
50.860       500
50.880       500
50.900       553
50.920       546
50.940       566
50.960       573
50.980       460
51.000       493
51.020       586
51.040       546
51.060       453
51.080       486
51.100       620
51.120       526
51.140       480
51.160       486
51.180       566
51.200       573
51.220       546
51.240       620
51.260       646
51.280       560
51.300       533
51.320       573
51.340       606
51.360       506
51.380       660
51.400       553
51.420       613
51.440       533
51.460       413
51.480       533
51.500       606
51.520       586
51.540       513
51.560       393
51.580       546
51.600       606
51.620       506
51.640       700
51.660       693
51.680       546
51.700       653
51.720       593
51.740       640
51.760       653
51.780       560
51.800       700
51.820       606
51.840       600
51.860       733
51.880       666
51.900       633
51.920       726
51.940       713
51.960       760
51.980       660
52.000       746
52.020       720
52.040       760
52.060       786
52.080       866
52.100      1026
52.120       973
52.140       980
52.160      1020
52.180      1066
52.200      1180
52.220      1253
52.240      1286
52.260      1786
52.280      2059
52.300      2392
52.320      3012
52.340      3825
52.360      4378
52.380      5271
52.400      6571
52.420      7937
52.440     10023
52.460     12255
52.480     14148
52.500     17333
52.520     23371
52.540     35592
52.560     78015
52.580    160869
52.600    209836
52.620    212502
52.640    169772
52.660     88938
52.680     50367
52.700     58810
52.720    100107
52.740    130281
52.760    130155
52.780    100726
52.800     48061
52.820     22045
52.840     13735
52.860     10849
52.880      8890
52.900      7237
52.920      5158
52.940      3752
52.960      2699
52.980      2272
53.000      1979
53.020      2019
53.040      1666
53.060      1619
53.080      1539
53.100      1313
53.120      1153
53.140      1233
53.160      1033
53.180      1180
53.200       920
53.220      1000
53.240       980
53.260       900
53.280       840
53.300       900
53.320       813
53.340       846
53.360       766
53.380       833
53.400       833
53.420       700
53.440       793
53.460       913
53.480       833
53.500       846
53.520       620
53.540       593
53.560       700
53.580       533
53.600       640
53.620       546
53.640       553
53.660       613
53.680       466
53.700       740
53.720       506
53.740       486
53.760       553
53.780       580
53.800       480
53.820       553
53.840       493
53.860       520
53.880       500
53.900       520
53.920       513
53.940       460
53.960       446
53.980       546
54.000       426
54.020       473
54.040       486
54.060       466
54.080       506
54.100       453
54.120       506
54.140       526
54.160       466
54.180       440
54.200       593
54.220       360
54.240       446
54.260       426
54.280       340
54.300       493
54.320       367
54.340       413
54.360       387
54.380       493
54.400       413
54.420       460
54.440       426
54.460       506
54.480       367
54.500       460
54.520       367
54.540       400
54.560       440
54.580       420
54.600       327
54.620       293
54.640       407
54.660       473
54.680       400
54.700       333
54.720       393
54.740       373
54.760       466
54.780       420
54.800       460
54.820       400
54.840       373
54.860       353
54.880       486
54.900       347
54.920       393
54.940       493
54.960       340
54.980       440
55.000       320
55.020       340
55.040       400
55.060       353
55.080       387
55.100       353
55.120       466
55.140       347
55.160       327
55.180       327
55.200       353
55.220       300
55.240       327
55.260       360
55.280       293
55.300       373
55.320       327
55.340       360
55.360       307
55.380       440
55.400       313
55.420       373
55.440       333
55.460       367
55.480       327
55.500       367
55.520       233
55.540       333
55.560       327
55.580       480
55.600       360
55.620       207
55.640       393
55.660       287
55.680       393
55.700       233
55.720       353
55.740       353
55.760       360
55.780       293
55.800       307
55.820       287
55.840       280
55.860       260
55.880       247
55.900       273
55.920       320
55.940       287
55.960       280
55.980       347
56.000       367
56.020       280
56.040       313
56.060       253
56.080       273
56.100       327
56.120       307
56.140       333
56.160       380
56.180       300
56.200       373
56.220       300
56.240       280
56.260       220
56.280       287
56.300       327
56.320       360
56.340       240
56.360       267
56.380       347
56.400       347
56.420       293
56.440       280
56.460       207
56.480       360
56.500       347
56.520       273
56.540       333
56.560       267
56.580       333
56.600       340
56.620       260
56.640       347
56.660       273
56.680       333
56.700       307
56.720       313
56.740       273
56.760       287
56.780       247
56.800       287
56.820       267
56.840       287
56.860       300
56.880       367
56.900       340
56.920       340
56.940       280
56.960       300
56.980       293
57.000       280
57.020       313
57.040       367
57.060       240
57.080       287
57.100       340
57.120       380
57.140       320
57.160       227
57.180       200
57.200       367
57.220       253
57.240       287
57.260       253
57.280       307
57.300       240
57.320       207
57.340       307
57.360       220
57.380       267
57.400       293
57.420       233
57.440       300
57.460       313
57.480       280
57.500       240
57.520       173
57.540       260
57.560       240
57.580       273
57.600       220
57.620       267
57.640       213
57.660       233
57.680       267
57.700       207
57.720       413
57.740       240
57.760       187
57.780       287
57.800       240
57.820       180
57.840       220
57.860       233
57.880       307
57.900       260
57.920       227
57.940       227
57.960       227
57.980       280
58.000       287
58.020       300
58.040       233
58.060       193
58.080       233
58.100       180
58.120       213
58.140       253
58.160       260
58.180       300
58.200       200
58.220       240
58.240       267
58.260       247
58.280       220
58.300       240
58.320       240
58.340       227
58.360       360
58.380       253
58.400       213
58.420       247
58.440       220
58.460       200
58.480       173
58.500       220
58.520       167
58.540       207
58.560       247
58.580       247
58.600       213
58.620       227
58.640       207
58.660       220
58.680       267
58.700       280
58.720       240
58.740       227
58.760       187
58.780       233
58.800       180
58.820       267
58.840       213
58.860       167
58.880       273
58.900       193
58.920       220
58.940       193
58.960       207
58.980       240
59.000       220
59.020       167
59.040       300
59.060       227
59.080       187
59.100       207
59.120       220
59.140       173
59.160       200
59.180       200
59.200       193
59.220       187
59.240       220
59.260       193
59.280       227
59.300       220
59.320       260
59.340       193
59.360       167
59.380       247
59.400       240
59.420       200
59.440       160
59.460       173
59.480       213
59.500       207
59.520       267
59.540       273
59.560       200
59.580       240
59.600       227
59.620       200
59.640       207
59.660       227
59.680       200
59.700       220
59.720       233
59.740       200
59.760       227
59.780       200
59.800       240
59.820       133
59.840       240
59.860       233
59.880       380
59.900       207
59.920       227
59.940       233
59.960       180
59.980       187
60.000       160
60.020       207
60.040       180
60.060       247
60.080       153
60.100       287
60.120       233
60.140       227
60.160       233
60.180       220
60.200       233
60.220       253
60.240       227
60.260       233
60.280       220
60.300       180
60.320       147
60.340       167
60.360       200
60.380       187
60.400       187
60.420       207
60.440       240
60.460       180
60.480       213
60.500       173
60.520       227
60.540       247
60.560       220
60.580       207
60.600       213
60.620       213
60.640       240
60.660       193
60.680       200
60.700       240
60.720       253
60.740       193
60.760       153
60.780       187
60.800       173
60.820       227
60.840       207
60.860       200
60.880       173
60.900       173
60.920       233
60.940       153
60.960       187
60.980       160
61.000       213
61.020       213
61.040       187
61.060       187
61.080       160
61.100       213
61.120       120
61.140       213
61.160       147
61.180       193
61.200       193
61.220       173
61.240       173
61.260       120
61.280       133
61.300       220
61.320       193
61.340       193
61.360       133
61.380       227
61.400       147
61.420       153
61.440       140
61.460       173
61.480       260
61.500       153
61.520       153
61.540       213
61.560       173
61.580       167
61.600       233
61.620       227
61.640       200
61.660       187
61.680       153
61.700       133
61.720       173
61.740       153
61.760       173
61.780       133
61.800       180
61.820       220
61.840       147
61.860       207
61.880       113
61.900       213
61.920       227
61.940       140
61.960       120
61.980       227
62.000       180
62.020       140
62.040       153
62.060       160
62.080       187
62.100       233
62.120       180
62.140       240
62.160       160
62.180       147
62.200       180
62.220       127
62.240       187
62.260       160
62.280       180
62.300       140
62.320       187
62.340       187
62.360       167
62.380       147
62.400       153
62.420       147
62.440       153
62.460       140
62.480        93
62.500       233
62.520       180
62.540       180
62.560       200
62.580       160
62.600       160
62.620       120
62.640       107
62.660       173
62.680       180
62.700       173
62.720       133
62.740       120
62.760       153
62.780       193
62.800       140
62.820       153
62.840       220
62.860       173
62.880       140
62.900       180
62.920       127
62.940       100
62.960       120
62.980        93
63.000       147
63.020       220
63.040       173
63.060       133
63.080       180
63.100       153
63.120       167
63.140       147
63.160       187
63.180       180
63.200       167
63.220       193
63.240       133
63.260       147
63.280       147
63.300       173
63.320       160
63.340       153
63.360       107
63.380       140
63.400       140
63.420       173
63.440       153
63.460       187
63.480       140
63.500       147
63.520       147
63.540       167
63.560        93
63.580       147
63.600       153
63.620       140
63.640       180
63.660       140
63.680       153
63.700       167
63.720       140
63.740       120
63.760        93
63.780       200
63.800       107
63.820        87
63.840       153
63.860       127
63.880       167
63.900       160
63.920       140
63.940       120
63.960       140
63.980       140
64.000       153
64.020        87
64.040       140
64.060       140
64.080       173
64.100        53
64.120       140
64.140       107
64.160       153
64.180       207
64.200       127
64.220       173
64.240       140
64.260       100
64.280       187
64.300       140
64.320       140
64.340       153
64.360       160
64.380       107
64.400       133
64.420       120
64.440       140
64.460       147
64.480       167
64.500       167
64.520       120
64.540       113
64.560       133
64.580       173
64.600       127
64.620        87
64.640       147
64.660       127
64.680       120
64.700       160
64.720       160
64.740       140
64.760       153
64.780       113
64.800       120
64.820       100
64.840       140
64.860       160
64.880        87
64.900        93
64.920       187
64.940       100
64.960        93
64.980       127
65.000        80
65.020       107
65.040       107
65.060       133
65.080       133
65.100       133
65.120       120
65.140       173
65.160       120
65.180       160
65.200       187
65.220       193
65.240        93
65.260       147
65.280       127
65.300        73
65.320       133
65.340       127
65.360       127
65.380       120
65.400        80
65.420       127
65.440       180
65.460       160
65.480       113
65.500       167
65.520        67
65.540       133
65.560       127
65.580       133
65.600       147
65.620        93
65.640       147
65.660       100
65.680        73
65.700       167
65.720       120
65.740       140
65.760        93
65.780       140
65.800       120
65.820       127
65.840       167
65.860        67
65.880       113
65.900       100
65.920       127
65.940       140
65.960       113
65.980       147
66.000        93
66.020       147
66.040       120
66.060        80
66.080       107
66.100       160
66.120        73
66.140        80
66.160       100
66.180       107
66.200       180
66.220        80
66.240        87
66.260       153
66.280       113
66.300       120
66.320       107
66.340       153
66.360       140
66.380       113
66.400        93
66.420        87
66.440       107
66.460       167
66.480       127
66.500       160
66.520       153
66.540       140
66.560        73
66.580       173
66.600       120
66.620       113
66.640       120
66.660        73
66.680       140
66.700       113
66.720       153
66.740       147
66.760       120
66.780        80
66.800       133
66.820       127
66.840       113
66.860        93
66.880       107
66.900        87
66.920       107
66.940        93
66.960       107
66.980       113
67.000       133
67.020        67
67.040       113
67.060       113
67.080       113
67.100       160
67.120       113
67.140       113
67.160       133
67.180       127
67.200        93
67.220       153
67.240        87
67.260       147
67.280       140
67.300       133
67.320       120
67.340       133
67.360       127
67.380       140
67.400       147
67.420        93
67.440       153
67.460       127
67.480       147
67.500       107
67.520       127
67.540       100
67.560       120
67.580        87
67.600       153
67.620       140
67.640       127
67.660        93
67.680       127
67.700       113
67.720        73
67.740       120
67.760       133
67.780        87
67.800       107
67.820       113
67.840       107
67.860       167
67.880       153
67.900       147
67.920       113
67.940       173
67.960       100
67.980        93
68.000       120
68.020       187
68.040        80
68.060        87
68.080       100
68.100       113
68.120       140
68.140        87
68.160       153
68.180        80
68.200        93
68.220       147
68.240       147
68.260       107
68.280        73
68.300       147
68.320        73
68.340        93
68.360       147
68.380       147
68.400       180
68.420       200
68.440       167
68.460       173
68.480       140
68.500       207
68.520       267
68.540       200
68.560       280
68.580       240
68.600       240
68.620       233
68.640       320
68.660       373
68.680       353
68.700       420
68.720       513
68.740       486
68.760       713
68.780       846
68.800      1026
68.820      1253
68.840      1586
68.860      1913
68.880      2752
68.900      3505
68.920      4018
68.940      4771
68.960      5385
68.980      5245
69.000      5185
69.020      4785
69.040      4432
69.060      3898
69.080      3865
69.100      3539
69.120      3705
69.140      3739
69.160      3559
69.180      3105
69.200      3092
69.220      2432
69.240      2079
69.260      1593
69.280      1413
69.300      1220
69.320      1000
69.340       800
69.360       793
69.380       520
69.400       586
69.420       373
69.440       387
69.460       360
69.480       327
69.500       287
69.520       247
69.540       247
69.560       187
69.580       167
69.600       180
69.620       180
69.640       153
69.660       167
69.680       127
69.700       120
69.720        67
69.740       100
69.760        73
69.780       113
69.800        93
69.820       153
69.840        93
69.860       113
69.880       113
69.900       127
69.920       140
69.940       113
69.960        87
69.980        93
70.000       113
70.020       100
70.040       147
70.060       107
70.080       113
70.100       127
70.120        93
70.140       107
70.160        53
70.180        80
70.200        93
70.220       140
70.240        73
70.260       100
70.280        93
70.300       107
70.320       133
70.340       113
70.360        87
70.380        80
70.400        47
70.420       133
70.440        93
70.460        87
70.480        87
70.500       100
70.520        60
70.540       100
70.560        60
70.580       133
70.600        60
70.620       133
70.640        80
70.660       127
70.680        67
70.700        80
70.720       100
70.740        73
70.760        87
70.780        80
70.800       127
70.820        53
70.840        73
70.860        60
70.880       100
70.900        40
70.920        60
70.940       100
70.960        93
70.980        53
71.000        60
71.020       127
71.040       120
71.060       107
71.080        87
71.100       100
71.120        53
71.140        93
71.160        80
71.180       100
71.200        93
71.220        67
71.240        80
71.260       113
71.280        93
71.300        67
71.320       107
71.340        87
71.360        53
71.380        80
71.400        93
71.420        87
71.440        80
71.460        60
71.480        27
71.500        93
71.520       160
71.540       120
71.560        73
71.580       107
71.600        73
71.620        80
71.640        60
71.660       100
71.680        60
71.700        93
71.720        80
71.740        60
71.760        87
71.780        73
71.800        93
71.820        40
71.840        73
71.860       100
71.880       107
71.900        47
71.920        73
71.940        80
71.960        80
71.980        73
72.000        67
72.020        93
72.040        80
72.060        67
72.080        60
72.100       100
72.120        73
72.140        40
72.160        67
72.180        93
72.200        93
72.220        93
72.240        67
72.260       100
72.280        73
72.300       107
72.320        60
72.340        80
72.360        80
72.380        87
72.400        60
72.420        60
72.440        80
72.460        93
72.480        47
72.500        60
72.520       120
72.540        93
72.560        93
72.580        87
72.600        67
72.620       120
72.640        87
72.660        73
72.680        87
72.700        87
72.720        87
72.740       107
72.760        73
72.780        87
72.800        73
72.820        87
72.840        40
72.860        60
72.880        60
72.900        60
72.920        53
72.940        53
72.960        60
72.980        93
73.000        93
73.020        20
73.040       113
73.060        80
73.080       113
73.100        80
73.120        73
73.140        73
73.160        60
73.180        53
73.200        73
73.220        73
73.240        27
73.260        67
73.280        87
73.300        53
73.320       107
73.340        67
73.360        73
73.380        33
73.400       113
73.420       100
73.440        40
73.460        93
73.480        60
73.500        60
73.520       133
73.540        27
73.560        67
73.580       100
73.600        60
73.620        80
73.640        80
73.660        73
73.680        73
73.700        27
73.720        40
73.740        60
73.760       100
73.780       113
73.800       173
73.820       127
73.840       147
73.860       113
73.880       107
73.900        73
73.920        67
73.940        80
73.960       100
73.980        53
74.000        67
74.020        40
74.040        87
74.060        27
74.080        47
74.100        73
74.120        47
74.140       100
74.160        80
74.180        67
74.200        33
74.220        47
74.240        53
74.260        47
74.280       107
74.300        87
74.320        93
74.340        60
74.360       120
74.380       100
74.400        53
74.420        67
74.440        80
74.460        53
74.480        73
74.500        67
74.520        40
74.540       100
74.560        67
74.580        60
74.600        53
74.620       100
74.640        53
74.660        27
74.680       113
74.700        80
74.720        53
74.740        67
74.760        53
74.780        47
74.800        67
74.820        53
74.840        67
74.860       107
74.880        60
74.900        53
74.920        47
74.940        87
74.960        93
74.980        93
75.000        20
75.020        53
75.040        27
75.060        60
75.080        53
75.100        67
75.120        67
75.140        87
75.160       100
75.180       100
75.200        53
75.220        93
75.240        60
75.260        80
75.280        33
75.300        40
75.320        67
75.340        87
75.360        47
75.380       107
75.400        53
75.420        47
75.440        67
75.460        73
75.480        53
75.500        20
75.520        93
75.540        40
75.560        73
75.580       100
75.600        67
75.620        67
75.640        47
75.660        67
75.680        53
75.700        33
75.720        60
75.740        40
75.760        93
75.780        40
75.800        47
75.820        93
75.840        33
75.860        53
75.880        47
75.900        33
75.920        67
75.940        93
75.960        47
75.980        80
76.000        40
76.020        40
76.040        60
76.060        73
76.080        80
76.100        60
76.120        20
76.140        73
76.160        80
76.180        80
76.200        20
76.220        40
76.240        40
76.260        40
76.280        60
76.300        73
76.320        80
76.340        33
76.360        87
76.380        47
76.400        40
76.420        33
76.440        47
76.460       100
76.480        53
76.500        80
76.520        73
76.540        60
76.560        60
76.580        80
76.600        53
76.620        93
76.640        73
76.660        27
76.680        73
76.700        40
76.720        53
76.740        67
76.760        93
76.780        67
76.800        53
76.820        40
76.840        60
76.860        53
76.880        67
76.900        40
76.920        87
76.940        40
76.960        27
76.980        67
77.000        27
77.020        40
77.040       113
77.060        47
77.080        87
77.100        93
77.120        80
77.140        20
77.160        53
77.180        33
77.200        60
77.220        40
77.240        40
77.260        47
77.280        27
77.300        53
77.320        27
77.340        60
77.360        53
77.380        47
77.400        87
77.420        60
77.440       100
77.460        27
77.480        47
77.500        13
77.520        60
77.540        33
77.560        40
77.580        20
77.600        53
77.620        60
77.640        93
77.660        80
77.680        33
77.700        73
77.720        80
77.740        53
77.760        33
77.780        27
77.800        87
77.820        53
77.840        33
77.860        40
77.880        47
77.900        67
77.920        40
77.940        73
77.960        40
77.980        33
78.000        53
78.020        13
78.040        73
78.060        33
78.080        53
78.100        53
78.120        80
78.140        20
78.160        20
78.180        47
78.200        40
78.220        33
78.240        47
78.260        60
78.280        73
78.300        47
78.320        73
78.340         7
78.360        53
78.380        80
78.400        47
78.420        60
78.440        53
78.460        93
78.480        67
78.500        47
78.520        33
78.540        33
78.560        53
78.580        40
78.600        60
78.620        53
78.640        60
78.660        33
78.680        33
78.700        53
78.720        47
78.740        33
78.760        60
78.780        40
78.800        33
78.820        53
78.840        40
78.860        40
78.880        87
78.900        73
78.920        60
78.940        33
78.960        93
78.980        73
79.000        53
79.020        27
79.040        80
79.060        47
79.080        13
79.100        67
79.120        60
79.140        53
79.160        60
79.180        60
79.200        67
79.220        73
79.240        47
79.260        40
79.280        20
79.300        33
79.320        67
79.340        33
79.360        53
79.380        20
79.400        33
79.420        47
79.440        47
79.460        40
79.480        27
79.500        40
79.520        47
79.540        80
79.560        40
79.580        40
79.600        60
79.620        40
79.640        33
79.660        60
79.680        73
79.700        60
79.720        67
79.740        53
79.760        47
79.780        53
79.800        67
79.820        53
79.840        53
79.860        67
79.880        87
79.900        53
79.920        53
79.940        73
79.960        40
79.980        60
80.000        53
80.020        67
80.040        47
80.060        93
80.080        60
80.100        40
80.120        67
80.140        87
80.160        47
80.180       107
80.200       107
80.220         7
80.240        60
80.260        87
80.280        67
80.300        60
80.320        67
80.340        60
80.360        53
80.380        80
80.400        67
80.420        40
80.440        80
80.460        73
80.480        60
80.500        53
80.520        73
80.540        40
80.560        93
80.580        73
80.600        80
80.620        67
80.640        73
80.660        87
80.680        93
80.700        60
80.720        47
80.740        53
80.760        53
80.780        80
80.800        73
80.820        33
80.840        20
80.860        87
80.880        67
80.900        53
80.920        60
80.940        47
80.960        33
80.980        67
81.000       100
81.020        73
81.040        53
81.060        47
81.080        87
81.100        93
81.120        47
81.140        80
81.160        53
81.180        80
81.200        13
81.220        73
81.240        53
81.260        73
81.280        80
81.300        47
81.320        40
81.340        33
81.360        47
81.380        87
81.400        87
81.420        60
81.440        73
81.460        60
81.480        93
81.500        80
81.520        53
81.540        40
81.560        47
81.580       100
81.600        47
81.620       107
81.640        67
81.660        53
81.680        67
81.700        40
81.720        87
81.740        40
81.760        33
81.780        67
81.800        67
81.820        73
81.840        40
81.860        27
81.880        53
81.900        33
81.920        53
81.940        47
81.960        93
81.980        67
82.000        60
82.020        40
82.040        40
82.060       107
82.080        47
82.100        33
82.120        53
82.140        60
82.160        60
82.180        47
82.200        60
82.220        87
82.240        80
82.260        47
82.280        67
82.300        53
82.320        47
82.340        60
82.360        73
82.380        67
82.400        93
82.420        53
82.440        67
82.460        40
82.480        47
82.500        67
82.520       120
82.540        73
82.560        33
82.580        53
82.600       107
82.620        67
82.640        87
82.660        60
82.680        73
82.700        93
82.720       100
82.740        87
82.760       127
82.780       113
82.800       113
82.820       173
82.840       160
82.860       120
82.880       193
82.900       153
82.920       120
82.940       193
82.960       207
82.980       140
83.000       220
83.020       253
83.040       300
83.060       327
83.080       466
83.100       660
83.120       693
83.140       946
83.160      1013
83.180      1599
83.200      2659
83.220      5285
83.240      9290
83.260     12588
83.280     12755
83.300      9250
83.320      5091
83.340      2659
83.360      1753
83.380      1273
83.400      1226
83.420      1213
83.440      1559
83.460      1966
83.480      3892
83.500      5658
83.520      6677
83.540      6038
83.560      4065
83.580      2386
83.600      1379
83.620       926
83.640       680
83.660       466
83.680       433
83.700       267
83.720       160
83.740       267
83.760       220
83.780       160
83.800       133
83.820        93
83.840       153
83.860       107
83.880       127
83.900        80
83.920       120
83.940       167
83.960        73
83.980        87
84.000       107
84.020        47
84.040       107
84.060        53
84.080        80
84.100       107
84.120       120
84.140        73
84.160        73
84.180        87
84.200        27
84.220        60
84.240        73
84.260        80
84.280       113
84.300        93
84.320        73
84.340        53
84.360        53
84.380        53
84.400        60
84.420       100
84.440        67
84.460        73
84.480        73
84.500        67
84.520        47
84.540        73
84.560        47
84.580        27
84.600        80
84.620        47
84.640        53
84.660        47
84.680        53
84.700        47
84.720        40
84.740        33
84.760        73
84.780        53
84.800        73
84.820        80
84.840        40
84.860        93
84.880        40
84.900        33
84.920        33
84.940        47
84.960        40
84.980        47
85.000        60
85.020        67
85.040        53
85.060        47
85.080        40
85.100        67
85.120        73
85.140        27
85.160        47
85.180        53
85.200        33
85.220        47
85.240        40
85.260        40
85.280        60
85.300        40
85.320        33
85.340        47
85.360        60
85.380        27
85.400        27
85.420        67
85.440        40
85.460        27
85.480        33
85.500        73
85.520        40
85.540        47
85.560        53
85.580        20
85.600        67
85.620        27
85.640        73
85.660       107
85.680        80
85.700        60
85.720        47
85.740        60
85.760        40
85.780        33
85.800        40
85.820        47
85.840        67
85.860        80
85.880        33
85.900        40
85.920        33
85.940        47
85.960        27
85.980        47
86.000        40
86.020        53
86.040        60
86.060        27
86.080        33
86.100        40
86.120        40
86.140        87
86.160        40
86.180        47
86.200        60
86.220        27
86.240        60
86.260        27
86.280        60
86.300        47
86.320        33
86.340        47
86.360        40
86.380        27
86.400        33
86.420        53
86.440        40
86.460        33
86.480        60
86.500        53
86.520        87
86.540        47
86.560        60
86.580        33
86.600        40
86.620        27
86.640        13
86.660        53
86.680        47
86.700        47
86.720        47
86.740        33
86.760        73
86.780        27
86.800        53
86.820        13
86.840        20
86.860        53
86.880        40
86.900        40
86.920        53
86.940        27
86.960        33
86.980        87
87.000        33
87.020        33
87.040        47
87.060        13
87.080        40
87.100        33
87.120        20
87.140        33
87.160        20
87.180        27
87.200        73
87.220        27
87.240        67
87.260        13
87.280        40
87.300        67
87.320        53
87.340         7
87.360        20
87.380         7
87.400         7
87.420        40
87.440        53
87.460        13
87.480        40
87.500        73
87.520        33
87.540        27
87.560        53
87.580        53
87.600        53
87.620        40
87.640        27
87.660         7
87.680        33
87.700        53
87.720        47
87.740        27
87.760        27
87.780        13
87.800        53
87.820        53
87.840        33
87.860        27
87.880        60
87.900        47
87.920        47
87.940         0
87.960        47
87.980        33
88.000        93
88.020        40
88.040        73
88.060         7
88.080        40
88.100        67
88.120        40
88.140        20
88.160        33
88.180        33
88.200        20
88.220        13
88.240        27
88.260        47
88.280        33
88.300        40
88.320        47
88.340        33
88.360        27
88.380        27
88.400        53
88.420        40
88.440        60
88.460        27
88.480        20
88.500        67
88.520        67
88.540        40
88.560        47
88.580        47
88.600        60
88.620        67
88.640        27
88.660        40
88.680        33
88.700        47
88.720        47
88.740        67
88.760        47
88.780        33
88.800        40
88.820        33
88.840        20
88.860        27
88.880        33
88.900        73
88.920         7
88.940        40
88.960        13
88.980        20
89.000        40
89.020        47
89.040        27
89.060        60
89.080        53
89.100        27
89.120        13
89.140        33
89.160        27
89.180        33
89.200         7
89.220        33
89.240        13
89.260        47
89.280        20
89.300        40
89.320        47
89.340        73
89.360        40
89.380        33
89.400        27
89.420        27
89.440        20
89.460        33
89.480        33
89.500        40
89.520        27
89.540        20
89.560        33
89.580        53
89.600        27
89.620        27
89.640        33
89.660        33
89.680        47
89.700        33
89.720        40
89.740        20
89.760        40
89.780        40
89.800        20
89.820        40
89.840        67
89.860        20
89.880        33
89.900        53
89.920        40
89.940        47
89.960         0
89.980         0
90.000         0
