20.000         0
20.020         0
20.040         0
20.060         0
20.080       413
20.100       327
20.120       240
20.140       333
20.160       373
20.180       320
20.200       360
20.220       380
20.240       367
20.260       480
20.280       373
20.300       273
20.320       340
20.340       360
20.360       440
20.380       440
20.400       340
20.420       347
20.440       426
20.460       327
20.480       393
20.500       373
20.520       353
20.540       380
20.560       433
20.580       393
20.600       440
20.620       407
20.640       407
20.660       333
20.680       413
20.700       360
20.720       353
20.740       307
20.760       353
20.780       373
20.800       227
20.820       453
20.840       387
20.860       400
20.880       140
20.900       446
20.920       280
20.940       340
20.960       540
20.980       413
21.000       193
21.020       407
21.040       566
21.060       353
21.080       413
21.100       506
21.120       373
21.140       533
21.160       387
21.180       466
21.200       733
21.220       473
21.240       620
21.260       586
21.280       453
21.300       526
21.320       513
21.340       400
21.360       460
21.380       520
21.400       253
21.420       353
21.440       387
21.460       353
21.480       287
21.500       207
21.520       240
21.540       220
21.560       180
21.580       320
21.600       240
21.620       193
21.640        93
21.660       193
21.680       113
21.700       173
21.720       227
21.740        87
21.760        80
21.780       200
21.800        93
21.820       147
21.840        93
21.860        33
21.880       113
21.900        73
21.920        33
21.940       133
21.960       120
21.980       187
22.000       100
22.020       127
22.040        67
22.060         0
22.080        60
22.100        93
22.120         7
22.140        33
22.160        80
22.180        87
22.200       113
22.220         0
22.240       167
22.260        20
22.280         0
22.300        40
22.320       107
22.340        60
22.360        47
22.380        53
22.400        53
22.420        53
22.440        27
22.460        47
22.480        73
22.500         0
22.520         7
22.540         7
22.560       153
22.580         0
22.600         0
22.620        80
22.640        73
22.660         0
22.680       120
22.700        33
22.720       167
22.740         0
22.760        53
22.780       187
22.800       160
22.820       173
22.840         0
22.860       120
22.880        67
22.900       240
22.920        53
22.940        93
22.960       107
22.980       180
23.000       113
23.020       107
23.040       153
23.060         0
23.080       113
23.100       160
23.120        53
23.140       113
23.160         0
23.180        87
23.200        60
23.220       160
23.240         0
23.260       147
23.280        33
23.300        13
23.320         0
23.340         0
23.360        13
23.380       133
23.400         7
23.420         0
23.440       127
23.460        47
23.480         7
23.500        20
23.520        80
23.540       160
23.560         0
23.580       113
23.600       220
23.620         0
23.640       187
23.660        87
23.680        20
23.700       200
23.720       180
23.740       287
23.760        67
23.780        73
23.800       107
23.820         0
23.840         0
23.860        93
23.880         0
23.900        93
23.920         0
23.940         0
23.960       120
23.980        20
24.000         0
24.020        33
24.040         0
24.060         0
24.080        80
24.100        80
24.120        60
24.140       140
24.160         0
24.180        13
24.200         0
24.220        13
24.240        80
24.260         0
24.280        60
24.300         7
24.320        53
24.340       113
24.360       100
24.380         0
24.400       120
24.420       180
24.440        60
24.460       153
24.480       293
24.500       287
24.520       380
24.540       260
24.560       340
24.580       307
24.600       500
24.620       480
24.640       506
24.660       666
24.680       920
24.700       826
24.720       686
24.740       766
24.760       713
24.780       646
24.800       846
24.820       600
24.840       533
24.860       546
24.880       506
24.900       433
24.920       353
24.940       340
24.960       493
24.980       426
25.000       353
25.020       333
25.040       180
25.060       180
25.080       273
25.100       247
25.120       187
25.140       107
25.160       153
25.180        73
25.200        13
25.220         7
25.240       107
25.260        80
25.280         0
25.300        13
25.320        53
25.340        73
25.360       107
25.380       173
25.400        20
25.420         0
25.440        40
25.460        40
25.480         0
25.500       113
25.520        80
25.540         0
25.560        80
25.580         0
25.600       133
25.620         7
25.640        13
25.660         0
25.680        87
25.700         0
25.720         0
25.740         0
25.760         0
25.780        60
25.800         0
25.820         0
25.840        13
25.860         0
25.880        60
25.900         0
25.920         0
25.940       113
25.960        33
25.980        80
26.000         7
26.020        80
26.040         0
26.060        20
26.080        13
26.100        93
26.120       133
26.140        40
26.160        33
26.180        33
26.200       220
26.220       180
26.240       293
26.260       333
26.280       313
26.300       147
26.320       400
26.340       220
26.360       300
26.380       160
26.400       160
26.420       167
26.440       127
26.460        87
26.480         0
26.500       227
26.520       153
26.540        27
26.560         0
26.580        33
26.600       107
26.620        73
26.640        73
26.660         7
26.680        60
26.700        80
26.720        73
26.740         0
26.760         0
26.780        40
26.800        67
26.820        27
26.840         0
26.860        53
26.880         7
26.900        13
26.920         0
26.940        93
26.960         0
26.980       113
27.000        73
27.020         0
27.040         0
27.060        13
27.080        47
27.100        20
27.120         0
27.140         0
27.160        53
27.180        20
27.200         0
27.220        47
27.240         0
27.260        60
27.280       147
27.300         0
27.320        27
27.340        47
27.360         0
27.380         0
27.400       107
27.420         0
27.440        27
27.460         0
27.480         7
27.500         0
27.520        33
27.540       127
27.560         0
27.580        20
27.600        80
27.620        20
27.640        47
27.660        13
27.680        67
27.700         0
27.720         0
27.740         0
27.760         0
27.780         0
27.800        47
27.820        13
27.840         0
27.860       160
27.880         0
27.900       107
27.920        20
27.940       187
27.960         0
27.980        40
28.000         0
28.020         0
28.040         0
28.060       140
28.080        13
28.100        20
28.120         0
28.140       113
28.160       153
28.180         0
28.200         0
28.220        53
28.240        40
28.260         0
28.280         0
28.300        13
28.320        40
28.340         0
28.360        40
28.380        60
28.400       113
28.420         0
28.440       107
28.460        67
28.480        33
28.500       120
28.520       100
28.540         0
28.560       107
28.580        40
28.600        27
28.620        53
28.640       100
28.660         0
28.680         7
28.700        87
28.720        47
28.740        53
28.760       127
28.780        73
28.800        60
28.820        73
28.840       160
28.860       167
28.880       260
28.900       240
28.920       253
28.940       327
28.960       380
28.980       393
29.000       560
29.020       646
29.040       626
29.060       746
29.080       973
29.100       893
29.120      1046
29.140      1459
29.160      1553
29.180      1753
29.200      1773
29.220      1873
29.240      1739
29.260      1666
29.280      1826
29.300      1493
29.320      1533
29.340      1499
29.360      1086
29.380      1233
29.400       880
29.420       780
29.440       880
29.460       746
29.480       513
29.500       433
29.520       367
29.540       267
29.560       327
29.580       233
29.600       107
29.620        33
29.640        60
29.660       113
29.680       127
29.700       107
29.720        20
29.740         0
29.760        33
29.780         0
29.800        20
29.820         7
29.840         7
29.860         0
29.880         0
29.900         0
29.920         0
29.940       113
29.960        40
29.980        27
30.000        13
30.020         0
30.040         0
30.060         0
30.080        33
30.100        53
30.120         0
30.140        13
30.160         7
30.180         0
30.200        60
30.220        20
30.240        13
30.260         0
30.280         7
30.300         0
30.320        40
30.340        93
30.360         7
30.380         0
30.400         0
30.420       100
30.440         0
30.460        53
30.480       100
30.500         0
30.520        73
30.540         0
30.560        27
30.580         0
30.600         0
30.620       127
30.640         0
30.660        53
30.680        73
30.700         0
30.720        80
30.740         0
30.760         0
30.780       127
30.800         0
30.820         0
30.840         0
30.860        53
30.880       147
30.900        27
30.920         0
30.940        47
30.960         0
30.980        20
31.000         0
31.020        27
31.040       113
31.060        47
31.080       133
31.100       100
31.120        47
31.140        73
31.160        80
31.180         7
31.200        73
31.220         0
31.240        80
31.260        53
31.280        33
31.300        93
31.320        53
31.340        47
31.360       113
31.380        53
31.400       133
31.420        33
31.440        53
31.460         0
31.480         0
31.500        27
31.520        73
31.540         0
31.560        73
31.580         0
31.600         0
31.620         0
31.640        40
31.660       100
31.680         0
31.700       133
31.720         0
31.740         0
31.760        73
31.780       120
31.800       100
31.820        20
31.840        13
31.860        20
31.880        60
31.900         0
31.920        33
31.940         0
31.960         0
31.980         0
32.000        60
32.020       140
32.040         0
32.060        27
32.080         0
32.100        20
32.120         7
32.140        13
32.160         0
32.180       107
32.200         0
32.220        67
32.240         0
32.260         0
32.280        40
32.300        27
32.320        47
32.340         0
32.360       160
32.380        53
32.400         0
32.420        27
32.440        47
32.460        87
32.480       127
32.500        53
32.520        60
32.540         0
32.560         0
32.580        60
32.600        73
32.620        33
32.640         0
32.660        27
32.680         7
32.700         0
32.720       127
32.740        80
32.760        67
32.780       127
32.800        27
32.820        73
32.840        73
32.860         0
32.880         0
32.900        40
32.920         0
32.940        40
32.960         0
32.980         0
33.000        13
33.020        47
33.040        60
33.060        67
33.080         7
33.100        67
33.120        67
33.140         7
33.160         0
33.180        80
33.200       107
33.220         0
33.240         0
33.260        53
33.280        27
33.300         0
33.320         0
33.340        67
33.360       100
33.380         0
33.400         0
33.420        33
33.440       100
33.460         0
33.480        53
33.500         0
33.520         0
33.540         0
33.560        27
33.580        20
33.600         0
33.620       127
33.640        20
33.660        80
33.680        20
33.700         0
33.720        13
33.740        13
33.760         0
33.780         0
33.800        20
33.820         0
33.840        13
33.860       100
33.880         0
33.900         7
33.920         0
33.940         0
33.960         0
33.980         0
34.000        87
34.020        93
34.040        40
34.060        33
34.080        73
34.100         0
34.120         0
34.140         0
34.160        67
34.180         0
34.200         0
34.220         7
34.240         0
34.260       107
34.280         0
34.300         0
34.320         0
34.340        13
34.360        67
34.380        40
34.400       100
34.420         0
34.440         0
34.460        93
34.480        53
34.500         0
34.520         0
34.540       100
34.560         0
34.580         0
34.600         0
34.620        13
34.640         0
34.660        80
34.680       120
34.700        20
34.720         0
34.740        33
34.760        73
34.780        67
34.800        93
34.820        73
34.840        80
34.860        40
34.880       147
34.900        87
34.920        87
34.940         0
34.960        67
34.980        47
35.000        93
35.020         0
35.040         0
35.060         0
35.080         0
35.100        93
35.120       120
35.140        40
35.160        87
35.180        73
35.200        27
35.220       107
35.240        20
35.260       160
35.280        87
35.300         0
35.320        20
35.340        13
35.360         0
35.380         0
35.400       100
35.420       107
35.440        40
35.460         0
35.480       100
35.500       107
35.520       167
35.540       133
35.560        73
35.580        93
35.600       127
35.620        87
35.640       233
35.660       240
35.680       153
35.700       333
35.720       293
35.740       213
35.760       280
35.780       367
35.800       320
35.820       400
35.840       333
35.860       247
35.880       433
35.900       207
35.920       253
35.940       247
35.960       227
35.980       100
36.000       320
36.020       173
36.040        93
36.060       153
36.080         0
36.100       107
36.120         0
36.140       100
36.160         7
36.180         0
36.200         0
36.220         0
36.240         0
36.260       127
36.280         0
36.300       133
36.320       140
36.340       147
36.360        40
36.380         0
36.400         0
36.420        80
36.440        80
36.460        73
36.480         0
36.500        27
36.520        87
36.540        53
36.560         0
36.580        73
36.600        60
36.620        27
36.640         0
36.660         0
36.680         0
36.700         0
36.720        13
36.740        20
36.760       107
36.780         0
36.800        40
36.820         0
36.840        40
36.860        87
36.880         0
36.900         0
36.920         0
36.940         0
36.960         0
36.980         0
37.000         0
37.020         0
37.040         0
37.060        67
37.080         0
37.100         0
37.120         0
37.140         0
37.160         0
37.180        47
37.200         0
37.220         0
37.240         0
37.260         7
37.280        47
37.300        40
37.320        27
37.340         0
37.360         0
37.380        33
37.400        27
37.420        60
37.440       120
37.460       127
37.480       113
37.500        33
37.520        80
37.540       200
37.560         0
37.580       133
37.600       127
37.620       160
37.640       140
37.660         0
37.680       100
37.700        47
37.720        27
37.740         0
37.760       160
37.780         0
37.800         0
37.820       160
37.840       160
37.860       160
37.880        93
37.900         0
37.920         0
37.940       153
37.960       133
37.980        73
38.000        53
38.020       107
38.040        87
38.060       153
38.080        87
38.100       160
38.120       227
38.140       147
38.160       233
38.180        40
38.200       247
38.220       107
38.240       247
38.260        73
38.280       120
38.300       240
38.320       180
38.340       153
38.360       107
38.380       173
38.400       113
38.420       280
38.440       313
38.460       207
38.480       113
38.500         7
38.520       220
38.540       120
38.560        87
38.580         0
38.600        87
38.620        67
38.640       113
38.660        27
38.680         7
38.700        27
38.720         0
38.740        87
38.760        33
38.780       160
38.800        20
38.820        73
38.840       107
38.860       207
38.880       227
38.900       227
38.920       200
38.940       200
38.960        87
38.980       240
39.000       160
39.020       240
39.040       233
39.060       207
39.080       353
39.100       373
39.120       420
39.140       440
39.160       420
39.180       513
39.200       566
39.220       506
39.240       633
39.260       573
39.280       586
39.300       420
39.320       486
39.340       453
39.360       473
39.380       340
39.400       287
39.420       280
39.440       240
39.460       300
39.480       220
39.500       200
39.520        33
39.540       100
39.560        80
39.580        33
39.600         0
39.620         7
39.640        80
39.660         0
39.680         7
39.700        40
39.720        33
39.740         0
39.760        40
39.780        60
39.800         0
39.820        40
39.840        73
39.860        13
39.880        13
39.900         0
39.920        40
39.940       100
39.960        27
39.980       107
40.000       100
40.020        20
40.040        60
40.060        60
40.080        53
40.100         7
40.120         0
40.140        27
40.160         0
40.180         0
40.200       127
40.220        60
40.240        33
40.260         0
40.280        47
40.300        53
40.320        47
40.340        80
40.360       220
40.380        80
40.400        93
40.420         7
40.440        53
40.460        40
40.480        80
40.500         0
40.520        80
40.540        47
40.560        13
40.580         0
40.600         0
40.620         0
40.640         0
40.660        67
40.680        40
40.700         0
40.720         0
40.740         0
40.760       100
40.780         0
40.800        40
40.820       100
40.840        47
40.860         0
40.880        40
40.900        20
40.920         0
40.940        40
40.960         0
40.980       127
41.000        73
41.020        67
41.040        47
41.060         0
41.080       173
41.100         0
41.120        87
41.140         0
41.160        33
41.180         0
41.200       167
41.220         0
41.240        20
41.260         0
41.280        13
41.300        33
41.320        27
41.340        27
41.360         0
41.380         7
41.400        53
41.420         0
41.440         0
41.460         0
41.480        67
41.500        27
41.520         0
41.540        80
41.560         0
41.580       100
41.600        53
41.620         0
41.640         0
41.660        33
41.680         0
41.700         0
41.720        67
41.740         0
41.760       167
41.780         0
41.800         0
41.820        60
41.840        20
41.860         0
41.880         0
41.900        53
41.920         0
41.940         0
41.960        33
41.980        27
42.000         0
42.020        33
42.040         0
42.060         7
42.080         0
42.100         0
42.120         7
42.140        80
42.160        40
42.180         0
42.200        60
42.220         0
42.240         0
42.260         0
42.280         0
42.300         0
42.320        40
42.340        80
42.360         0
42.380        53
42.400        73
42.420        80
42.440        33
42.460         0
42.480        13
42.500        87
42.520        87
42.540         0
42.560         0
42.580       120
42.600        87
42.620        53
42.640        60
42.660       107
42.680       153
42.700       120
42.720         0
42.740       187
42.760         0
42.780        40
42.800       193
42.820       247
42.840       213
42.860       200
42.880       353
42.900       180
42.920       426
42.940       280
42.960       240
42.980       407
43.000       520
43.020       393
43.040       273
43.060       320
43.080       373
43.100       333
43.120       187
43.140       167
43.160       213
43.180       267
43.200       127
43.220       113
43.240       147
43.260        47
43.280        33
43.300        33
43.320        33
43.340        67
43.360        53
43.380         0
43.400        60
43.420        87
43.440        33
43.460         7
43.480         0
43.500       127
43.520        40
43.540        40
43.560        53
43.580       180
43.600       193
43.620        87
43.640       253
43.660       253
43.680       167
43.700       320
43.720       267
43.740       533
43.760       680
43.780       920
43.800      1493
43.820      2619
43.840      4378
43.860      5038
43.880      6144
43.900      6751
43.920      6717
43.940      6617
43.960      5804
43.980      4258
44.000      3545
44.020      3845
44.040      3872
44.060      2706
44.080      1893
44.100       753
44.120       473
44.140       426
44.160       193
44.180       227
44.200        33
44.220       120
44.240         0
44.260       100
44.280        27
44.300        27
44.320       113
44.340        20
44.360         0
44.380        13
44.400        33
44.420        27
44.440         0
44.460       107
44.480         0
44.500         0
44.520         0
44.540         0
44.560         0
44.580         0
44.600         0
44.620         0
44.640        13
44.660        47
44.680         0
44.700         7
44.720         0
44.740         0
44.760        27
44.780        27
44.800         7
44.820         0
44.840         0
44.860         0
44.880        73
44.900         0
44.920         0
44.940         0
44.960        60
44.980         0
45.000         0
45.020        33
45.040        33
45.060        80
45.080       127
45.100        53
45.120         0
45.140        60
45.160        40
45.180        13
45.200        93
45.220         0
45.240       167
45.260         7
45.280        40
45.300         0
45.320        73
45.340       107
45.360       153
45.380        80
45.400         0
45.420        93
45.440       147
45.460        40
45.480       180
45.500        27
45.520        27
45.540       113
45.560       120
45.580         0
45.600         0
45.620        40
45.640         0
45.660         7
45.680        73
45.700        13
45.720       120
45.740         0
45.760         0
45.780        53
45.800        73
45.820       100
45.840       180
45.860         0
45.880         0
45.900         0
45.920         0
45.940         0
45.960         0
45.980         0
46.000         0
46.020        80
46.040        20
46.060         0
46.080         0
46.100         0
46.120         0
46.140         0
46.160         0
46.180         0
46.200         0
46.220         0
46.240        80
46.260         0
46.280         0
46.300        27
46.320        87
46.340        73
46.360         0
46.380        33
46.400         7
46.420       127
46.440         0
46.460       120
46.480       113
46.500        47
46.520         0
46.540       107
46.560       140
46.580        60
46.600        20
46.620        60
46.640        27
46.660        47
46.680         0
46.700       100
46.720         7
46.740         0
46.760       113
46.780       120
46.800       107
46.820       107
46.840       113
46.860       213
46.880       260
46.900       173
46.920       247
46.940       280
46.960       127
46.980        20
47.000       200
47.020       400
47.040       307
47.060       200
47.080       167
47.100       147
47.120       187
47.140       200
47.160       300
47.180       380
47.200       273
47.220       307
47.240       493
47.260       440
47.280       600
47.300       533
47.320       640
47.340       720
47.360       700
47.380       633
47.400       566
47.420       466
47.440       433
47.460       440
47.480       566
47.500       553
47.520       240
47.540       287
47.560       367
47.580       207
47.600        47
47.620        80
47.640       127
47.660        87
47.680       353
47.700        73
47.720         0
47.740       167
47.760        73
47.780        93
47.800         0
47.820        53
47.840        60
47.860         0
47.880         0
47.900         0
47.920        73
47.940         0
47.960        67
47.980       140
48.000        27
48.020        53
48.040       147
48.060        60
48.080        73
48.100        40
48.120       107
48.140       167
48.160       147
48.180       287
48.200       273
48.220       327
48.240       433
48.260       500
48.280       466
48.300       620
48.320       480
48.340       540
48.360       493
48.380       586
48.400       593
48.420       613
48.440       606
48.460       520
48.480       320
48.500       307
48.520       307
48.540       413
48.560       320
48.580       173
48.600       113
48.620        73
48.640        33
48.660        13
48.680       240
48.700       100
48.720        33
48.740        27
48.760         0
48.780         0
48.800         0
48.820         0
48.840        80
48.860         0
48.880         0
48.900         0
48.920         0
48.940         0
48.960         0
48.980        53
49.000        13
49.020         0
49.040        13
49.060        73
49.080         0
49.100         0
49.120         0
49.140         0
49.160         0
49.180       107
49.200        27
49.220         0
49.240         0
49.260         0
49.280        73
49.300        87
49.320         0
49.340         0
49.360         0
49.380         0
49.400         0
49.420         0
49.440        27
49.460        60
49.480         7
49.500         0
49.520         0
49.540        73
49.560         7
49.580        33
49.600        47
49.620        27
49.640        60
49.660        33
49.680        40
49.700         7
49.720        27
49.740        33
49.760         0
49.780        53
49.800        53
49.820        73
49.840        20
49.860         0
49.880        13
49.900        33
49.920        20
49.940         0
49.960        20
49.980         0
50.000       120
50.020        53
50.040         0
50.060         0
50.080         0
50.100         0
50.120       107
50.140         0
50.160        13
50.180         0
50.200         0
50.220        73
50.240        53
50.260        20
50.280        73
50.300         0
50.320        53
50.340        73
50.360        47
50.380        13
50.400         7
50.420        47
50.440        20
50.460        60
50.480         0
50.500        73
50.520         0
50.540        67
50.560         0
50.580        73
50.600         0
50.620       107
50.640        27
50.660         0
50.680        73
50.700        67
50.720       127
50.740        13
50.760         0
50.780       127
50.800        87
50.820        53
50.840       140
50.860        80
50.880       120
50.900       180
50.920        33
50.940        73
50.960        80
50.980        93
51.000        87
51.020        60
51.040       127
51.060        33
51.080        20
51.100        33
51.120        13
51.140        27
51.160         7
51.180        73
51.200         0
51.220        27
51.240        67
51.260         0
51.280         0
51.300         0
51.320         0
51.340         7
51.360       140
51.380         0
51.400        33
51.420         0
51.440        73
51.460         0
51.480        27
51.500         0
51.520        47
51.540        20
51.560        20
51.580         0
51.600        67
51.620         0
51.640        33
51.660        47
51.680        40
51.700        27
51.720        73
51.740         0
51.760         7
51.780        33
51.800        40
51.820        47
51.840         0
51.860         0
51.880        13
51.900       173
51.920        33
51.940        40
51.960        60
51.980         0
52.000         0
52.020         0
52.040         0
52.060       113
52.080         0
52.100         0
52.120         0
52.140         0
52.160         0
52.180         0
52.200         0
52.220         0
52.240         0
52.260         0
52.280         0
52.300         0
52.320       167
52.340        27
52.360        47
52.380        60
52.400         0
52.420        53
52.440        13
52.460        20
52.480         0
52.500        20
52.520        40
52.540        20
52.560         0
52.580         0
52.600         0
52.620         0
52.640        20
52.660        20
52.680         0
52.700         0
52.720        33
52.740        80
52.760         0
52.780        47
52.800         0
52.820       107
52.840        47
52.860        53
52.880        60
52.900        53
52.920         0
52.940         0
52.960         0
52.980         0
53.000         0
53.020        53
53.040         0
53.060        60
53.080         0
53.100        13
53.120       120
53.140         0
53.160        33
53.180         0
53.200         0
53.220         0
53.240        20
53.260         0
53.280        80
53.300        47
53.320        13
53.340        80
53.360        47
53.380        67
53.400         0
53.420        20
53.440         0
53.460        20
53.480         7
53.500        40
53.520         0
53.540         0
53.560        20
53.580         0
53.600        53
53.620         0
53.640         0
53.660         0
53.680       107
53.700        40
53.720        40
53.740        87
53.760        13
53.780        53
53.800         0
53.820         0
53.840         0
53.860        20
53.880         0
53.900         0
53.920         0
53.940        87
53.960        40
53.980       100
54.000        47
54.020        40
54.040        13
54.060         0
54.080        80
54.100        53
54.120        20
54.140        13
54.160        80
54.180         0
54.200         0
54.220         0
54.240         0
54.260        33
54.280        33
54.300        67
54.320        13
54.340        80
54.360        47
54.380         0
54.400         0
54.420         0
54.440       120
54.460       180
54.480       140
54.500         0
54.520         0
54.540         0
54.560         7
54.580        53
54.600       113
54.620         7
54.640        47
54.660        53
54.680       167
54.700        53
54.720       147
54.740        87
54.760        60
54.780       107
54.800         0
54.820       113
54.840       133
54.860        47
54.880        93
54.900        73
54.920       113
54.940       113
54.960       147
54.980        73
55.000       107
55.020         0
55.040       100
55.060       133
55.080       140
55.100        73
55.120       120
55.140         0
55.160       127
55.180       147
55.200       173
55.220        80
55.240       133
55.260        80
55.280        87
55.300         0
55.320        80
55.340        40
55.360         0
55.380         0
55.400         0
55.420         0
55.440        53
55.460       133
55.480        20
55.500        53
55.520        13
55.540        13
55.560         0
55.580         0
55.600         0
55.620         0
55.640         7
55.660         0
55.680         0
55.700        67
55.720         0
55.740        33
55.760         0
55.780        53
55.800         7
55.820        13
55.840         0
55.860         0
55.880        13
55.900        53
55.920        93
55.940         7
55.960         0
55.980        27
56.000         0
56.020        67
56.040        60
56.060        27
56.080         0
56.100         0
56.120         0
56.140        60
56.160         0
56.180        40
56.200        87
56.220         7
56.240       187
56.260         0
56.280         0
56.300         7
56.320         0
56.340        47
56.360       207
56.380       113
56.400        80
56.420       193
56.440        67
56.460       107
56.480       260
56.500        67
56.520       147
56.540       187
56.560       100
56.580       113
56.600       253
56.620        80
56.640        27
56.660        60
56.680        93
56.700       267
56.720        87
56.740       133
56.760        87
56.780       127
56.800         0
56.820       100
56.840       113
56.860        13
56.880        40
56.900        67
56.920        67
56.940        60
56.960        93
56.980         0
57.000        60
57.020         0
57.040       127
57.060       227
57.080        80
57.100        60
57.120       187
57.140       173
57.160       133
57.180       293
57.200       193
57.220       173
57.240       187
57.260       227
57.280       247
57.300       220
57.320       207
57.340       300
57.360       187
57.380       293
57.400       113
57.420       187
57.440       120
57.460        60
57.480       207
57.500        20
57.520        33
57.540        13
57.560        73
57.580         0
57.600         0
57.620         0
57.640       160
57.660         0
57.680         0
57.700       133
57.720       100
57.740        20
57.760        67
57.780         0
57.800       107
57.820       107
57.840         0
57.860        60
57.880        87
57.900       147
57.920       153
57.940        27
57.960        93
57.980        47
58.000         0
58.020       187
58.040         0
58.060       107
58.080        33
58.100         0
58.120         0
58.140        40
58.160         7
58.180         0
58.200       187
58.220         0
58.240         0
58.260        13
58.280         0
58.300        33
58.320        33
58.340         0
58.360        40
58.380         0
58.400         0
58.420        93
58.440         0
58.460         0
58.480         0
58.500         0
58.520        20
58.540        13
58.560        40
58.580         0
58.600       100
58.620         0
58.640         0
58.660         0
58.680         0
58.700         0
58.720         0
58.740         0
58.760        47
58.780        67
58.800         0
58.820        40
58.840         0
58.860        53
58.880         7
58.900         0
58.920         0
58.940         0
58.960         0
58.980       100
59.000        47
59.020        40
59.040        73
59.060         0
59.080         7
59.100         0
59.120        33
59.140         0
59.160         0
59.180       100
59.200         0
59.220         0
59.240         0
59.260        47
59.280         0
59.300         0
59.320         0
59.340        27
59.360        87
59.380        80
59.400         0
59.420         0
59.440         0
59.460        60
59.480        87
59.500        20
59.520        33
59.540        80
59.560         0
59.580        13
59.600        20
59.620        67
59.640        80
59.660        80
59.680        20
59.700        40
59.720         0
59.740         0
59.760         7
59.780       127
59.800        53
59.820        80
59.840        53
59.860         0
59.880        40
59.900        80
59.920        40
59.940       160
59.960        40
59.980        33
60.000        80
