20.000         0
20.020         0
20.040         0
20.060         0
20.080         0
20.100         0
20.120         0
20.140         0
20.160         0
20.180         0
20.200         0
20.220         0
20.240       130
20.260       257
20.280       233
20.300       210
20.320       223
20.340       193
20.360       207
20.380       203
20.400       193
20.420       230
20.440       213
20.460       200
20.480       247
20.500       200
20.520       213
20.540       230
20.560       213
20.580       227
20.600       243
20.620       247
20.640       247
20.660       253
20.680       233
20.700       227
20.720       250
20.740       297
20.760       260
20.780       227
20.800       213
20.820       290
20.840       250
20.860       223
20.880       230
20.900       197
20.920       237
20.940       253
20.960       157
20.980       227
21.000       230
21.020       207
21.040       200
21.060       187
21.080       237
21.100       217
21.120       227
21.140       240
21.160       257
21.180       230
21.200       217
21.220       227
21.240       223
21.260       223
21.280       223
21.300       223
21.320       150
21.340       247
21.360       247
21.380       227
21.400       237
21.420       217
21.440       250
21.460       253
21.480       207
21.500       273
21.520       213
21.540       237
21.560       220
21.580       237
21.600       217
21.620       253
21.640       260
21.660       270
21.680       220
21.700       220
21.720       207
21.740       267
21.760       197
21.780       233
21.800       250
21.820       240
21.840       230
21.860       240
21.880       263
21.900       283
21.920       200
21.940       230
21.960       230
21.980       197
22.000       217
22.020       203
22.040       207
22.060       207
22.080       203
22.100       167
22.120       180
22.140       143
22.160       230
22.180       227
22.200       223
22.220       180
22.240       233
22.260       193
22.280       230
22.300       187
22.320       227
22.340       177
22.360       233
22.380       230
22.400       240
22.420       227
22.440       260
22.460       257
22.480       247
22.500       227
22.520       210
22.540       207
22.560       250
22.580       220
22.600       243
22.620       183
22.640       213
22.660       240
22.680       213
22.700       203
22.720       183
22.740       243
22.760       190
22.780       230
22.800       250
22.820       203
22.840       277
22.860       203
22.880       270
22.900       210
22.920       213
22.940       180
22.960       207
22.980       203
23.000       180
23.020       250
23.040       210
23.060       243
23.080       220
23.100       197
23.120       193
23.140       207
23.160       263
23.180       203
23.200       180
23.220       257
23.240       177
23.260       180
23.280       197
23.300       250
23.320       257
23.340       207
23.360       220
23.380       233
23.400       200
23.420       220
23.440       200
23.460       233
23.480       183
23.500       193
23.520       203
23.540       163
23.560       237
23.580       203
23.600       220
23.620       203
23.640       230
23.660       210
23.680       173
23.700       253
23.720       213
23.740       203
23.760       170
23.780       193
23.800       193
23.820       193
23.840       210
23.860       237
23.880       193
23.900       197
23.920       177
23.940       180
23.960       213
23.980       227
24.000       250
24.020       220
24.040       180
24.060       177
24.080       207
24.100       197
24.120       200
24.140       230
24.160       150
24.180       180
24.200       200
24.220       220
24.240       270
24.260       240
24.280       220
24.300       207
24.320       183
24.340       180
24.360       217
24.380       277
24.400       213
24.420       227
24.440       193
24.460       207
24.480       213
24.500       180
24.520       220
24.540       200
24.560       177
24.580       260
24.600       190
24.620       237
24.640       173
24.660       160
24.680       173
24.700       217
24.720       213
24.740       190
24.760       207
24.780       163
24.800       197
24.820       217
24.840       197
24.860       200
24.880       233
24.900       207
24.920       240
24.940       197
24.960       173
24.980       250
25.000       210
25.020       143
25.040       227
25.060       230
25.080       177
25.100       270
25.120       190
25.140       230
25.160       167
25.180       180
25.200       167
25.220       227
25.240       167
25.260       213
25.280       207
25.300       177
25.320       247
25.340       257
25.360       197
25.380       203
25.400       193
25.420       220
25.440       200
25.460       290
25.480       223
25.500       223
25.520       237
25.540       317
25.560       330
25.580       377
25.600       430
25.620       370
25.640       337
25.660       280
25.680       237
25.700       237
25.720       217
25.740       197
25.760       237
25.780       163
25.800       187
25.820       177
25.840       163
25.860       190
25.880       170
25.900       143
25.920       183
25.940       210
25.960       163
25.980       193
26.000       210
26.020       180
26.040       203
26.060       173
26.080       160
26.100       167
26.120       247
26.140       217
26.160       233
26.180       233
26.200       210
26.220       180
26.240       223
26.260       183
26.280       210
26.300       210
26.320       240
26.340       200
26.360       267
26.380       157
26.400       190
26.420       193
26.440       243
26.460       177
26.480       197
26.500       210
26.520       213
26.540       163
26.560       193
26.580       193
26.600       200
26.620       187
26.640       217
26.660       280
26.680       200
26.700       177
26.720       233
26.740       167
26.760       167
26.780       183
26.800       173
26.820       207
26.840       217
26.860       173
26.880       207
26.900       210
26.920       203
26.940       210
26.960       203
26.980       153
27.000       163
27.020       213
27.040       220
27.060       187
27.080       227
27.100       180
27.120       213
27.140       203
27.160       180
27.180       197
27.200       237
27.220       173
27.240       227
27.260       197
27.280       153
27.300       220
27.320       200
27.340       183
27.360       147
27.380       200
27.400       197
27.420       207
27.440       167
27.460       180
27.480       170
27.500       183
27.520       223
27.540       187
27.560       177
27.580       177
27.600       250
27.620       227
27.640       240
27.660       197
27.680       220
27.700       243
27.720       160
27.740       167
27.760       250
27.780       197
27.800       153
27.820       197
27.840       210
27.860       200
27.880       217
27.900       217
27.920       197
27.940       150
27.960       210
27.980       230
28.000       187
28.020       160
28.040       193
28.060       120
28.080       160
28.100       193
28.120       193
28.140       200
28.160       207
28.180       180
28.200       187
28.220       173
28.240       193
28.260       153
28.280       187
28.300       187
28.320       173
28.340       200
28.360       200
28.380       220
28.400       173
28.420       197
28.440       233
28.460       197
28.480       120
28.500       223
28.520       233
28.540       173
28.560       180
28.580       183
28.600       207
28.620       163
28.640       167
28.660       187
28.680       213
28.700       193
28.720       160
28.740       157
28.760       217
28.780       160
28.800       190
28.820       207
28.840       230
28.860       193
28.880       183
28.900       180
28.920       230
28.940       193
28.960       157
28.980       190
29.000       167
29.020       203
29.040       197
29.060       163
29.080       213
29.100       217
29.120       190
29.140       237
29.160       193
29.180       143
29.200       143
29.220       167
29.240       167
29.260       160
29.280       187
29.300       170
29.320       183
29.340       203
29.360       200
29.380       167
29.400       170
29.420       157
29.440       183
29.460       183
29.480       177
29.500       207
29.520       210
29.540       190
29.560       130
29.580       183
29.600       153
29.620       197
29.640       197
29.660       197
29.680       170
29.700       157
29.720       203
29.740       193
29.760       170
29.780       140
29.800       163
29.820       143
29.840       193
29.860       153
29.880       213
29.900       153
29.920       163
29.940       213
29.960       217
29.980       207
30.000       170
30.020       187
30.040       160
30.060       167
30.080       177
30.100       130
30.120       113
30.140       170
30.160       153
30.180       180
30.200       203
30.220       190
30.240       127
30.260       210
30.280       130
30.300       173
30.320       197
30.340       170
30.360       163
30.380       203
30.400       150
30.420       180
30.440       173
30.460       127
30.480       133
30.500       163
30.520       150
30.540       123
30.560       203
30.580       170
30.600       123
30.620       167
30.640       200
30.660       177
30.680       193
30.700       160
30.720       183
30.740       153
30.760       173
30.780       157
30.800       197
30.820       217
30.840       203
30.860       170
30.880       200
30.900       200
30.920       227
30.940       220
30.960       253
30.980       190
31.000       257
31.020       220
31.040       247
31.060       247
31.080       233
31.100       230
31.120       233
31.140       200
31.160       220
31.180       180
31.200       143
31.220       170
31.240       140
31.260       133
31.280       147
31.300       140
31.320       150
31.340       163
31.360       197
31.380       187
31.400       160
31.420       193
31.440       167
31.460       103
31.480       163
31.500       133
31.520       133
31.540       163
31.560       197
31.580        93
31.600       137
31.620       187
31.640       157
31.660       130
31.680       160
31.700       150
31.720       160
31.740       187
31.760       173
31.780       153
31.800       123
31.820       137
31.840       123
31.860       147
31.880       127
31.900       170
31.920       147
31.940       127
31.960       157
31.980       153
32.000       153
32.020       133
32.040       127
32.060       113
32.080       147
32.100       143
32.120       157
32.140       103
32.160       120
32.180       120
32.200       143
32.220       120
32.240       123
32.260       133
32.280       123
32.300       117
32.320       133
32.340       127
32.360       133
32.380       137
32.400       143
32.420       120
32.440       153
32.460       130
32.480       173
32.500       120
32.520       107
32.540       143
32.560       110
32.580       123
32.600       113
32.620       143
32.640       163
32.660       117
32.680       100
32.700       110
32.720       123
32.740       143
32.760       143
32.780       163
32.800       130
32.820       123
32.840       117
32.860       160
32.880       133
32.900       123
32.920        90
32.940       157
32.960       153
32.980       140
33.000       120
33.020       110
33.040       107
33.060       130
33.080       137
33.100       137
33.120       133
33.140       133
33.160       117
33.180       107
33.200       117
33.220       140
33.240       127
33.260       137
33.280        80
33.300       120
33.320       113
33.340       113
33.360       127
33.380       130
33.400       170
33.420       137
33.440       103
33.460       140
33.480       167
33.500        83
33.520       130
33.540       103
33.560       140
33.580       103
33.600       130
33.620       103
33.640       140
33.660       123
33.680       110
33.700       120
33.720       140
33.740       107
33.760       120
33.780       133
33.800       117
33.820       103
33.840       103
33.860       163
33.880       100
33.900       123
33.920       127
33.940       130
33.960       140
33.980       153
34.000        73
34.020       137
34.040        67
34.060       117
34.080        97
34.100       120
34.120        97
34.140       103
34.160       103
34.180       130
34.200       107
34.220       137
34.240       113
34.260       117
34.280       123
34.300       133
34.320       100
34.340       120
34.360       107
34.380       143
34.400        97
34.420       107
34.440        93
34.460       143
34.480       107
34.500       120
34.520       130
34.540        83
34.560        87
34.580       103
34.600       117
34.620       123
34.640       100
34.660       110
34.680       113
34.700       123
34.720        87
34.740        83
34.760       123
34.780       133
34.800       143
34.820       160
34.840       117
34.860       130
34.880        97
34.900       127
34.920       120
34.940       117
34.960       123
34.980       203
35.000       173
35.020       230
35.040       270
35.060       350
35.080       413
35.100       553
35.120       700
35.140       943
35.160      1263
35.180      1373
35.200      1056
35.220       866
35.240       656
35.260       680
35.280       650
35.300       483
35.320       267
35.340       173
35.360       117
35.380       137
35.400       143
35.420       177
35.440       137
35.460       103
35.480        93
35.500       137
35.520       110
35.540       160
35.560       100
35.580       120
35.600       100
35.620       117
35.640       123
35.660       137
35.680       143
35.700       107
35.720        80
35.740       120
35.760       110
35.780       163
35.800       137
35.820       110
35.840        93
35.860       107
35.880       113
35.900        77
35.920        83
35.940       113
35.960        97
35.980       117
36.000       143
36.020        93
36.040       127
36.060       100
36.080        77
36.100        63
36.120       130
36.140        87
36.160        93
36.180       113
36.200        93
36.220       107
36.240        87
36.260       100
36.280       110
36.300       117
36.320        80
36.340        97
36.360       137
36.380        63
36.400       137
36.420       100
36.440        87
36.460        93
36.480       120
36.500        97
36.520       103
36.540        90
36.560       120
36.580        97
36.600        93
36.620        73
36.640       100
36.660        70
36.680        90
36.700       103
36.720        97
36.740       110
36.760       127
36.780       113
36.800        87
36.820       100
36.840        90
36.860       100
36.880       113
36.900       127
36.920        93
36.940       107
36.960        83
36.980       120
37.000       123
37.020       133
37.040       123
37.060       167
37.080       113
37.100       113
37.120       110
37.140       107
37.160        97
37.180       107
37.200        83
37.220       130
37.240       110
37.260        97
37.280        93
37.300        93
37.320       123
37.340        87
37.360       103
37.380       103
37.400       120
37.420       100
37.440       113
37.460       123
37.480        73
37.500       127
37.520        87
37.540       110
37.560        97
37.580       110
37.600       107
37.620        97
37.640       123
37.660       127
37.680       140
37.700       100
37.720       153
37.740       177
37.760       183
37.780       247
37.800       297
37.820       240
37.840       243
37.860       220
37.880       250
37.900       247
37.920       180
37.940       163
37.960       117
37.980       147
38.000       120
38.020       133
38.040       137
38.060       123
38.080       123
38.100       137
38.120       130
38.140       157
38.160       177
38.180       137
38.200       177
38.220       187
38.240       177
38.260       153
38.280       167
38.300       180
38.320       190
38.340       170
38.360       153
38.380       173
38.400       160
38.420       163
38.440       143
38.460       133
38.480       127
38.500       147
38.520       110
38.540       107
38.560       103
38.580       107
38.600       130
38.620       127
38.640       110
38.660       110
38.680       107
38.700       103
38.720       140
38.740        87
38.760       143
38.780       127
38.800        80
38.820       157
38.840        70
38.860       127
38.880        93
38.900       117
38.920        93
38.940       117
38.960        80
38.980       110
39.000       150
39.020       127
39.040       123
39.060       110
39.080        67
39.100        70
39.120       113
39.140       127
39.160       103
39.180        83
39.200        87
39.220       100
39.240       103
39.260        97
39.280       117
39.300        93
39.320       113
39.340       120
39.360       103
39.380       107
39.400       130
39.420        97
39.440       107
39.460        97
39.480       103
39.500        97
39.520       120
39.540        97
39.560       130
39.580        97
39.600        87
39.620        93
39.640        97
39.660       103
39.680       100
39.700       100
39.720        97
39.740        90
39.760        97
39.780       113
39.800       107
39.820       127
39.840        90
39.860        70
39.880        83
39.900        77
39.920       100
39.940        97
39.960        70
39.980        80
40.000       103
40.020        80
40.040        80
40.060       113
40.080        93
40.100        97
40.120       100
40.140       107
40.160       120
40.180        97
40.200        77
40.220       107
40.240        93
40.260       107
40.280       120
40.300       110
40.320        73
40.340        60
40.360        70
40.380       130
40.400        80
40.420        93
40.440       127
40.460       117
40.480       127
40.500       100
40.520       110
40.540       147
40.560       107
40.580       107
40.600       103
40.620        70
40.640       137
40.660       133
40.680       100
40.700        87
40.720        73
40.740        77
40.760        80
40.780       113
40.800       103
40.820       100
40.840        80
40.860        87
40.880        93
40.900       107
40.920        90
40.940        73
40.960       113
40.980        97
41.000       110
41.020       120
41.040        83
41.060        93
41.080       100
41.100        87
41.120       120
41.140       120
41.160       127
41.180       127
41.200        90
41.220       107
41.240        90
41.260       100
41.280       110
41.300        97
41.320       110
41.340        83
41.360       123
41.380       133
41.400       100
41.420        97
41.440       140
41.460        97
41.480       117
41.500        93
41.520       117
41.540       127
41.560       117
41.580       120
41.600       150
41.620       130
41.640       153
41.660       197
41.680       247
41.700       240
41.720       187
41.740       157
41.760       130
41.780       150
41.800       183
41.820       150
41.840       147
41.860       133
41.880       110
41.900        60
41.920       110
41.940       107
41.960        90
41.980       103
42.000       107
42.020        97
42.040        77
42.060       113
42.080        77
42.100       123
42.120        97
42.140        77
42.160        87
42.180       107
42.200       110
42.220        87
42.240       110
42.260       123
42.280       107
42.300       110
42.320       127
42.340        90
42.360       127
42.380       120
42.400        60
42.420       107
42.440        77
42.460       130
42.480        77
42.500       107
42.520       113
42.540        90
42.560       120
42.580       103
42.600       127
42.620       107
42.640       120
42.660       120
42.680        93
42.700       123
42.720        97
42.740        97
42.760       117
42.780       100
42.800       113
42.820       120
42.840       107
42.860        87
42.880       143
42.900       113
42.920       107
42.940       103
42.960       120
42.980       113
43.000        90
43.020        90
43.040        87
43.060        80
43.080       107
43.100       133
43.120       100
43.140       133
43.160       130
43.180       147
43.200       107
43.220       167
43.240       230
43.260       193
43.280       263
43.300       353
43.320       466
43.340       836
43.360      1040
43.380      1160
43.400      1046
43.420       623
43.440       483
43.460       523
43.480       600
43.500       563
43.520       436
43.540       267
43.560       170
43.580       173
43.600        80
43.620       153
43.640       110
43.660       117
43.680        93
43.700       103
43.720        93
43.740       127
43.760       110
43.780       100
43.800        63
43.820        97
43.840        93
43.860        80
43.880       110
43.900        97
43.920        90
43.940       117
43.960        73
43.980       110
44.000       117
44.020        97
44.040       100
44.060        70
44.080       120
44.100        87
44.120        93
44.140        87
44.160        73
44.180        93
44.200        93
44.220       110
44.240        70
44.260        83
44.280        93
44.300       110
44.320        97
44.340       120
44.360       113
44.380       133
44.400        90
44.420       120
44.440       137
44.460       123
44.480        97
44.500       123
44.520       100
44.540       123
44.560       123
44.580        93
44.600       147
44.620       133
44.640       123
44.660       140
44.680       107
44.700       110
44.720       120
44.740       120
44.760        73
44.780        97
44.800       123
44.820       117
44.840       140
44.860        73
44.880        83
44.900       130
44.920        77
44.940       100
44.960       120
44.980       113
45.000        97
45.020       110
45.040       100
45.060       100
45.080       130
45.100       103
45.120       130
45.140        90
45.160       110
45.180       107
45.200       137
45.220       117
45.240       117
45.260       107
45.280        90
45.300        87
45.320        60
45.340       110
45.360       110
45.380        93
45.400        80
45.420        93
45.440       110
45.460       120
45.480       107
45.500        97
45.520        90
45.540        87
45.560        93
45.580        73
45.600        97
45.620       100
45.640        37
45.660       107
45.680        70
45.700        83
45.720       100
45.740        70
45.760       100
45.780        83
45.800        70
45.820        77
45.840        73
45.860       127
45.880        83
45.900       117
45.920        80
45.940        53
45.960       113
45.980       103
46.000        87
46.020        67
46.040        90
46.060        90
46.080        97
46.100       117
46.120       103
46.140        73
46.160        90
46.180        90
46.200        97
46.220       100
46.240        93
46.260        97
46.280        63
46.300        77
46.320        97
46.340       100
46.360        80
46.380        83
46.400        87
46.420        73
46.440       103
46.460        77
46.480        87
46.500        80
46.520        93
46.540        90
46.560       120
46.580        80
46.600       103
46.620        93
46.640        83
46.660        73
46.680        97
46.700        90
46.720        80
46.740       103
46.760        77
46.780        67
46.800        87
46.820       107
46.840        93
46.860        53
46.880        73
46.900       100
46.920        93
46.940       107
46.960        60
46.980       100
47.000       110
47.020        77
47.040        87
47.060        67
47.080        77
47.100        90
47.120        73
47.140       110
47.160        70
47.180        80
47.200        93
47.220       107
47.240        87
47.260        90
47.280        57
47.300        77
47.320        60
47.340        87
47.360        97
47.380        77
47.400        87
47.420       117
47.440        87
47.460        73
47.480        93
47.500        70
47.520       117
47.540        73
47.560        87
47.580        80
47.600        83
47.620        80
47.640        67
47.660        80
47.680        60
47.700        87
47.720        83
47.740        93
47.760       120
47.780        80
47.800       100
47.820        90
47.840        60
47.860       113
47.880        87
47.900        70
47.920        97
47.940        93
47.960       113
47.980        90
48.000       120
48.020       107
48.040       103
48.060        97
48.080        53
48.100       113
48.120        57
48.140        87
48.160        90
48.180        83
48.200       110
48.220        83
48.240        70
48.260        87
48.280        83
48.300        77
48.320        83
48.340        83
48.360        87
48.380        87
48.400        97
48.420        67
48.440        80
48.460        90
48.480        70
48.500        87
48.520        83
48.540        93
48.560        83
48.580       107
48.600        80
48.620        60
48.640        73
48.660        77
48.680        67
48.700        70
48.720        90
48.740        83
48.760        93
48.780       113
48.800       110
48.820       107
48.840        90
48.860        73
48.880        77
48.900        77
48.920        97
48.940        90
48.960        87
48.980       103
49.000        90
49.020        80
49.040        97
49.060        83
49.080        67
49.100        90
49.120        77
49.140        67
49.160       100
49.180       100
49.200        87
49.220       100
49.240       117
49.260       107
49.280        57
49.300        93
49.320        87
49.340        77
49.360        73
49.380        77
49.400        67
49.420        90
49.440       110
49.460        83
49.480        73
49.500        93
49.520        80
49.540        60
49.560        73
49.580        70
49.600        97
49.620        73
49.640       113
49.660        90
49.680        73
49.700        67
49.720       107
49.740        97
49.760       100
49.780        87
49.800        70
49.820       103
49.840        83
49.860        70
49.880        67
49.900        77
49.920        83
49.940        83
49.960        83
49.980        90
50.000        70
50.020        87
50.040       103
50.060       107
50.080       107
50.100        83
50.120        83
50.140       107
50.160        90
50.180        83
50.200       127
50.220        87
50.240        70
50.260        87
50.280        97
50.300        63
50.320        63
50.340       103
50.360        57
50.380        63
50.400        67
50.420        90
50.440        87
50.460       107
50.480        93
50.500        67
50.520        73
50.540        87
50.560        73
50.580        90
50.600        77
50.620       103
50.640        97
50.660        57
50.680        90
50.700        97
50.720        73
50.740        97
50.760       103
50.780        73
50.800        93
50.820        83
50.840        80
50.860       113
50.880        83
50.900        87
50.920       113
50.940        77
50.960        97
50.980        87
51.000        60
51.020        87
51.040        93
51.060        83
51.080        73
51.100        97
51.120        43
51.140        80
51.160        93
51.180        53
51.200        53
51.220        70
51.240        67
51.260        80
51.280        73
51.300        67
51.320        77
51.340        87
51.360       117
51.380        73
51.400        73
51.420       127
51.440        87
51.460        87
51.480       103
51.500        73
51.520        90
51.540       133
51.560       120
51.580       120
51.600        87
51.620        83
51.640        63
51.660        77
51.680       107
51.700        80
51.720        70
51.740        87
51.760       117
51.780       110
51.800        57
51.820        87
51.840        67
51.860        70
51.880        60
51.900        80
51.920        53
51.940        70
51.960        67
51.980        77
52.000        70
52.020        83
52.040        83
52.060        80
52.080        90
52.100        70
52.120        87
52.140       110
52.160        73
52.180        97
52.200        67
52.220        70
52.240        70
52.260       107
52.280        60
52.300        90
52.320        83
52.340        87
52.360        77
52.380       110
52.400       120
52.420       120
52.440       103
52.460       147
52.480       137
52.500       227
52.520       303
52.540       413
52.560       423
52.580       660
52.600       620
52.620       570
52.640       363
52.660       243
52.680       243
52.700       370
52.720       337
52.740       370
52.760       297
52.780       177
52.800       120
52.820       110
52.840       137
52.860        73
52.880       100
52.900        70
52.920        87
52.940        60
52.960        63
52.980       107
53.000        77
53.020        70
53.040       113
53.060       107
53.080        73
53.100       100
53.120        80
53.140        77
53.160        73
53.180       113
53.200        70
53.220        80
53.240        77
53.260       107
53.280        60
53.300        60
53.320        77
53.340        83
53.360        63
53.380        63
53.400        73
53.420        70
53.440        70
53.460        90
53.480        57
53.500       103
53.520        87
53.540        83
53.560        70
53.580       107
53.600        73
53.620        90
53.640       103
53.660        60
53.680        87
53.700        80
53.720        70
53.740        60
53.760       100
53.780        97
53.800        83
53.820        83
53.840        80
53.860        60
53.880        87
53.900        90
53.920        83
53.940        63
53.960        70
53.980        77
54.000        93
54.020        67
54.040       113
54.060        67
54.080        60
54.100       103
54.120       103
54.140       100
54.160       100
54.180       110
54.200       117
54.220        87
54.240       110
54.260       110
54.280        77
54.300        90
54.320        70
54.340       100
54.360        60
54.380        67
54.400        90
54.420        93
54.440       100
54.460        97
54.480        77
54.500       100
54.520        87
54.540        80
54.560        77
54.580        83
54.600        70
54.620        70
54.640        57
54.660       100
54.680       107
54.700        97
54.720        90
54.740        70
54.760        63
54.780       110
54.800        77
54.820        90
54.840        73
54.860       120
54.880        93
54.900       100
54.920        97
54.940        90
54.960       113
54.980        87
55.000        90
55.020       100
55.040       120
55.060       107
55.080       143
55.100       130
55.120       137
55.140       130
55.160       153
55.180       113
55.200       147
55.220       133
55.240       120
55.260        87
55.280       173
55.300       110
55.320       160
55.340       133
55.360       137
55.380       117
55.400       123
55.420        57
55.440       103
55.460        87
55.480        83
55.500        83
55.520        83
55.540        87
55.560        90
55.580        83
55.600        83
55.620        90
55.640        90
55.660        67
55.680        83
55.700        77
55.720        90
55.740        77
55.760        93
55.780       100
55.800        83
55.820        80
55.840        83
55.860       110
55.880       110
55.900       117
55.920        53
55.940        93
55.960        90
55.980        77
56.000       110
56.020        73
56.040       113
56.060       100
56.080        93
56.100        83
56.120       107
56.140        80
56.160        83
56.180        63
56.200        97
56.220        93
56.240        93
56.260        83
56.280        87
56.300        90
56.320        97
56.340        73
56.360        87
56.380        73
56.400        93
56.420        87
56.440        60
56.460        90
56.480        77
56.500        67
56.520       100
56.540        83
56.560       140
56.580        63
56.600        93
56.620        83
56.640        87
56.660        93
56.680        77
56.700       100
56.720       120
56.740        57
56.760        77
56.780       100
56.800        93
56.820        57
56.840       110
56.860        60
56.880       103
56.900        87
56.920        50
56.940       100
56.960        80
56.980        97
57.000        60
57.020        77
57.040       107
57.060        77
57.080       100
57.100        93
57.120       133
57.140       123
57.160       143
57.180       110
57.200       130
57.220       107
57.240       127
57.260       127
57.280       117
57.300       133
57.320       163
57.340       183
57.360       180
57.380       327
57.400       357
57.420       613
57.440       820
57.460      1090
57.480      1413
57.500      1939
57.520      2142
57.540      2369
57.560      1853
57.580      1296
57.600       860
57.620       816
57.640       810
57.660      1143
57.680      1203
57.700      1050
57.720      1030
57.740       546
57.760       287
57.780       203
57.800       170
57.820       180
57.840       110
57.860       100
57.880       117
57.900       130
57.920        73
57.940       107
57.960       110
57.980        70
58.000        93
58.020        67
58.040        90
58.060        77
58.080        87
58.100        87
58.120        70
58.140        77
58.160        83
58.180        50
58.200        83
58.220        80
58.240        93
58.260        77
58.280        83
58.300        80
58.320        67
58.340       110
58.360        70
58.380        90
58.400        70
58.420        70
58.440        70
58.460       117
58.480        90
58.500        73
58.520        70
58.540       113
58.560        90
58.580        57
58.600        73
58.620       120
58.640       107
58.660        63
58.680        80
58.700       113
58.720        63
58.740        93
58.760        90
58.780        77
58.800        93
58.820       123
58.840        80
58.860        80
58.880        87
58.900        93
58.920        77
58.940        67
58.960       103
58.980        80
59.000        73
59.020       107
59.040        87
59.060        73
59.080        47
59.100       100
59.120        90
59.140       100
59.160        87
59.180       100
59.200        83
59.220        87
59.240       103
59.260        63
59.280        80
59.300        77
59.320        70
59.340        90
59.360        90
59.380        77
59.400        93
59.420        77
59.440        97
59.460       113
59.480        57
59.500        63
59.520        80
59.540        93
59.560        60
59.580       110
59.600       110
59.620        80
59.640        83
59.660        87
59.680       103
59.700        97
59.720        83
59.740        93
59.760       127
59.780       130
59.800       123
59.820        67
59.840        80
59.860        73
59.880        97
59.900        77
59.920        93
59.940        80
59.960       103
59.980        63
60.000        70
60.020        83
60.040        93
60.060        70
60.080        93
60.100        70
60.120        77
60.140        87
60.160        87
60.180        77
60.200        70
60.220        70
60.240        83
60.260        70
60.280        60
60.300        93
60.320        60
60.340        67
60.360        67
60.380        93
60.400        97
60.420        67
60.440        90
60.460        67
60.480        67
60.500        93
60.520        83
60.540       113
60.560        77
60.580        83
60.600        70
60.620        67
60.640        83
60.660        80
60.680        90
60.700        83
60.720        60
60.740        43
60.760        67
60.780        53
60.800        93
60.820        87
60.840        73
60.860        80
60.880        73
60.900        93
60.920       103
60.940       103
60.960       107
60.980        87
61.000       110
61.020       107
61.040       103
61.060        87
61.080       133
61.100       120
61.120       180
61.140       107
61.160       127
61.180       187
61.200       203
61.220       193
61.240       317
61.260       403
61.280       520
61.300       723
61.320       800
61.340       726
61.360       640
61.380       397
61.400       340
61.420       293
61.440       307
61.460       430
61.480       443
61.500       476
61.520       317
61.540       240
61.560       170
61.580       103
61.600       117
61.620        97
61.640       123
61.660        83
61.680       100
61.700        80
61.720        97
61.740        80
61.760        67
61.780        63
61.800        73
61.820        60
61.840        47
61.860        93
61.880        90
61.900        60
61.920        57
61.940       103
61.960        93
61.980        50
62.000        90
62.020        70
62.040        47
62.060        70
62.080        57
62.100        63
62.120        63
62.140        73
62.160        57
62.180        47
62.200        57
62.220        80
62.240        77
62.260        70
62.280        50
62.300        80
62.320        67
62.340        63
62.360        77
62.380        83
62.400       110
62.420        83
62.440        70
62.460        87
62.480       100
62.500        93
62.520        70
62.540        80
62.560       100
62.580        77
62.600        63
62.620        73
62.640        43
62.660        80
62.680        67
62.700        53
62.720        80
62.740        60
62.760        87
62.780       117
62.800        77
62.820        83
62.840        60
62.860        53
62.880        37
62.900        50
62.920        60
62.940        93
62.960        73
62.980        53
63.000        77
63.020        90
63.040        93
63.060        60
63.080        83
63.100        77
63.120        53
63.140       110
63.160        67
63.180       100
63.200        83
63.220        77
63.240        60
63.260        70
63.280        50
63.300        70
63.320        60
63.340        83
63.360        90
63.380        63
63.400        63
63.420        80
63.440        67
63.460        90
63.480        40
63.500        67
63.520        70
63.540        60
63.560        57
63.580        73
63.600        73
63.620        63
63.640        57
63.660        97
63.680        67
63.700        83
63.720        73
63.740       107
63.760        63
63.780        67
63.800        77
63.820       103
63.840        50
63.860        70
63.880        67
63.900        60
63.920        73
63.940        53
63.960        67
63.980        60
64.000        90
64.020        50
64.040        90
64.060        63
64.080        47
64.100        53
64.120        97
64.140        73
64.160        60
64.180        57
64.200        63
64.220        63
64.240        50
64.260       130
64.280        73
64.300        63
64.320        73
64.340        77
64.360        63
64.380        60
64.400        70
64.420        63
64.440        83
64.460        87
64.480        67
64.500        83
64.520        73
64.540        80
64.560        53
64.580        83
64.600        73
64.620        67
64.640        83
64.660        67
64.680        80
64.700        70
64.720        70
64.740       107
64.760       113
64.780        57
64.800        77
64.820        60
64.840        60
64.860        73
64.880       110
64.900        87
64.920        93
64.940        67
64.960       100
64.980        73
65.000        40
65.020        83
65.040        83
65.060        70
65.080       100
65.100        90
65.120        30
65.140        57
65.160        73
65.180        67
65.200        63
65.220        70
65.240        73
65.260        77
65.280        73
65.300        80
65.320        60
65.340        93
65.360        60
65.380        67
65.400        53
65.420        93
65.440        60
65.460        67
65.480        60
65.500        50
65.520        67
65.540        90
65.560        63
65.580       110
65.600        73
65.620        97
65.640        80
65.660        80
65.680        90
65.700        77
65.720        93
65.740        83
65.760        83
65.780        70
65.800        87
65.820        93
65.840        57
65.860        93
65.880        93
65.900        57
65.920        87
65.940        80
65.960        87
65.980        80
66.000        93
66.020        73
66.040        90
66.060        73
66.080        57
66.100        70
66.120        63
66.140        57
66.160        33
66.180        77
66.200        77
66.220        77
66.240        87
66.260        87
66.280        80
66.300        60
66.320        90
66.340        83
66.360       100
66.380        83
66.400        93
66.420       123
66.440        83
66.460       133
66.480       163
66.500       307
66.520       330
66.540       493
66.560       500
66.580       536
66.600       407
66.620       213
66.640       153
66.660       187
66.680       153
66.700       163
66.720       250
66.740       300
66.760       270
66.780       267
66.800       150
66.820       127
66.840        73
66.860        70
66.880       113
66.900        67
66.920        97
66.940        73
66.960        70
66.980        77
67.000        50
67.020        80
67.040        77
67.060        97
67.080        53
67.100        60
67.120        43
67.140        63
67.160        67
67.180        60
67.200        70
67.220        70
67.240        60
67.260        83
67.280        70
67.300        70
67.320        80
67.340        63
67.360        87
67.380        73
67.400        77
67.420        47
67.440        57
67.460        60
67.480        93
67.500        80
67.520        73
67.540        77
67.560        27
67.580        50
67.600        63
67.620        60
67.640        77
67.660        73
67.680        53
67.700        67
67.720        50
67.740        67
67.760        67
67.780        57
67.800        80
67.820        50
67.840        70
67.860        93
67.880        67
67.900        80
67.920        73
67.940        50
67.960        53
67.980        67
68.000        90
68.020        60
68.040        57
68.060       117
68.080        67
68.100        93
68.120        77
68.140       150
68.160       150
68.180       170
68.200       280
68.220       387
68.240       490
68.260       490
68.280       337
68.300       213
68.320       203
68.340       160
68.360       130
68.380       177
68.400       217
68.420       260
68.440       267
68.460       187
68.480       190
68.500       143
68.520       113
68.540        93
68.560        77
68.580        90
68.600        53
68.620        70
68.640        80
68.660        73
68.680        73
68.700        73
68.720        47
68.740        90
68.760        40
68.780        67
68.800        53
68.820        73
68.840        90
68.860        47
68.880        50
68.900        57
68.920        53
68.940        53
68.960        40
68.980        77
69.000        47
69.020        73
69.040        50
69.060        50
69.080        77
69.100        97
69.120        57
69.140        67
69.160        43
69.180        60
69.200        70
69.220        53
69.240        63
69.260        57
69.280        50
69.300        67
69.320        60
69.340        67
69.360        60
69.380        63
69.400        53
69.420        47
69.440        57
69.460        50
69.480        63
69.500        63
69.520        70
69.540        77
69.560        53
69.580        70
69.600        43
69.620        77
69.640        50
69.660        50
69.680        63
69.700        63
69.720        67
69.740        57
69.760        60
69.780        90
69.800        63
69.820        77
69.840        53
69.860        53
69.880        53
69.900       110
69.920        83
69.940        63
69.960        50
69.980        57
70.000        50
70.020        53
70.040        47
70.060        73
70.080        60
70.100        40
70.120        57
70.140        57
70.160        40
70.180        47
70.200        83
70.220        50
70.240        70
70.260        37
70.280        67
70.300        70
70.320        57
70.340        67
70.360        43
70.380        77
70.400        60
70.420        50
70.440        50
70.460        93
70.480        33
70.500        60
70.520        50
70.540        67
70.560        60
70.580        80
70.600        50
70.620        73
70.640        50
70.660        53
70.680        83
70.700        70
70.720        57
70.740        33
70.760        50
70.780        43
70.800        77
70.820        80
70.840        67
70.860        53
70.880        57
70.900        43
70.920        57
70.940        50
70.960        60
70.980        60
71.000        60
71.020        37
71.040        60
71.060        50
71.080        53
71.100        43
71.120        67
71.140        50
71.160        40
71.180        63
71.200        57
71.220        53
71.240        60
71.260        43
71.280        80
71.300        50
71.320        53
71.340        67
71.360        77
71.380        43
71.400        50
71.420        47
71.440        73
71.460        70
71.480        30
71.500        30
71.520        43
71.540        50
71.560        70
71.580        77
71.600        80
71.620        33
71.640        70
71.660        67
71.680        73
71.700        47
71.720        63
71.740        43
71.760        43
71.780        57
71.800        63
71.820        47
71.840        50
71.860        97
71.880        73
71.900        73
71.920        80
71.940        50
71.960        60
71.980        47
72.000        57
72.020        83
72.040        67
72.060        73
72.080        53
72.100        60
72.120        57
72.140        60
72.160        60
72.180        47
72.200        67
72.220        47
72.240        53
72.260        57
72.280        57
72.300        50
72.320        50
72.340        47
72.360        47
72.380        50
72.400        70
72.420        50
72.440        60
72.460        60
72.480        57
72.500        40
72.520        70
72.540        70
72.560        63
72.580        33
72.600        63
72.620        77
72.640        37
72.660        60
72.680        67
72.700        53
72.720        60
72.740        77
72.760        60
72.780        70
72.800        53
72.820        50
72.840        93
72.860        47
72.880        80
72.900        87
72.920        70
72.940        53
72.960        67
72.980        57
73.000        70
73.020        47
73.040        47
73.060        63
73.080        67
73.100        63
73.120        57
73.140        87
73.160        97
73.180       100
73.200        83
73.220        77
73.240        60
73.260        67
73.280        63
73.300        70
73.320        57
73.340        60
73.360        70
73.380       100
73.400        67
73.420        77
73.440        63
73.460        63
73.480        67
73.500        77
73.520        87
73.540        67
73.560        77
73.580        63
73.600        67
73.620        53
73.640        90
73.660        73
73.680        67
73.700        50
73.720        63
73.740        40
73.760        83
73.780        53
73.800        50
73.820        47
73.840        43
73.860        77
73.880        73
73.900        80
73.920        50
73.940        63
73.960        47
73.980        57
74.000        57
74.020        80
74.040        37
74.060        63
74.080        60
74.100        67
74.120        60
74.140        60
74.160        63
74.180        73
74.200        63
74.220        80
74.240        53
74.260        70
74.280       107
74.300        90
74.320        90
74.340       130
74.360        77
74.380        63
74.400       100
74.420        73
74.440        70
74.460        77
74.480        70
74.500        70
74.520        77
74.540       110
74.560        77
74.580        77
74.600        77
74.620        47
74.640        77
74.660        87
74.680        63
74.700        73
74.720        70
74.740        53
74.760        77
74.780        77
74.800        40
74.820        80
74.840        63
74.860        40
74.880        53
74.900        47
74.920        57
74.940        50
74.960        67
74.980        53
75.000        77
75.020        40
75.040        53
75.060        67
75.080        53
75.100        40
75.120        43
75.140        67
75.160        67
75.180        77
75.200        63
75.220        63
75.240        43
75.260        47
75.280        50
75.300        77
75.320        67
75.340        70
75.360        53
75.380        63
75.400        33
75.420        53
75.440        43
75.460        67
75.480        77
75.500        57
75.520        80
75.540        40
75.560        67
75.580        57
75.600        73
75.620        67
75.640        80
75.660        57
75.680        77
75.700        67
75.720        40
75.740        47
75.760        43
75.780        43
75.800        93
75.820        60
75.840        43
75.860        73
75.880        40
75.900        70
75.920        57
75.940        70
75.960        53
75.980        47
76.000        70
76.020        57
76.040        67
76.060        43
76.080        47
76.100        63
76.120        77
76.140        50
76.160        57
76.180        73
76.200        73
76.220        33
76.240        63
76.260        87
76.280        80
76.300        83
76.320        63
76.340        83
76.360        47
76.380        80
76.400        60
76.420        83
76.440        77
76.460        67
76.480        97
76.500        90
76.520       107
76.540        97
76.560        67
76.580       107
76.600        93
76.620        97
76.640        93
76.660       103
76.680       133
76.700       193
76.720       160
76.740       213
76.760       260
76.780       293
76.800       440
76.820       670
76.840      1030
76.860      1516
76.880      1816
76.900      2189
76.920      1879
76.940      1649
76.960       936
76.980       760
77.000       450
77.020       380
77.040       390
77.060       613
77.080       783
77.100       950
77.120      1110
77.140      1210
77.160       936
77.180       723
77.200       726
77.220       593
77.240       656
77.260       723
77.280       556
77.300       496
77.320       280
77.340       277
77.360       177
77.380       147
77.400       130
77.420       203
77.440       277
77.460       277
77.480       347
77.500       430
77.520       330
77.540       203
77.560       153
77.580       133
77.600        93
77.620        87
77.640        70
77.660        77
77.680        70
77.700        80
77.720        60
77.740        50
77.760        83
77.780        80
77.800        63
77.820        53
77.840        73
77.860        87
77.880        47
77.900        57
77.920        47
77.940        67
77.960        67
77.980        83
78.000       110
78.020        37
78.040        67
78.060        80
78.080        77
78.100        77
78.120        47
78.140        83
78.160        63
78.180        43
78.200        60
78.220        57
78.240        70
78.260        60
78.280        33
78.300        53
78.320        50
78.340        60
78.360        70
78.380        57
78.400        53
78.420        57
78.440        67
78.460        57
78.480        77
78.500        50
78.520        63
78.540        70
78.560        60
78.580        43
78.600        67
78.620        43
78.640        53
78.660        90
78.680        47
78.700        57
78.720        67
78.740        43
78.760        70
78.780        73
78.800        40
78.820        70
78.840        53
78.860        70
78.880        77
78.900        57
78.920        60
78.940        70
78.960        77
78.980        40
79.000        40
79.020        53
79.040        63
79.060        77
79.080        43
79.100        67
79.120        50
79.140        53
79.160        67
79.180        57
79.200        70
79.220        40
79.240        47
79.260        53
79.280        47
79.300        80
79.320        53
79.340        77
79.360        57
79.380        90
79.400        40
79.420        43
79.440        60
79.460        83
79.480        53
79.500        73
79.520        60
79.540        53
79.560        63
79.580        43
79.600        60
79.620        50
79.640        37
79.660        57
79.680        30
79.700        47
79.720        47
79.740        40
79.760        47
79.780        53
79.800        47
79.820        57
79.840        47
79.860        57
79.880        60
79.900        57
79.920        57
79.940        53
79.960        47
79.980        63
80.000        47
