20.000       293
20.020       297
20.040       217
20.060       250
20.080       260
20.100       230
20.120       240
20.140       243
20.160       213
20.180       233
20.200       263
20.220       250
20.240       210
20.260       200
20.280       263
20.300       237
20.320       200
20.340       247
20.360       187
20.380       203
20.400       217
20.420       237
20.440       270
20.460       253
20.480       207
20.500       270
20.520       260
20.540       200
20.560       263
20.580       200
20.600       247
20.620       240
20.640       227
20.660       223
20.680       187
20.700       210
20.720       277
20.740       273
20.760       227
20.780       247
20.800       247
20.820       240
20.840       237
20.860       233
20.880       200
20.900       223
20.920       233
20.940       160
20.960       163
20.980       207
21.000       260
21.020       213
21.040       223
21.060       233
21.080       197
21.100       240
21.120       197
21.140       217
21.160       197
21.180       240
21.200       200
21.220       257
21.240       220
21.260       223
21.280       197
21.300       253
21.320       210
21.340       240
21.360       247
21.380       250
21.400       233
21.420       313
21.440       267
21.460       303
21.480       257
21.500       280
21.520       330
21.540       330
21.560       367
21.580       283
21.600       347
21.620       263
21.640       263
21.660       323
21.680       253
21.700       293
21.720       227
21.740       240
21.760       237
21.780       217
21.800       210
21.820       227
21.840       250
21.860       200
21.880       183
21.900       220
21.920       197
21.940       240
21.960       210
21.980       263
22.000       213
22.020       190
22.040       223
22.060       200
22.080       193
22.100       197
22.120       203
22.140       213
22.160       213
22.180       157
22.200       173
22.220       217
22.240       217
22.260       220
22.280       203
22.300       210
22.320       207
22.340       167
22.360       177
22.380       217
22.400       193
22.420       260
22.440       220
22.460       213
22.480       240
22.500       183
22.520       177
22.540       210
22.560       187
22.580       183
22.600       260
22.620       167
22.640       220
22.660       187
22.680       187
22.700       157
22.720       177
22.740       247
22.760       207
22.780       213
22.800       183
22.820       180
22.840       233
22.860       233
22.880       177
22.900       177
22.920       260
22.940       213
22.960       210
22.980       210
23.000       247
23.020       183
23.040       237
23.060       220
23.080       170
23.100       180
23.120       200
23.140       220
23.160       220
23.180       197
23.200       213
23.220       190
23.240       140
23.260       177
23.280       170
23.300       200
23.320       167
23.340       223
23.360       210
23.380       153
23.400       153
23.420       187
23.440       157
23.460       210
23.480       257
23.500       180
23.520       170
23.540       180
23.560       177
23.580       213
23.600       147
23.620       190
23.640       180
23.660       233
23.680       167
23.700       187
23.720       190
23.740       177
23.760       187
23.780       173
23.800       207
23.820       173
23.840       163
23.860       110
23.880       193
23.900       177
23.920       170
23.940       223
23.960       207
23.980       160
24.000       200
24.020       170
24.040       160
24.060       183
24.080       160
24.100       147
24.120       180
24.140       173
24.160       193
24.180       147
24.200       157
24.220       187
24.240       193
24.260       180
24.280       223
24.300       210
24.320       160
24.340       213
24.360       190
24.380       173
24.400       157
24.420       140
24.440       173
24.460       143
24.480       177
24.500       190
24.520       190
24.540       150
24.560       187
24.580       230
24.600       203
24.620       193
24.640       167
24.660       197
24.680       160
24.700       190
24.720       140
24.740       180
24.760       203
24.780       177
24.800       163
24.820       173
24.840       167
24.860       173
24.880       147
24.900       173
24.920       173
24.940       157
24.960       140
24.980       153
25.000       187
25.020       173
25.040       173
25.060       170
25.080       187
25.100       157
25.120       133
25.140       163
25.160       180
25.180       167
25.200       153
25.220       197
25.240       157
25.260       177
25.280       210
25.300       153
25.320       157
25.340       167
25.360       227
25.380       187
25.400       213
25.420       157
25.440       157
25.460       223
25.480       230
25.500       217
25.520       253
25.540       297
25.560       293
25.580       377
25.600       407
25.620       293
25.640       303
25.660       307
25.680       280
25.700       183
25.720       173
25.740       177
25.760       177
25.780       117
25.800       160
25.820       147
25.840       200
25.860       160
25.880       133
25.900       163
25.920       203
25.940       163
25.960       180
25.980       147
26.000       133
26.020       160
26.040       177
26.060       170
26.080       143
26.100        93
26.120       153
26.140       157
26.160       163
26.180       187
26.200       167
26.220       153
26.240       160
26.260       100
26.280       140
26.300       140
26.320       117
26.340       190
26.360       167
26.380       120
26.400       163
26.420       173
26.440       157
26.460       140
26.480       127
26.500       140
26.520       130
26.540       140
26.560       163
26.580       153
26.600       140
26.620       163
26.640       143
26.660       143
26.680       147
26.700       143
26.720       103
26.740       107
26.760       153
26.780       167
26.800       157
26.820       130
26.840       163
26.860       153
26.880       150
26.900       133
26.920       153
26.940       100
26.960       150
26.980       143
27.000       150
27.020       157
27.040       177
27.060       177
27.080       163
27.100       130
27.120       160
27.140       160
27.160       153
27.180       130
27.200       157
27.220       137
27.240       130
27.260       147
27.280       157
27.300       150
27.320       117
27.340       157
27.360       147
27.380       123
27.400       167
27.420       170
27.440       110
27.460       153
27.480       123
27.500       153
27.520       100
27.540       127
27.560       107
27.580       163
27.600       217
27.620       130
27.640       180
27.660       110
27.680       140
27.700       110
27.720       140
27.740       127
27.760       103
27.780       110
27.800       170
27.820       173
27.840       130
27.860       170
27.880        93
27.900       153
27.920       130
27.940       117
27.960       123
27.980       123
28.000       120
28.020       133
28.040       167
28.060       127
28.080       110
28.100       170
28.120        87
28.140       110
28.160       123
28.180       133
28.200       127
28.220       140
28.240       123
28.260       160
28.280       127
28.300       177
28.320        93
28.340       153
28.360       143
28.380       140
28.400       157
28.420       133
28.440       123
28.460       137
28.480       123
28.500       120
28.520        83
28.540       130
28.560       137
28.580       143
28.600       133
28.620       133
28.640       110
28.660       137
28.680       123
28.700       130
28.720       117
28.740       163
28.760       123
28.780       127
28.800       130
28.820       127
28.840       107
28.860        90
28.880       133
28.900       153
28.920       123
28.940       113
28.960       180
28.980       103
29.000        80
29.020       120
29.040       140
29.060       120
29.080       100
29.100       120
29.120        70
29.140       140
29.160       137
29.180       110
29.200       133
29.220       150
29.240       117
29.260       157
29.280       113
29.300       127
29.320       133
29.340       123
29.360       110
29.380       110
29.400       103
29.420        93
29.440       130
29.460       113
29.480       113
29.500       123
29.520       133
29.540       123
29.560       110
29.580       107
29.600        90
29.620       147
29.640       103
29.660       123
29.680       133
29.700       130
29.720       117
29.740       107
29.760       123
29.780       107
29.800       143
29.820       153
29.840       123
29.860       120
29.880       113
29.900       117
29.920       117
29.940       113
29.960       130
29.980       103
30.000       173
30.020        73
30.040       140
30.060       130
30.080       113
30.100       140
30.120       110
30.140        87
30.160       110
30.180       110
30.200       147
30.220        93
30.240        97
30.260       150
30.280       110
30.300       133
30.320       107
30.340       117
30.360       117
30.380       140
30.400       120
30.420       147
30.440       110
30.460       120
30.480       110
30.500       123
30.520       120
30.540       160
30.560       143
30.580       163
30.600       103
30.620       147
30.640       157
30.660       107
30.680       140
30.700       103
30.720       117
30.740       150
30.760       167
30.780       157
30.800       133
30.820       127
30.840       143
30.860       157
30.880       147
30.900       143
30.920        97
30.940       113
30.960       147
30.980       130
31.000       127
31.020       107
31.040       143
31.060       107
31.080       123
31.100        90
31.120       107
31.140       120
31.160       130
31.180       113
31.200       127
31.220       113
31.240        83
31.260       100
31.280       107
31.300       107
31.320        87
31.340       110
31.360        93
31.380       113
31.400       107
31.420       130
31.440        77
31.460       117
31.480       133
31.500       150
31.520       143
31.540       167
31.560       127
31.580        90
31.600       107
31.620        90
31.640       113
31.660       167
31.680       157
31.700        93
31.720        97
31.740        97
31.760       150
31.780       113
31.800       103
31.820       137
31.840       113
31.860        60
31.880       117
31.900       117
31.920       120
31.940       107
31.960        77
31.980       110
32.000       140
32.020        80
32.040       133
32.060        83
32.080       107
32.100       143
32.120        97
32.140       127
32.160       107
32.180        90
32.200        93
32.220        93
32.240        87
32.260       120
32.280        90
32.300       103
32.320       180
32.340       113
32.360       127
32.380       117
32.400        80
32.420        97
32.440       107
32.460       100
32.480        80
32.500       113
32.520       117
32.540       120
32.560        67
32.580        93
32.600       120
32.620        90
32.640        80
32.660       103
32.680        97
32.700       130
32.720       113
32.740       107
32.760       100
32.780       107
32.800        77
32.820        93
32.840        93
32.860        83
32.880        87
32.900        90
32.920       103
32.940       110
32.960       117
32.980        80
33.000       123
33.020        93
33.040        80
33.060        67
33.080        93
33.100        57
33.120       117
33.140        73
33.160        90
33.180        90
33.200        83
33.220       110
33.240        93
33.260       113
33.280        87
33.300       107
33.320        97
33.340       133
33.360       100
33.380        50
33.400        77
33.420        60
33.440       123
33.460       100
33.480        57
33.500       113
33.520        70
33.540       113
33.560        70
33.580        67
33.600       107
33.620       123
33.640       143
33.660        90
33.680        73
33.700        93
33.720        87
33.740       110
33.760        87
33.780       113
33.800        67
33.820        93
33.840       110
33.860       123
33.880       103
33.900       103
33.920       107
33.940        70
33.960        77
33.980       100
34.000       140
34.020       127
34.040        73
34.060       123
34.080       100
34.100        87
34.120       113
34.140       137
34.160       120
34.180       113
34.200        97
34.220       137
34.240       107
34.260        97
34.280        93
34.300       123
34.320        77
34.340       103
34.360        93
34.380        77
34.400        90
34.420        80
34.440        83
34.460       123
34.480       107
34.500        83
34.520       123
34.540        90
34.560       110
34.580       117
34.600        77
34.620       123
34.640        90
34.660        83
34.680       117
34.700       110
34.720        93
34.740        87
34.760       107
34.780       123
34.800       100
34.820       130
34.840       103
34.860       110
34.880       127
34.900       123
34.920       163
34.940        97
34.960       230
34.980       177
35.000       217
35.020       190
35.040       270
35.060       300
35.080       436
35.100       636
35.120       776
35.140      1086
35.160      1030
35.180      1053
35.200       800
35.220       653
35.240       520
35.260       560
35.280       370
35.300       290
35.320       180
35.340       123
35.360       150
35.380       137
35.400       130
35.420        83
35.440       123
35.460        87
35.480        83
35.500        97
35.520       153
35.540        73
35.560        93
35.580       113
35.600        70
35.620        80
35.640        87
35.660        83
35.680        90
35.700       113
35.720        93
35.740        70
35.760       103
35.780        87
35.800        73
35.820       117
35.840        83
35.860       110
35.880        83
35.900        70
35.920       103
35.940        97
35.960        80
35.980        73
36.000        93
36.020        87
36.040        57
36.060       100
36.080        67
36.100        83
36.120        83
36.140        87
36.160       130
36.180       100
36.200       110
36.220       113
36.240       103
36.260        63
36.280       110
36.300        83
36.320        83
36.340       107
36.360       127
36.380        83
36.400        97
36.420        77
36.440       107
36.460       120
36.480        93
36.500        77
36.520        87
36.540        83
36.560        67
36.580        77
36.600       130
36.620       133
36.640       127
36.660        83
36.680       100
36.700       120
36.720       123
36.740       123
36.760       100
36.780        87
36.800       113
36.820       110
36.840        80
36.860       120
36.880        87
36.900       123
36.920       133
36.940       137
36.960       107
36.980       133
37.000       130
37.020       113
37.040       123
37.060        90
37.080       140
37.100        93
37.120       157
37.140       117
37.160        97
37.180       130
37.200       123
37.220       127
37.240       103
37.260       107
37.280       120
37.300       140
37.320       127
37.340       117
37.360        90
37.380       143
37.400       127
37.420       130
37.440       153
37.460       117
37.480       133
37.500       113
37.520       133
37.540       127
37.560       160
37.580       193
37.600       210
37.620       257
37.640       240
37.660       297
37.680       350
37.700       377
37.720       486
37.740       560
37.760       710
37.780       866
37.800      1023
37.820      1289
37.840      1579
37.860      2029
37.880      2306
37.900      2932
37.920      3655
37.940      4055
37.960      4418
37.980      4425
38.000      4002
38.020      3758
38.040      3342
38.060      3049
38.080      2422
38.100      2016
38.120      1469
38.140      1240
38.160       986
38.180       723
38.200       656
38.220       403
38.240       387
38.260       357
38.280       307
38.300       270
38.320       240
38.340       157
38.360       237
38.380       207
38.400       183
38.420       107
38.440       173
38.460       220
38.480       133
38.500       137
38.520       173
38.540       133
38.560       150
38.580       180
38.600       137
38.620       137
38.640       117
38.660       163
38.680       123
38.700       113
38.720       127
38.740       117
38.760       170
38.780       103
38.800       103
38.820       110
38.840       153
38.860       140
38.880       103
38.900       127
38.920       117
38.940       117
38.960        90
38.980       113
39.000       107
39.020       150
39.040       130
39.060        97
39.080       110
39.100       113
39.120       107
39.140       107
39.160        93
39.180       143
39.200       113
39.220       110
39.240       110
39.260       133
39.280        93
39.300        83
39.320        93
39.340       120
39.360       140
39.380       143
39.400       127
39.420       123
39.440        87
39.460       103
39.480       100
39.500       133
39.520       123
39.540        93
39.560        80
39.580       100
39.600       100
39.620       150
39.640       123
39.660        93
39.680       117
39.700       120
39.720        83
39.740        83
39.760        93
39.780       103
39.800        97
39.820       103
39.840        83
39.860        77
39.880       103
39.900       123
39.920       103
39.940       123
39.960        83
39.980       100
40.000        83
40.020        70
40.040        90
40.060       113
40.080        90
40.100        90
40.120        83
40.140        60
40.160       103
40.180        87
40.200        73
40.220       113
40.240       103
40.260        77
40.280       107
40.300       100
40.320        97
40.340        77
40.360        97
40.380        87
40.400       113
40.420        93
40.440       103
40.460       113
40.480        97
40.500       110
40.520       100
40.540       107
40.560       103
40.580       110
40.600       117
40.620        70
40.640        67
40.660        67
40.680       117
40.700        87
40.720        77
40.740        90
40.760        90
40.780       123
40.800        87
40.820       117
40.840       107
40.860       110
40.880        93
40.900        80
40.920       113
40.940       137
40.960        57
40.980        97
41.000       103
41.020       107
41.040        97
41.060       133
41.080       103
41.100       107
41.120        60
41.140        83
41.160        87
41.180       103
41.200        67
41.220        93
41.240       130
41.260       103
41.280        83
41.300        90
41.320       100
41.340       103
41.360        97
41.380        93
41.400        90
41.420       123
41.440       110
41.460        83
41.480       123
41.500       103
41.520       143
41.540        97
41.560       113
41.580       120
41.600       107
41.620       127
41.640       177
41.660       190
41.680       233
41.700       163
41.720       157
41.740       133
41.760       157
41.780       177
41.800       207
41.820       147
41.840       150
41.860        97
41.880       107
41.900        87
41.920       107
41.940       107
41.960        97
41.980       110
42.000        73
42.020        93
42.040       123
42.060        80
42.080       100
42.100       117
42.120        93
42.140        87
42.160        77
42.180        93
42.200        83
42.220        90
42.240        97
42.260       107
42.280        80
42.300        73
42.320        97
42.340       100
42.360        97
42.380        83
42.400       130
42.420        97
42.440       110
42.460        80
42.480        67
42.500        77
42.520        77
42.540       100
42.560       123
42.580        87
42.600       140
42.620        97
42.640        93
42.660       113
42.680        83
42.700        90
42.720        77
42.740        60
42.760        50
42.780       100
42.800        87
42.820       100
42.840        90
42.860        93
42.880        87
42.900        83
42.920       100
42.940       100
42.960        93
42.980        93
43.000       100
43.020        83
43.040       113
43.060        90
43.080        83
43.100       110
43.120        83
43.140       113
43.160       110
43.180       150
43.200       147
43.220       160
43.240       220
43.260       217
43.280       267
43.300       370
43.320       490
43.340       616
43.360       746
43.380       596
43.400       593
43.420       550
43.440       453
43.460       440
43.480       430
43.500       410
43.520       357
43.540       230
43.560       190
43.580       160
43.600       150
43.620       117
43.640       170
43.660       170
43.680       240
43.700       207
43.720       207
43.740       233
43.760       267
43.780       270
43.800       297
43.820       303
43.840       347
43.860       353
43.880       423
43.900       460
43.920       456
43.940       460
43.960       446
43.980       486
44.000       510
44.020       500
44.040       397
44.060       343
44.080       463
44.100       430
44.120       360
44.140       287
44.160       290
44.180       233
44.200       227
44.220       187
44.240       190
44.260       183
44.280       153
44.300       160
44.320       150
44.340       170
44.360       113
44.380       150
44.400       113
44.420       123
44.440       100
44.460       130
44.480       107
44.500        70
44.520        97
44.540        90
44.560       123
44.580        97
44.600        93
44.620        97
44.640        93
44.660        80
44.680       110
44.700       103
44.720       103
44.740        73
44.760       107
44.780        83
44.800        90
44.820        67
44.840       100
44.860        80
44.880       100
44.900        83
44.920        87
44.940        90
44.960        57
44.980        70
45.000        87
45.020       107
45.040        97
45.060        73
45.080       123
45.100        57
45.120        97
45.140        90
45.160        57
45.180       100
45.200       117
45.220        97
45.240        97
45.260        87
45.280       117
45.300        80
45.320       100
45.340        90
45.360        77
45.380        87
45.400        77
45.420        67
45.440        90
45.460        63
45.480        83
45.500        77
45.520        63
45.540        93
45.560        90
45.580        83
45.600        70
45.620       100
45.640        83
45.660        53
45.680        70
45.700        77
45.720       117
45.740        73
45.760       113
45.780        70
45.800        90
45.820        70
45.840        50
45.860        97
45.880        87
45.900        83
45.920        73
45.940        73
45.960        80
45.980        83
46.000        77
46.020        97
46.040        80
46.060        83
46.080        77
46.100       100
46.120        80
46.140        40
46.160       103
46.180        77
46.200        93
46.220        70
46.240        67
46.260        37
46.280        57
46.300        77
46.320        70
46.340        83
46.360        73
46.380        90
46.400        77
46.420        67
46.440        83
46.460        83
46.480       110
46.500       100
46.520        80
46.540        67
46.560        73
46.580        67
46.600        73
46.620        67
46.640        97
46.660        77
46.680        67
46.700        57
46.720        73
46.740        83
46.760        67
46.780        73
46.800       113
46.820        47
46.840        67
46.860        63
46.880        90
46.900        70
46.920        60
46.940        80
46.960        73
46.980        60
47.000        77
47.020        63
47.040        87
47.060        80
47.080        73
47.100        97
47.120        63
47.140        70
47.160       117
47.180        60
47.200        90
47.220        70
47.240        77
47.260        73
47.280        63
47.300        87
47.320        87
47.340        40
47.360        97
47.380        80
47.400        73
47.420        50
47.440        80
47.460        77
47.480        73
47.500        63
47.520        70
47.540        60
47.560        90
47.580        67
47.600        73
47.620        77
47.640        70
47.660        50
47.680        73
47.700        70
47.720        77
47.740        83
47.760        67
47.780        47
47.800        83
47.820        57
47.840        77
47.860        77
47.880        63
47.900        60
47.920        60
47.940        80
47.960        77
47.980        50
48.000        80
48.020        63
48.040        70
48.060        57
48.080        70
48.100        97
48.120        93
48.140        60
48.160        63
48.180        53
48.200        77
48.220        53
48.240        70
48.260        80
48.280       113
48.300        43
48.320        70
48.340        70
48.360        43
48.380        63
48.400        73
48.420        40
48.440        67
48.460        73
48.480        90
48.500       100
48.520        90
48.540        77
48.560        80
48.580        57
48.600        93
48.620        87
48.640        67
48.660        63
48.680        77
48.700        73
48.720        67
48.740        83
48.760        57
48.780        57
48.800        83
48.820        87
48.840        77
48.860        50
48.880        70
48.900        87
48.920        73
48.940        67
48.960        87
48.980        73
49.000       100
49.020        73
49.040        53
49.060        70
49.080        73
49.100        87
49.120        77
49.140        60
49.160        77
49.180        57
49.200        57
49.220        90
49.240        87
49.260        77
49.280        43
49.300        60
49.320        70
49.340        50
49.360        77
49.380        77
49.400        77
49.420        80
49.440        50
49.460        47
49.480        57
49.500        67
49.520        93
49.540        77
49.560        93
49.580        70
49.600        63
49.620        63
49.640        80
49.660        83
49.680       100
49.700        60
49.720        63
49.740       100
49.760        40
49.780        57
49.800        70
49.820        77
49.840        63
49.860        77
49.880        63
49.900        60
49.920        70
49.940        87
49.960        57
49.980        73
50.000        67
50.020        77
50.040        63
50.060        60
50.080        93
50.100        67
50.120        80
50.140        63
50.160        63
50.180        77
50.200        57
50.220        77
50.240        90
50.260        80
50.280        57
50.300        57
50.320        40
50.340        67
50.360        67
50.380        87
50.400        53
50.420        80
50.440        67
50.460        57
50.480        97
50.500        57
50.520        70
50.540        57
50.560        77
50.580        60
50.600        60
50.620        70
50.640        63
50.660        53
50.680        70
50.700        97
50.720        77
50.740        60
50.760        83
50.780        63
50.800        77
50.820        73
50.840        53
50.860        67
50.880        97
50.900        77
50.920        90
50.940        60
50.960        53
50.980        67
51.000        70
51.020        70
51.040        70
51.060        67
51.080        67
51.100        60
51.120        70
51.140        63
51.160        53
51.180        63
51.200        47
51.220        40
51.240        57
51.260        53
51.280        50
51.300        63
51.320        77
51.340        83
51.360        53
51.380        73
51.400        80
51.420        60
51.440        50
51.460        80
51.480        70
51.500        67
51.520        63
51.540        70
51.560        70
51.580        90
51.600        70
51.620        77
51.640        73
51.660        47
51.680        43
51.700        70
51.720        63
51.740       107
51.760        50
51.780        83
51.800        53
51.820        77
51.840        80
51.860        73
51.880        73
51.900        80
51.920        67
51.940        77
51.960        60
51.980        43
52.000        77
52.020        77
52.040        77
52.060        73
52.080        90
52.100        70
52.120        73
52.140        80
52.160        70
52.180       100
52.200        90
52.220       103
52.240        63
52.260        67
52.280        83
52.300        43
52.320        87
52.340        87
52.360        83
52.380        80
52.400        87
52.420        90
52.440       153
52.460        97
52.480       183
52.500       213
52.520       323
52.540       410
52.560       417
52.580       420
52.600       347
52.620       277
52.640       267
52.660       230
52.680       160
52.700       257
52.720       313
52.740       243
52.760       153
52.780       127
52.800        80
52.820        70
52.840        77
52.860        93
52.880        87
52.900        90
52.920        57
52.940        97
52.960        80
52.980        53
53.000        57
53.020        57
53.040        77
53.060        90
53.080        53
53.100        40
53.120        43
53.140        70
53.160        57
53.180        70
53.200        83
53.220        63
53.240        93
53.260        47
53.280        73
53.300        73
53.320        77
53.340        63
53.360        67
53.380        77
53.400        87
53.420        77
53.440        47
53.460        83
53.480        87
53.500        80
53.520        77
53.540        57
53.560        70
53.580        93
53.600        67
53.620        60
53.640        80
53.660        77
53.680        73
53.700        77
53.720        77
53.740        53
53.760        70
53.780        83
53.800        57
53.820       100
53.840        57
53.860        67
53.880        47
53.900        57
53.920        80
53.940        90
53.960        63
53.980       100
54.000        87
54.020        73
54.040        83
54.060        73
54.080        70
54.100        63
54.120        67
54.140        57
54.160        60
54.180        80
54.200       113
54.220        50
54.240        93
54.260        97
54.280        73
54.300        93
54.320        63
54.340        77
54.360       100
54.380        83
54.400        80
54.420        97
54.440       117
54.460       103
54.480       143
54.500       120
54.520       117
54.540       143
54.560       163
54.580       207
54.600       223
54.620       260
54.640       277
54.660       303
54.680       280
54.700       317
54.720       310
54.740       333
54.760       320
54.780       343
54.800       373
54.820       360
54.840       310
54.860       323
54.880       313
54.900       247
54.920       233
54.940       257
54.960       227
54.980       207
55.000       177
55.020       157
55.040       127
55.060       157
55.080       130
55.100       120
55.120       113
55.140       120
55.160       120
55.180       110
55.200       100
55.220        87
55.240        83
55.260        70
55.280        67
55.300       100
55.320       100
55.340       107
55.360       107
55.380        80
55.400        90
55.420        67
55.440        90
55.460        87
55.480        90
55.500        87
55.520        57
55.540        73
55.560        90
55.580        80
55.600       107
55.620        87
55.640        67
55.660        63
55.680        63
55.700        43
55.720        70
55.740        73
55.760        63
55.780        73
55.800        53
55.820        60
55.840        83
55.860        70
55.880        73
55.900        83
55.920        70
55.940        80
55.960        73
55.980        87
56.000        57
56.020        90
56.040        80
56.060        77
56.080        83
56.100        50
56.120        60
56.140        77
56.160        60
56.180        73
56.200        43
56.220        80
56.240        60
56.260        83
56.280        50
56.300        53
56.320        77
56.340        87
56.360        70
56.380       113
56.400        83
56.420        60
56.440        50
56.460        93
56.480        67
56.500        70
56.520        43
56.540        87
56.560        63
56.580        63
56.600        80
56.620        80
56.640        77
56.660        73
56.680        63
56.700        70
56.720        87
56.740        63
56.760        93
56.780        77
56.800        53
56.820        63
56.840        80
56.860        77
56.880        83
56.900        50
56.920        63
56.940       100
56.960        73
56.980        80
57.000        83
57.020        90
57.040        90
57.060        80
57.080        93
57.100        57
57.120       103
57.140        83
57.160       130
57.180        87
57.200        87
57.220       140
57.240        80
57.260       120
57.280       113
57.300       133
57.320       203
57.340       180
57.360       287
57.380       323
57.400       303
57.420       493
57.440       696
57.460      1050
57.480      1403
57.500      1853
57.520      1843
57.540      1426
57.560      1010
57.580       646
57.600       476
57.620       666
57.640       893
57.660       946
57.680       823
57.700       710
57.720       456
57.740       290
57.760       187
57.780       150
57.800       127
57.820       140
57.840        83
57.860        77
57.880        87
57.900        67
57.920        83
57.940        63
57.960        63
57.980        50
58.000        60
58.020        73
58.040        90
58.060       103
58.080        87
58.100        70
58.120        67
58.140        63
58.160        63
58.180        57
58.200        77
58.220        70
58.240        70
58.260        67
58.280        43
58.300        90
58.320        93
58.340        73
58.360        43
58.380        70
58.400        43
58.420        73
58.440        77
58.460        53
58.480        57
58.500        73
58.520        77
58.540        60
58.560        77
58.580        63
58.600        80
58.620        47
58.640        43
58.660        67
58.680        73
58.700        80
58.720        67
58.740        80
58.760        67
58.780        77
58.800        60
58.820        57
58.840        63
58.860        77
58.880        73
58.900        60
58.920        63
58.940        53
58.960        60
58.980        63
59.000        67
59.020        63
59.040        73
59.060        63
59.080        73
59.100        37
59.120        43
59.140        70
59.160        80
59.180        50
59.200        77
59.220        80
59.240        67
59.260        80
59.280        53
59.300        80
59.320        53
59.340        93
59.360        77
59.380        57
59.400        50
59.420       107
59.440        87
59.460        93
59.480        70
59.500        70
59.520        60
59.540        63
59.560        80
59.580        67
59.600        77
59.620        67
59.640        43
59.660        73
59.680        73
59.700        60
59.720       123
59.740        87
59.760        93
59.780        97
59.800        90
59.820        67
59.840        77
59.860        60
59.880        43
59.900        90
59.920        63
59.940        57
59.960        87
59.980         3
60.000         3
