20.000         0
20.020         0
20.040         0
20.060         0
20.080         0
20.100         0
20.120         0
20.140         0
20.160         0
20.180         0
20.200         0
20.220         0
20.240         0
20.260         0
20.280       243
20.300       267
20.320       197
20.340       297
20.360       260
20.380       253
20.400       287
20.420       220
20.440       207
20.460       230
20.480       203
20.500       207
20.520       223
20.540       200
20.560       217
20.580       207
20.600       253
20.620       177
20.640       233
20.660       260
20.680       240
20.700       273
20.720       290
20.740       270
20.760       230
20.780       233
20.800       190
20.820       243
20.840       217
20.860       287
20.880       273
20.900       280
20.920       267
20.940       237
20.960       210
20.980       213
21.000       283
21.020       233
21.040       207
21.060       273
21.080       323
21.100       280
21.120       310
21.140       307
21.160       330
21.180       307
21.200       377
21.220       413
21.240       410
21.260       493
21.280       526
21.300       496
21.320       506
21.340       540
21.360       486
21.380       483
21.400       556
21.420       446
21.440       470
21.460       466
21.480       426
21.500       347
21.520       327
21.540       310
21.560       273
21.580       270
21.600       260
21.620       260
21.640       230
21.660       200
21.680       210
21.700       230
21.720       263
21.740       250
21.760       210
21.780       203
21.800       267
21.820       227
21.840       233
21.860       243
21.880       180
21.900       243
21.920       200
21.940       183
21.960       210
21.980       220
22.000       200
22.020       223
22.040       197
22.060       203
22.080       193
22.100       253
22.120       217
22.140       220
22.160       243
22.180       203
22.200       233
22.220       203
22.240       210
22.260       210
22.280       223
22.300       240
22.320       233
22.340       200
22.360       250
22.380       250
22.400       230
22.420       207
22.440       193
22.460       213
22.480       190
22.500       183
22.520       203
22.540       227
22.560       207
22.580       190
22.600       223
22.620       223
22.640       193
22.660       213
22.680       223
22.700       150
22.720       170
22.740       213
22.760       207
22.780       207
22.800       180
22.820       240
22.840       180
22.860       230
22.880       230
22.900       200
22.920       243
22.940       183
22.960       217
22.980       173
23.000       200
23.020       210
23.040       190
23.060       220
23.080       157
23.100       217
23.120       127
23.140       210
23.160       180
23.180       233
23.200       207
23.220       190
23.240       220
23.260       210
23.280       217
23.300       227
23.320       210
23.340       217
23.360       200
23.380       163
23.400       190
23.420       150
23.440       143
23.460       203
23.480       163
23.500       197
23.520       170
23.540       217
23.560       147
23.580       160
23.600       173
23.620       173
23.640       197
23.660       183
23.680       207
23.700       200
23.720       177
23.740       223
23.760       180
23.780       190
23.800       227
23.820       220
23.840       180
23.860       150
23.880       190
23.900       153
23.920       160
23.940       170
23.960       177
23.980       187
24.000       117
24.020       167
24.040       210
24.060       203
24.080       130
24.100       197
24.120       217
24.140       177
24.160       190
24.180       227
24.200       173
24.220       183
24.240       143
24.260       173
24.280       160
24.300       190
24.320       203
24.340       163
24.360       180
24.380       157
24.400       200
24.420       173
24.440       183
24.460       173
24.480       170
24.500       160
24.520       133
24.540       207
24.560       173
24.580       197
24.600       150
24.620       167
24.640       150
24.660       210
24.680       210
24.700       193
24.720       220
24.740       167
24.760       227
24.780       213
24.800       143
24.820       200
24.840       170
24.860       163
24.880       167
24.900       193
24.920       157
24.940       153
24.960       170
24.980       137
25.000       150
25.020       180
25.040       167
25.060       143
25.080       170
25.100       137
25.120       157
25.140       163
25.160       207
25.180       207
25.200       157
25.220       170
25.240       203
25.260       190
25.280       217
25.300       167
25.320       147
25.340       163
25.360       163
25.380       170
25.400       150
25.420       160
25.440       193
25.460       163
25.480       157
25.500       247
25.520       173
25.540       177
25.560       203
25.580       240
25.600       273
25.620       233
25.640       230
25.660       250
25.680       210
25.700       177
25.720       173
25.740       157
25.760       173
25.780       123
25.800       110
25.820       160
25.840       130
25.860       123
25.880       167
25.900       173
25.920       167
25.940       167
25.960       177
25.980       123
26.000       197
26.020       133
26.040       147
26.060       170
26.080       147
26.100       133
26.120       117
26.140       163
26.160       163
26.180        97
26.200       150
26.220       140
26.240       140
26.260       173
26.280       153
26.300       173
26.320       130
26.340       143
26.360       130
26.380       133
26.400       143
26.420       140
26.440       130
26.460       153
26.480       127
26.500       163
26.520       160
26.540       130
26.560       143
26.580       110
26.600       117
26.620       133
26.640       160
26.660       143
26.680       123
26.700       140
26.720       140
26.740       143
26.760       167
26.780        87
26.800       163
26.820       123
26.840        97
26.860       160
26.880       110
26.900       137
26.920       147
26.940       133
26.960       143
26.980       127
27.000       143
27.020       120
27.040        97
27.060       170
27.080       150
27.100       117
27.120       127
27.140       110
27.160       187
27.180       153
27.200       147
27.220       143
27.240       157
27.260       107
27.280       147
27.300       137
27.320       167
27.340       127
27.360       187
27.380       133
27.400       163
27.420       160
27.440       153
27.460        97
27.480       140
27.500       123
27.520       137
27.540       123
27.560       143
27.580       137
27.600       153
27.620       143
27.640       107
27.660       150
27.680       130
27.700       123
27.720       143
27.740       147
27.760       117
27.780       143
27.800       127
27.820       130
27.840       123
27.860       123
27.880       127
27.900       133
27.920       147
27.940       113
27.960       143
27.980       127
28.000       140
28.020       107
28.040       140
28.060       167
28.080       170
28.100       130
28.120       153
28.140       123
28.160       150
28.180       120
28.200       103
28.220       123
28.240       133
28.260       123
28.280       123
28.300       120
28.320       110
28.340       140
28.360       127
28.380       133
28.400        97
28.420       140
28.440       133
28.460       100
28.480       110
28.500       123
28.520       157
28.540       113
28.560       120
28.580       100
28.600       130
28.620       157
28.640       110
28.660       160
28.680       120
28.700       117
28.720       140
28.740       133
28.760       107
28.780        97
28.800       103
28.820       123
28.840       107
28.860        93
28.880       123
28.900       110
28.920        90
28.940       140
28.960       107
28.980       147
29.000       117
29.020       130
29.040       127
29.060       140
29.080       133
29.100       137
29.120       127
29.140       160
29.160        97
29.180       130
29.200       123
29.220       117
29.240       127
29.260       110
29.280       107
29.300       107
29.320       110
29.340       107
29.360       120
29.380       127
29.400       150
29.420       103
29.440       140
29.460       110
29.480       137
29.500       113
29.520       137
29.540       110
29.560       120
29.580       117
29.600        87
29.620       133
29.640       103
29.660       113
29.680       113
29.700       123
29.720       127
29.740       120
29.760       117
29.780       117
29.800       110
29.820       103
29.840        93
29.860       107
29.880       113
29.900       157
29.920       107
29.940       123
29.960       113
29.980       117
30.000        90
30.020       110
30.040       107
30.060       127
30.080       137
30.100       123
30.120        93
30.140       133
30.160       157
30.180        97
30.200       153
30.220       137
30.240       167
30.260       130
30.280       117
30.300       187
30.320       120
30.340       150
30.360       193
30.380       163
30.400       227
30.420       190
30.440       177
30.460       213
30.480       233
30.500       247
30.520       330
30.540       277
30.560       273
30.580       287
30.600       307
30.620       337
30.640       333
30.660       283
30.680       230
30.700       247
30.720       257
30.740       223
30.760       190
30.780       250
30.800       190
30.820       203
30.840       160
30.860       170
30.880       140
30.900       130
30.920       120
30.940       123
30.960       113
30.980       130
31.000       143
31.020       107
31.040       113
31.060       117
31.080        97
31.100       120
31.120       130
31.140        77
31.160       143
31.180       153
31.200       127
31.220       110
31.240       100
31.260        93
31.280       107
31.300       140
31.320        83
31.340       133
31.360       143
31.380       110
31.400       110
31.420        90
31.440       133
31.460       103
31.480       127
31.500       127
31.520       103
31.540       177
31.560        93
31.580        77
31.600        87
31.620       100
31.640        80
31.660       113
31.680        80
31.700       107
31.720        90
31.740       100
31.760        87
31.780       120
31.800        97
31.820       110
31.840       123
31.860       120
31.880       120
31.900       137
31.920       147
31.940       137
31.960       117
31.980        80
32.000       123
32.020        83
32.040       130
32.060        80
32.080        97
32.100       113
32.120        97
32.140        77
32.160       110
32.180       110
32.200       117
32.220       117
32.240        90
32.260       107
32.280       103
32.300       113
32.320       113
32.340        87
32.360        77
32.380       127
32.400       113
32.420        83
32.440       110
32.460       100
32.480        97
32.500        93
32.520        97
32.540       103
32.560        77
32.580       103
32.600        87
32.620        80
32.640       133
32.660       113
32.680       120
32.700       100
32.720       117
32.740       123
32.760        87
32.780        80
32.800        77
32.820        87
32.840       100
32.860        87
32.880       100
32.900        83
32.920       110
32.940        83
32.960       113
32.980        73
33.000        97
33.020        93
33.040       117
33.060       113
33.080        93
33.100       117
33.120       100
33.140        83
33.160       100
33.180        83
33.200        90
33.220        87
33.240        97
33.260        97
33.280        87
33.300        63
33.320       117
33.340       110
33.360       130
33.380        83
33.400        87
33.420        97
33.440       107
33.460        90
33.480       103
33.500       100
33.520        93
33.540       127
33.560        90
33.580       143
33.600       127
33.620        53
33.640       117
33.660       120
33.680        90
33.700       113
33.720       103
33.740        77
33.760       110
33.780       133
33.800        83
33.820        97
33.840       107
33.860        83
33.880        87
33.900        97
33.920        43
33.940        77
33.960        83
33.980        90
34.000       153
34.020       140
34.040       110
34.060       107
34.080       103
34.100       133
34.120       117
34.140       120
34.160       100
34.180        97
34.200       103
34.220        97
34.240        77
34.260       123
34.280       103
34.300        90
34.320        93
34.340        83
34.360        80
34.380       100
34.400       120
34.420        87
34.440        90
34.460        80
34.480       113
34.500        97
34.520        93
34.540        93
34.560       100
34.580       123
34.600        80
34.620       113
34.640        83
34.660        73
34.680        97
34.700       123
34.720       107
34.740       100
34.760       120
34.780       110
34.800       100
34.820        93
34.840        93
34.860        83
34.880        90
34.900       110
34.920       110
34.940       103
34.960        90
34.980       113
35.000       143
35.020       177
35.040       133
35.060       173
35.080       250
35.100       267
35.120       390
35.140       466
35.160       543
35.180       443
35.200       543
35.220       417
35.240       397
35.260       290
35.280       287
35.300       290
35.320       153
35.340       153
35.360       150
35.380       100
35.400        93
35.420        90
35.440       133
35.460       117
35.480       113
35.500        93
35.520        90
35.540        53
35.560        87
35.580       110
35.600       103
35.620        97
35.640        93
35.660       140
35.680        97
35.700       103
35.720       117
35.740        80
35.760        93
35.780       107
35.800       107
35.820       140
35.840       110
35.860       107
35.880       107
35.900        77
35.920       100
35.940       107
35.960        60
35.980       117
36.000       110
36.020        90
36.040       110
36.060       120
36.080        97
36.100       120
36.120        80
36.140        73
36.160       107
36.180        77
36.200       113
36.220       117
36.240       107
36.260        73
36.280        97
36.300        87
36.320        80
36.340       117
36.360       113
36.380       103
36.400        97
36.420        67
36.440        70
36.460       110
36.480       123
36.500       107
36.520        93
36.540       120
36.560       120
36.580        90
36.600       103
36.620        63
36.640       120
36.660        90
36.680       130
36.700       133
36.720       127
36.740       153
36.760       137
36.780       133
36.800       113
36.820       140
36.840       113
36.860       143
36.880       113
36.900       127
36.920        97
36.940       110
36.960       140
36.980       117
37.000       123
37.020       170
37.040       190
37.060       163
37.080       150
37.100       173
37.120       187
37.140       167
37.160       257
37.180       220
37.200       210
37.220       280
37.240       307
37.260       277
37.280       297
37.300       337
37.320       470
37.340       503
37.360       500
37.380       493
37.400       610
37.420       700
37.440       680
37.460       823
37.480       860
37.500       903
37.520      1070
37.540      1046
37.560      1216
37.580      1263
37.600      1366
37.620      1539
37.640      1466
37.660      1563
37.680      1606
37.700      1726
37.720      1706
37.740      1673
37.760      1783
37.780      1629
37.800      1659
37.820      1503
37.840      1429
37.860      1309
37.880      1156
37.900      1083
37.920       996
37.940       796
37.960       666
37.980       663
38.000       540
38.020       453
38.040       373
38.060       393
38.080       300
38.100       273
38.120       263
38.140       270
38.160       233
38.180       270
38.200       240
38.220       187
38.240       173
38.260       227
38.280       227
38.300       170
38.320       167
38.340       203
38.360       150
38.380       173
38.400       197
38.420       160
38.440       163
38.460       147
38.480       157
38.500       127
38.520       133
38.540       200
38.560       160
38.580       177
38.600       167
38.620       157
38.640       130
38.660       157
38.680       123
38.700       147
38.720       163
38.740       153
38.760       127
38.780       157
38.800       117
38.820       147
38.840       150
38.860       150
38.880       170
38.900       113
38.920       107
38.940       100
38.960       170
38.980       123
39.000       130
39.020       153
39.040       130
39.060       123
39.080       177
39.100        90
39.120        97
39.140       113
39.160       120
39.180       153
39.200       103
39.220       157
39.240       113
39.260       100
39.280        97
39.300       107
39.320       100
39.340        87
39.360       103
39.380       123
39.400       110
39.420       127
39.440       160
39.460       100
39.480        93
39.500        97
39.520        87
39.540       117
39.560        97
39.580       113
39.600        97
39.620       120
39.640       143
39.660       100
39.680       133
39.700       113
39.720       117
39.740       110
39.760        90
39.780       130
39.800        90
39.820       100
39.840       133
39.860       117
39.880       100
39.900        77
39.920       103
39.940       100
39.960        97
39.980       117
40.000        87
40.020       120
40.040       110
40.060       107
40.080       110
40.100       123
40.120        67
40.140        93
40.160        83
40.180        97
40.200       103
40.220        90
40.240       157
40.260        93
40.280       100
40.300        63
40.320       117
40.340       117
40.360        93
40.380        87
40.400       130
40.420        73
40.440        97
40.460        90
40.480       103
40.500       113
40.520       113
40.540       147
40.560       130
40.580       113
40.600        80
40.620       113
40.640       127
40.660       113
40.680       103
40.700        90
40.720       123
40.740       133
40.760        73
40.780        80
40.800        80
40.820       117
40.840       120
40.860        83
40.880       100
40.900       147
40.920        90
40.940       110
40.960        83
40.980       130
41.000        60
41.020        80
41.040       107
41.060        83
41.080        67
41.100        97
41.120        80
41.140       100
41.160       137
41.180       110
41.200        50
41.220        93
41.240        93
41.260        90
41.280        93
41.300       113
41.320        83
41.340       107
41.360        80
41.380        93
41.400        80
41.420       110
41.440        77
41.460       117
41.480       100
41.500       123
41.520        80
41.540        93
41.560        67
41.580       140
41.600       117
41.620       110
41.640        97
41.660       167
41.680       167
41.700       193
41.720       167
41.740       123
41.760       140
41.780       153
41.800       123
41.820        93
41.840       157
41.860       100
41.880       113
41.900       113
41.920       117
41.940       140
41.960        77
41.980       107
42.000       103
42.020       103
42.040       133
42.060        90
42.080        73
42.100       117
42.120        83
42.140       113
42.160        80
42.180       153
42.200        97
42.220       157
42.240        87
42.260       100
42.280        77
42.300        90
42.320       107
42.340       120
42.360       107
42.380       117
42.400        90
42.420        83
42.440       127
42.460       107
42.480       103
42.500       110
42.520       137
42.540        90
42.560       140
42.580       110
42.600       103
42.620       123
42.640       147
42.660       113
42.680        80
42.700       130
42.720        90
42.740       127
42.760       147
42.780       170
42.800       170
42.820       100
42.840       193
42.860       117
42.880       163
42.900       193
42.920       207
42.940       203
42.960       183
42.980       253
43.000       193
43.020       270
43.040       293
43.060       327
43.080       307
43.100       357
43.120       357
43.140       436
43.160       390
43.180       403
43.200       586
43.220       623
43.240       700
43.260       616
43.280       743
43.300       906
43.320       956
43.340      1153
43.360      1173
43.380      1496
43.400      1506
43.420      1319
43.440      1230
43.460      1163
43.480      1243
43.500      1206
43.520      1166
43.540       956
43.560       933
43.580       843
43.600       796
43.620       800
43.640       726
43.660       670
43.680       590
43.700       563
43.720       673
43.740       546
43.760       496
43.780       550
43.800       523
43.820       420
43.840       360
43.860       400
43.880       317
43.900       290
43.920       220
43.940       227
43.960       220
43.980       233
44.000       267
44.020       173
44.040       180
44.060       140
44.080       180
44.100       127
44.120       157
44.140       160
44.160       127
44.180       127
44.200       140
44.220       163
44.240       123
44.260       110
44.280       143
44.300       133
44.320       163
44.340       120
44.360       170
44.380       107
44.400       100
44.420       107
44.440       143
44.460       107
44.480       110
44.500        83
44.520       100
44.540       117
44.560       107
44.580       110
44.600       113
44.620       117
44.640        70
44.660       117
44.680        90
44.700       117
44.720       137
44.740       127
44.760       103
44.780       117
44.800       143
44.820       117
44.840       103
44.860       107
44.880       103
44.900       100
44.920        97
44.940       110
44.960        97
44.980       100
45.000        87
45.020       103
45.040       110
45.060        93
45.080       103
45.100       123
45.120       100
45.140       100
45.160       123
45.180        77
45.200        87
45.220        60
45.240        80
45.260       110
45.280        90
45.300       120
45.320        93
45.340       110
45.360       107
45.380       103
45.400        83
45.420       100
45.440       103
45.460       110
45.480        97
45.500        67
45.520        83
45.540        97
45.560       103
45.580        90
45.600        73
45.620        70
45.640       110
45.660       110
45.680        77
45.700       103
45.720       127
45.740       107
45.760        63
45.780        93
45.800       103
45.820       117
45.840        83
45.860        63
45.880       110
45.900        97
45.920        97
45.940       113
45.960       113
45.980        43
46.000        80
46.020        87
46.040        80
46.060       110
46.080        93
46.100        73
46.120        73
46.140        80
46.160        90
46.180       117
46.200       110
46.220        90
46.240       140
46.260        73
46.280        83
46.300       113
46.320        77
46.340        93
46.360        77
46.380        67
46.400       107
46.420        80
46.440        80
46.460        73
46.480        83
46.500        70
46.520        93
46.540        80
46.560        90
46.580        83
46.600       113
46.620        73
46.640        73
46.660        63
46.680        63
46.700        50
46.720       100
46.740        80
46.760        90
46.780        87
46.800        93
46.820        97
46.840       113
46.860        83
46.880        73
46.900        70
46.920        93
46.940       110
46.960        80
46.980        70
47.000        77
47.020        90
47.040        43
47.060        87
47.080        60
47.100        83
47.120        77
47.140        93
47.160        83
47.180        70
47.200        67
47.220       127
47.240       110
47.260       107
47.280        80
47.300        70
47.320        70
47.340       103
47.360       107
47.380        97
47.400        60
47.420       100
47.440        87
47.460        53
47.480        80
47.500        63
47.520        77
47.540        80
47.560        77
47.580        83
47.600        47
47.620       103
47.640        73
47.660        87
47.680        70
47.700        70
47.720        70
47.740        60
47.760        57
47.780        67
47.800        83
47.820       120
47.840        57
47.860        73
47.880        90
47.900        80
47.920        97
47.940        80
47.960        73
47.980        73
48.000       100
48.020       107
48.040        90
48.060        73
48.080        83
48.100        97
48.120        60
48.140        77
48.160        70
48.180        73
48.200       113
48.220       103
48.240        80
48.260        70
48.280        63
48.300        53
48.320        67
48.340        73
48.360        87
48.380        73
48.400        93
48.420        67
48.440        80
48.460        67
48.480        50
48.500        53
48.520       110
48.540        93
48.560        70
48.580        87
48.600        83
48.620        77
48.640        87
48.660        67
48.680        67
48.700        63
48.720        70
48.740        90
48.760        77
48.780        63
48.800        93
48.820       117
48.840        77
48.860        97
48.880       107
48.900       120
48.920       117
48.940        80
48.960       103
48.980        60
49.000       103
49.020        63
49.040       103
49.060        57
49.080        93
49.100        80
49.120        67
49.140        80
49.160       100
49.180        73
49.200        80
49.220        47
49.240        83
49.260        67
49.280        63
49.300        73
49.320        63
49.340        77
49.360        57
49.380       107
49.400        77
49.420        70
49.440        80
49.460        93
49.480        57
49.500        70
49.520       103
49.540        97
49.560        57
49.580        73
49.600        67
49.620       120
49.640       103
49.660        60
49.680        63
49.700        67
49.720        63
49.740        73
49.760        63
49.780       113
49.800        83
49.820        57
49.840        77
49.860        87
49.880        80
49.900        67
49.920        93
49.940        50
49.960        77
49.980        87
50.000        60
50.020        73
50.040        73
50.060        60
50.080       110
50.100        87
50.120        93
50.140       107
50.160        77
50.180        77
50.200        67
50.220        53
50.240        30
50.260        73
50.280        80
50.300        83
50.320        63
50.340        70
50.360        87
50.380        77
50.400        90
50.420        57
50.440        63
50.460        57
50.480       100
50.500        70
50.520        60
50.540        43
50.560        83
50.580        87
50.600       100
50.620        77
50.640        73
50.660        73
50.680        67
50.700        77
50.720        73
50.740        77
50.760        73
50.780        63
50.800        73
50.820        40
50.840       107
50.860        90
50.880        93
50.900        83
50.920        80
50.940        80
50.960        70
50.980        90
51.000        70
51.020        50
51.040        57
51.060        63
51.080        70
51.100        60
51.120        50
51.140       123
51.160        63
51.180        57
51.200        70
51.220        83
51.240        77
51.260        90
51.280        60
51.300        43
51.320        67
51.340        77
51.360        70
51.380        90
51.400        73
51.420        80
51.440        90
51.460        83
51.480        67
51.500        87
51.520        67
51.540        97
51.560        73
51.580        73
51.600        53
51.620        50
51.640        70
51.660        83
51.680        87
51.700        77
51.720        80
51.740        80
51.760        77
51.780        97
51.800        87
51.820        53
51.840        90
51.860        77
51.880        77
51.900        87
51.920        90
51.940        60
51.960        97
51.980        53
52.000        80
52.020        73
52.040        70
52.060        90
52.080        83
52.100        57
52.120        77
52.140        80
52.160        83
52.180        63
52.200        83
52.220        90
52.240        90
52.260        73
52.280       110
52.300        93
52.320        87
52.340        83
52.360        63
52.380        40
52.400        77
52.420        93
52.440       103
52.460        97
52.480       107
52.500       157
52.520       127
52.540       187
52.560       270
52.580       347
52.600       387
52.620       270
52.640       227
52.660       153
52.680       173
52.700       143
52.720       273
52.740       200
52.760       147
52.780       117
52.800       123
52.820        77
52.840        90
52.860        87
52.880        90
52.900       107
52.920        77
52.940        80
52.960        87
52.980       107
53.000        67
53.020        53
53.040        77
53.060       103
53.080        63
53.100        87
53.120        83
53.140        80
53.160        87
53.180        73
53.200        83
53.220        87
53.240        83
53.260        97
53.280       110
53.300       103
53.320       123
53.340        93
53.360       107
53.380       103
53.400       140
53.420        60
53.440       113
53.460        97
53.480       120
53.500        90
53.520        97
53.540        80
53.560       107
53.580       103
53.600       107
53.620       103
53.640        83
53.660       107
53.680       117
53.700        83
53.720       133
53.740       133
53.760       123
53.780       153
53.800       137
53.820       113
53.840       137
53.860       133
53.880       173
53.900       137
53.920       150
53.940       197
53.960       160
53.980       193
54.000       203
54.020       197
54.040       253
54.060       253
54.080       243
54.100       327
54.120       273
54.140       313
54.160       290
54.180       367
54.200       333
54.220       380
54.240       436
54.260       430
54.280       390
54.300       413
54.320       393
54.340       383
54.360       393
54.380       480
54.400       383
54.420       433
54.440       390
54.460       397
54.480       370
54.500       390
54.520       370
54.540       330
54.560       287
54.580       240
54.600       260
54.620       283
54.640       210
54.660       203
54.680       197
54.700       223
54.720       237
54.740       200
54.760       153
54.780       177
54.800       173
54.820       150
54.840       157
54.860       147
54.880       137
54.900       163
54.920       103
54.940       123
54.960       120
54.980        97
55.000       160
55.020       127
55.040       110
55.060       113
55.080        83
55.100        93
55.120       110
55.140        87
55.160        57
55.180        83
55.200        87
55.220       107
55.240        70
55.260       107
55.280        73
55.300        93
55.320       100
55.340        80
55.360        77
55.380        93
55.400        70
55.420       110
55.440       107
55.460        87
55.480        77
55.500        70
55.520        77
55.540        83
55.560       120
55.580        80
55.600        93
55.620        77
55.640       100
55.660        47
55.680        93
55.700        60
55.720        73
55.740       107
55.760        77
55.780        87
55.800        53
55.820        83
55.840        73
55.860        93
55.880        80
55.900       103
55.920        57
55.940       113
55.960       110
55.980        67
56.000        87
56.020        77
56.040        73
56.060        80
56.080        67
56.100        80
56.120        83
56.140        57
56.160        73
56.180        97
56.200        77
56.220        70
56.240        77
56.260        77
56.280        80
56.300        73
56.320        97
56.340        90
56.360        87
56.380        47
56.400        57
56.420        70
56.440        57
56.460        90
56.480        87
56.500        70
56.520        87
56.540        60
56.560        73
56.580        97
56.600        83
56.620        90
56.640        83
56.660        77
56.680        93
56.700        70
56.720        93
56.740        70
56.760        90
56.780        67
56.800        90
56.820        80
56.840        83
56.860        77
56.880        70
56.900        80
56.920       103
56.940        77
56.960       100
56.980        60
57.000        63
57.020        73
57.040        90
57.060        83
57.080       107
57.100        97
57.120        90
57.140        60
57.160        67
57.180        87
57.200        80
57.220        90
57.240        73
57.260       103
57.280        90
57.300       120
57.320       103
57.340       107
57.360       160
57.380       130
57.400       153
57.420       237
57.440       257
57.460       460
57.480       610
57.500       773
57.520      1026
57.540       990
57.560       803
57.580       556
57.600       450
57.620       320
57.640       410
57.660       430
57.680       546
57.700       560
57.720       426
57.740       270
57.760       233
57.780       113
57.800       167
57.820       120
57.840        83
57.860        93
57.880        83
57.900        60
57.920        87
57.940        63
57.960        57
57.980        90
58.000        93
58.020        90
58.040        73
58.060        73
58.080        60
58.100       103
58.120        97
58.140        87
58.160        87
58.180       100
58.200        73
58.220        83
58.240        63
58.260        73
58.280        73
58.300        70
58.320        50
58.340        47
58.360        93
58.380        97
58.400        80
58.420        53
58.440        63
58.460        63
58.480        53
58.500       100
58.520        77
58.540        63
58.560        57
58.580        67
58.600        53
58.620        60
58.640        73
58.660        70
58.680        70
58.700        67
58.720        60
58.740        53
58.760        60
58.780        53
58.800        83
58.820        80
58.840        90
58.860        63
58.880        87
58.900        63
58.920        50
58.940        67
58.960        83
58.980        73
59.000        67
59.020        87
59.040        60
59.060        37
59.080        40
59.100        47
59.120        73
59.140        67
59.160        53
59.180        50
59.200        83
59.220       113
59.240        63
59.260        60
59.280        60
59.300        60
59.320        47
59.340        57
59.360        63
59.380        67
59.400        53
59.420        60
59.440        53
59.460        93
59.480        63
59.500        40
59.520        67
59.540        50
59.560        67
59.580        77
59.600        97
59.620        67
59.640        73
59.660        50
59.680        93
59.700        67
59.720        57
59.740        33
59.760        70
59.780        90
59.800        90
59.820        90
59.840        80
59.860        70
59.880        67
59.900        57
59.920        90
59.940       100
59.960        60
59.980        53
60.000        87
60.020        83
60.040        57
60.060        80
60.080        87
60.100        80
60.120       100
60.140        90
60.160        70
60.180        40
60.200        37
60.220        47
60.240        77
60.260        80
60.280       110
60.300        47
60.320        47
60.340        73
60.360        87
60.380        87
60.400        60
60.420        50
60.440        80
60.460        53
60.480        70
60.500       110
60.520        77
60.540        70
60.560        57
60.580        70
60.600        73
60.620        67
60.640        63
60.660        70
60.680        73
60.700        57
60.720        63
60.740        57
60.760        60
60.780        47
60.800        90
60.820        63
60.840        77
60.860        60
60.880        40
60.900        77
60.920        67
60.940        67
60.960        60
60.980       100
61.000        67
61.020        90
61.040        57
61.060        57
61.080        73
61.100        57
61.120        93
61.140       103
61.160        73
61.180        97
61.200       133
61.220       160
61.240       190
61.260       337
61.280       377
61.300       533
61.320       610
61.340       606
61.360       510
61.380       290
61.400       203
61.420       227
61.440       213
61.460       290
61.480       377
61.500       397
61.520       243
61.540       267
61.560       177
61.580       107
61.600        93
61.620       100
61.640       107
61.660        93
61.680        63
61.700        87
61.720       120
61.740        60
61.760        83
61.780        93
61.800        57
61.820        67
61.840        73
61.860        60
61.880        43
61.900       100
61.920        63
61.940        67
61.960        53
61.980        57
62.000        87
62.020        37
62.040        67
62.060        70
62.080        73
62.100        43
62.120        63
62.140        37
62.160        87
62.180        57
62.200        77
62.220        43
62.240        63
62.260        63
62.280        77
62.300        60
62.320        70
62.340        70
62.360        37
62.380        43
62.400        50
62.420        53
62.440        87
62.460        40
62.480        53
62.500        50
62.520        57
62.540        43
62.560        70
62.580        50
62.600        67
62.620        83
62.640        53
62.660        53
62.680        70
62.700        60
62.720        67
62.740        43
62.760        43
62.780        63
62.800        97
62.820        80
62.840        93
62.860        73
62.880        40
62.900        93
62.920        67
62.940        40
62.960        67
62.980        90
63.000        80
63.020        67
63.040        60
63.060        77
63.080        77
63.100        67
63.120        73
63.140        83
63.160        93
63.180        70
63.200        77
63.220        53
63.240        90
63.260        67
63.280        80
63.300        77
63.320        77
63.340        83
63.360        93
63.380        63
63.400        73
63.420        87
63.440        87
63.460        77
63.480        57
63.500        63
63.520        93
63.540        73
63.560        97
63.580        77
63.600        70
63.620        83
63.640        70
63.660        80
63.680        83
63.700       100
63.720        63
63.740       113
63.760        93
63.780        87
63.800        70
63.820        73
63.840       110
63.860        73
63.880        80
63.900        70
63.920        67
63.940        63
63.960        70
63.980        43
64.000        57
64.020        77
64.040        87
64.060        60
64.080        70
64.100        70
64.120        43
64.140        60
64.160        73
64.180        90
64.200        53
64.220        87
64.240        63
64.260        63
64.280        70
64.300        70
64.320        40
64.340        83
64.360        83
64.380        53
64.400        70
64.420        53
64.440        43
64.460        60
64.480        57
64.500        60
64.520        63
64.540        40
64.560        47
64.580        60
64.600        60
64.620        50
64.640        60
64.660        47
64.680        57
64.700        63
64.720        33
64.740        57
64.760        60
64.780        40
64.800        50
64.820        40
64.840       103
64.860        47
64.880        60
64.900        67
64.920        63
64.940        53
64.960        60
64.980        40
65.000        60
65.020        33
65.040        60
65.060        70
65.080        53
65.100        50
65.120        47
65.140        57
65.160        60
65.180        57
65.200        70
65.220        77
65.240        53
65.260        63
65.280        53
65.300        57
65.320        50
65.340        73
65.360        67
65.380        43
65.400        60
65.420        67
65.440        63
65.460        40
65.480        70
65.500        67
65.520        37
65.540        47
65.560        73
65.580        63
65.600        73
65.620        63
65.640        87
65.660        87
65.680       100
65.700        90
65.720        53
65.740        80
65.760        53
65.780        57
65.800        70
65.820        73
65.840        83
65.860        60
65.880        57
65.900        70
65.920        70
65.940        70
65.960        67
65.980        47
66.000        57
66.020        53
66.040        57
66.060        67
66.080        63
66.100        77
66.120        47
66.140        67
66.160        67
66.180        40
66.200        67
66.220        27
66.240        50
66.260        47
66.280        60
66.300        57
66.320        97
66.340        73
66.360        83
66.380        80
66.400        93
66.420       107
66.440       113
66.460       103
66.480       150
66.500       173
66.520       277
66.540       350
66.560       280
66.580       283
66.600       207
66.620       190
66.640       103
66.660       160
66.680       143
66.700       153
66.720       170
66.740       183
66.760       197
66.780       107
66.800       117
66.820        53
66.840        87
66.860        57
66.880        63
66.900        80
66.920        73
66.940        77
66.960        47
66.980        60
67.000        77
67.020        73
67.040        67
67.060        53
67.080        63
67.100        60
67.120        50
67.140        43
67.160        90
67.180        53
67.200        87
67.220        93
67.240        73
67.260        67
67.280        53
67.300        53
67.320        60
67.340        73
67.360        43
67.380        67
67.400        83
67.420        73
67.440        80
67.460        43
67.480        33
67.500        57
67.520        57
67.540        87
67.560        60
67.580        70
67.600        53
67.620        70
67.640        67
67.660        60
67.680        67
67.700        70
67.720        67
67.740        57
67.760        63
67.780        97
67.800        90
67.820        57
67.840        60
67.860        73
67.880        73
67.900        80
67.920        83
67.940        93
67.960        93
67.980       107
68.000        77
68.020        87
68.040        87
68.060        83
68.080       100
68.100       117
68.120       107
68.140        97
68.160       127
68.180       157
68.200       210
68.220       357
68.240       616
68.260       580
68.280       413
68.300       347
68.320       207
68.340       177
68.360       190
68.380       137
68.400       170
68.420       273
68.440       303
68.460       270
68.480       190
68.500       163
68.520       153
68.540       100
68.560        83
68.580        63
68.600        87
68.620        77
68.640        57
68.660        57
68.680        70
68.700        47
68.720        70
68.740        47
68.760        60
68.780        43
68.800        50
68.820        67
68.840        60
68.860        63
68.880        63
68.900        80
68.920        73
68.940        77
68.960        33
68.980        70
69.000        57
69.020        40
69.040        47
69.060        50
69.080        63
69.100        50
69.120        67
69.140        30
69.160        73
69.180        43
69.200        67
69.220        67
69.240        83
69.260        33
69.280        87
69.300        60
69.320        63
69.340        57
69.360        80
69.380        67
69.400        53
69.420        37
69.440        50
69.460        60
69.480        50
69.500        63
69.520        67
69.540        47
69.560        77
69.580        60
69.600        50
69.620        50
69.640        40
69.660        60
69.680        53
69.700        47
69.720        63
69.740        63
69.760        60
69.780        27
69.800        37
69.820        50
69.840        40
69.860        27
69.880        40
69.900        70
69.920        57
69.940        57
69.960        67
69.980        40
70.000        70
70.020        73
70.040        80
70.060        43
70.080        83
70.100        87
70.120        50
70.140        63
70.160        70
70.180        50
70.200        53
70.220        73
70.240        70
70.260        60
70.280        37
70.300        57
70.320        50
70.340        57
70.360        53
70.380        40
70.400        73
70.420        80
70.440        53
70.460        60
70.480        77
70.500        70
70.520        53
70.540        57
70.560        27
70.580        83
70.600        63
70.620        57
70.640        60
70.660        70
70.680        47
70.700        60
70.720        43
70.740        63
70.760        60
70.780        87
70.800        70
70.820        57
70.840        60
70.860        57
70.880        47
70.900        57
70.920        80
70.940        50
70.960        93
70.980        50
71.000        67
71.020        43
71.040        57
71.060        63
71.080        57
71.100        47
71.120        90
71.140        67
71.160        83
71.180        83
71.200        63
71.220        67
71.240        53
71.260        67
71.280        63
71.300        73
71.320        67
71.340        67
71.360       103
71.380        80
71.400        63
71.420        80
71.440        73
71.460        73
71.480        83
71.500        70
71.520        57
71.540        80
71.560        70
71.580        50
71.600       120
71.620        83
71.640        67
71.660        97
71.680       103
71.700        80
71.720        93
71.740        67
71.760        93
71.780        93
71.800       103
71.820        63
71.840        67
71.860        93
71.880       120
71.900        97
71.920        93
71.940       100
71.960        87
71.980       103
72.000       110
72.020        97
72.040       110
72.060        87
72.080        97
72.100        87
72.120        87
72.140        70
72.160        70
72.180        67
72.200        73
72.220        90
72.240       107
72.260        67
72.280        90
72.300        83
72.320       107
72.340        67
72.360        87
72.380        83
72.400        73
72.420        63
72.440        67
72.460        97
72.480        37
72.500        60
72.520        57
72.540        43
72.560        73
72.580        97
72.600        87
72.620        57
72.640        73
72.660        40
72.680        40
72.700        60
72.720        70
72.740        47
72.760        60
72.780        47
72.800        97
72.820        43
72.840        53
72.860        50
72.880        67
72.900        40
72.920        43
72.940        87
72.960        70
72.980        37
73.000        83
73.020        30
73.040        40
73.060        77
73.080        60
73.100        57
73.120        70
73.140        50
73.160        60
73.180        53
73.200        50
73.220        50
73.240        80
73.260        57
73.280        77
73.300        53
73.320        53
73.340        70
73.360        60
73.380        47
73.400        57
73.420        57
73.440        53
73.460        70
73.480        67
73.500        37
73.520        43
73.540        60
73.560        90
73.580        60
73.600        57
73.620        63
73.640        37
73.660        57
73.680        70
73.700        53
73.720        57
73.740        53
73.760        67
73.780        57
73.800        83
73.820        50
73.840        77
73.860        77
73.880        50
73.900        40
73.920        87
73.940        50
73.960        73
73.980        40
74.000        30
74.020        53
74.040        70
74.060        60
74.080        53
74.100        67
74.120        50
74.140        70
74.160        57
74.180        40
74.200        43
74.220        27
74.240        73
74.260        67
74.280        90
74.300        43
74.320        77
74.340       113
74.360        80
74.380        90
74.400        73
74.420        57
74.440        57
74.460        73
74.480        63
74.500        47
74.520        90
74.540        80
74.560        63
74.580        43
74.600        80
74.620        63
74.640        47
74.660        70
74.680        57
74.700        57
74.720        63
74.740        87
74.760        63
74.780        53
74.800        77
74.820        47
74.840        57
74.860        50
74.880        43
74.900        40
74.920        57
74.940        73
74.960        60
74.980        70
75.000        87
75.020        77
75.040        70
75.060        53
75.080        80
75.100        73
75.120        50
75.140        60
75.160        57
75.180        73
75.200        67
75.220        57
75.240        77
75.260        60
75.280        63
75.300        47
75.320        57
75.340        47
75.360        67
75.380        73
75.400        53
75.420        43
75.440        77
75.460        57
75.480        67
75.500        77
75.520        57
75.540        80
75.560        73
75.580        63
75.600        67
75.620        57
75.640        53
75.660        80
75.680        40
75.700        70
75.720        57
75.740        63
75.760        70
75.780        83
75.800        63
75.820        47
75.840        67
75.860        50
75.880        73
75.900        60
75.920        87
75.940        43
75.960        73
75.980        80
76.000        53
76.020        50
76.040        67
76.060        50
76.080        67
76.100        60
76.120        47
76.140        57
76.160        83
76.180        50
76.200        67
76.220        67
76.240        67
76.260        90
76.280        57
76.300        87
76.320        77
76.340        80
76.360        87
76.380        83
76.400        87
76.420        50
76.440       110
76.460       117
76.480       113
76.500        80
76.520        97
76.540       103
76.560       100
76.580        93
76.600       103
76.620        77
76.640       110
76.660       143
76.680       137
76.700       153
76.720       180
76.740       180
76.760       253
76.780       260
76.800       333
76.820       596
76.840      1020
76.860      1599
76.880      2073
76.900      2529
76.920      2279
76.940      1683
76.960      1240
76.980       770
77.000       503
77.020       446
77.040       403
77.060       630
77.080       790
77.100      1070
77.120      1220
77.140      1243
77.160      1083
77.180       720
77.200       543
77.220       466
77.240       480
77.260       407
77.280       496
77.300       370
77.320       293
77.340       163
77.360       177
77.380       150
77.400       137
77.420       100
77.440       143
77.460       167
77.480       203
77.500       190
77.520       170
77.540       117
77.560       130
77.580       137
77.600        93
77.620        93
77.640        63
77.660        57
77.680        70
77.700        70
77.720        70
77.740        67
77.760        63
77.780        67
77.800        83
77.820        50
77.840        73
77.860        43
77.880        67
77.900        70
77.920        73
77.940        60
77.960        50
77.980        40
78.000        83
78.020        67
78.040        67
78.060        53
78.080        60
78.100        57
78.120        63
78.140        70
78.160       110
78.180        60
78.200        87
78.220        70
78.240        80
78.260        60
78.280        87
78.300        87
78.320        70
78.340        67
78.360        73
78.380        80
78.400        83
78.420        80
78.440        50
78.460        80
78.480        90
78.500       103
78.520        80
78.540       113
78.560        70
78.580        40
78.600        90
78.620        50
78.640        63
78.660        67
78.680        97
78.700        73
78.720        63
78.740        77
78.760        80
78.780        77
78.800        77
78.820        77
78.840        77
78.860        70
78.880        63
78.900        93
78.920        67
78.940        60
78.960        57
78.980        67
79.000        93
79.020        73
79.040        60
79.060        77
79.080        70
79.100        80
79.120        37
79.140       100
79.160        83
79.180        57
79.200        97
79.220        63
79.240        73
79.260        67
79.280       103
79.300        87
79.320       107
79.340        97
79.360        63
79.380        83
79.400        57
79.420        80
79.440        83
79.460        90
79.480        70
79.500        97
79.520        80
79.540       107
79.560        87
79.580       107
79.600       107
79.620        90
79.640        90
79.660        90
79.680       123
79.700       117
79.720       110
79.740        97
79.760       107
79.780       143
79.800       103
79.820       150
79.840       120
79.860       147
79.880       183
79.900       147
79.920       133
79.940       137
79.960       150
79.980       170
80.000       207
