20.000       233
20.020       203
20.040       243
20.060       240
20.080       233
20.100       213
20.120       180
20.140       227
20.160       190
20.180       210
20.200       207
20.220       257
20.240       263
20.260       187
20.280       223
20.300       263
20.320       263
20.340       287
20.360       263
20.380       230
20.400       197
20.420       217
20.440       217
20.460       193
20.480       230
20.500       247
20.520       187
20.540       233
20.560       233
20.580       210
20.600       237
20.620       220
20.640       227
20.660       163
20.680       217
20.700       220
20.720       227
20.740       213
20.760       210
20.780       220
20.800       187
20.820       267
20.840       237
20.860       237
20.880       230
20.900       207
20.920       213
20.940       257
20.960       177
20.980       193
21.000       220
21.020       233
21.040       223
21.060       207
21.080       180
21.100       247
21.120       173
21.140       213
21.160       257
21.180       220
21.200       200
21.220       213
21.240       227
21.260       247
21.280       200
21.300       247
21.320       170
21.340       210
21.360       273
21.380       253
21.400       217
21.420       227
21.440       157
21.460       187
21.480       233
21.500       277
21.520       270
21.540       280
21.560       300
21.580       340
21.600       340
21.620       317
21.640       363
21.660       403
21.680       460
21.700       480
21.720       400
21.740       470
21.760       466
21.780       297
21.800       377
21.820       343
21.840       293
21.860       217
21.880       217
21.900       210
21.920       200
21.940       200
21.960       267
21.980       193
22.000       217
22.020       163
22.040       200
22.060       173
22.080       223
22.100       213
22.120       243
22.140       170
22.160       183
22.180       223
22.200       233
22.220       220
22.240       170
22.260       233
22.280       157
22.300       197
22.320       177
22.340       223
22.360       190
22.380       187
22.400       220
22.420       197
22.440       203
22.460       263
22.480       220
22.500       183
22.520       227
22.540       183
22.560       200
22.580       190
22.600       193
22.620       193
22.640       217
22.660       183
22.680       223
22.700       170
22.720       270
22.740       193
22.760       190
22.780       180
22.800       160
22.820       190
22.840       167
22.860       200
22.880       213
22.900       167
22.920       203
22.940       233
22.960       223
22.980       157
23.000       167
23.020       227
23.040       197
23.060       160
23.080       177
23.100       200
23.120       173
23.140       200
23.160       203
23.180       160
23.200       213
23.220       210
23.240       170
23.260       200
23.280       143
23.300       200
23.320       190
23.340       223
23.360       213
23.380       187
23.400       173
23.420       157
23.440       173
23.460       193
23.480       180
23.500       180
23.520       183
23.540       180
23.560       180
23.580       163
23.600       227
23.620       193
23.640       180
23.660       207
23.680       227
23.700       207
23.720       210
23.740       167
23.760       137
23.780       147
23.800       203
23.820       207
23.840       143
23.860       230
23.880       143
23.900       137
23.920       183
23.940       207
23.960       167
23.980       163
24.000       167
24.020       170
24.040       177
24.060       157
24.080       190
24.100       180
24.120       170
24.140       150
24.160       147
24.180       197
24.200       183
24.220       187
24.240       217
24.260       167
24.280       153
24.300       157
24.320       147
24.340       167
24.360       157
24.380       160
24.400       157
24.420       177
24.440       160
24.460       160
24.480       170
24.500       183
24.520       170
24.540       150
24.560       153
24.580       167
24.600       170
24.620       170
24.640       143
24.660       180
24.680       143
24.700       103
24.720       190
24.740       200
24.760       137
24.780       123
24.800       197
24.820       190
24.840       143
24.860       190
24.880       193
24.900       173
24.920       147
24.940       180
24.960       123
24.980       180
25.000       197
25.020       160
25.040       137
25.060       180
25.080       167
25.100       120
25.120       180
25.140       187
25.160       160
25.180       160
25.200       160
25.220       217
25.240       150
25.260       177
25.280       183
25.300       167
25.320       133
25.340       120
25.360       190
25.380       107
25.400       180
25.420       170
25.440       147
25.460       167
25.480       150
25.500       187
25.520       170
25.540       153
25.560       197
25.580       180
25.600       160
25.620       143
25.640       167
25.660       223
25.680       190
25.700       147
25.720       143
25.740       140
25.760       187
25.780       167
25.800       133
25.820       150
25.840       133
25.860       147
25.880       123
25.900       173
25.920       147
25.940       153
25.960       177
25.980       147
26.000       173
26.020       147
26.040       190
26.060       180
26.080       150
26.100       127
26.120       137
26.140       127
26.160       177
26.180       137
26.200       163
26.220       183
26.240       137
26.260       133
26.280       160
26.300       173
26.320       127
26.340       190
26.360       140
26.380       150
26.400       137
26.420       140
26.440       123
26.460       123
26.480       143
26.500       167
26.520       143
26.540       163
26.560       160
26.580       153
26.600       157
26.620       130
26.640       153
26.660       153
26.680       153
26.700       150
26.720       133
26.740       163
26.760       123
26.780       153
26.800       113
26.820       123
26.840       143
26.860       120
26.880       130
26.900       137
26.920       143
26.940       143
26.960       133
26.980       117
27.000       140
27.020       117
27.040       140
27.060       130
27.080       133
27.100       127
27.120       103
27.140       173
27.160       150
27.180       130
27.200       183
27.220       130
27.240       130
27.260       120
27.280       113
27.300       133
27.320       153
27.340       113
27.360       147
27.380       137
27.400       150
27.420       167
27.440       153
27.460       153
27.480       113
27.500       127
27.520       113
27.540       113
27.560       110
27.580       140
27.600       143
27.620       120
27.640       133
27.660       110
27.680       120
27.700       127
27.720       123
27.740       107
27.760       147
27.780       160
27.800       143
27.820       130
27.840       160
27.860       123
27.880       120
27.900       133
27.920       130
27.940       127
27.960       123
27.980        87
28.000       137
28.020       117
28.040       117
28.060       177
28.080       130
28.100       143
28.120       117
28.140        90
28.160       140
28.180       107
28.200       137
28.220        93
28.240       143
28.260       117
28.280       147
28.300       133
28.320       140
28.340       130
28.360       117
28.380       130
28.400       147
28.420       113
28.440       110
28.460       113
28.480       113
28.500       140
28.520       140
28.540       117
28.560       110
28.580       130
28.600       153
28.620       110
28.640       110
28.660       153
28.680       130
28.700       133
28.720       133
28.740       103
28.760       120
28.780       107
28.800       113
28.820       103
28.840        97
28.860       103
28.880        87
28.900       113
28.920       117
28.940       117
28.960       103
28.980        93
29.000       137
29.020       117
29.040       110
29.060        97
29.080       123
29.100       147
29.120       147
29.140        87
29.160       113
29.180       100
29.200       113
29.220       100
29.240       107
29.260       117
29.280       123
29.300        77
29.320        93
29.340       113
29.360        90
29.380       107
29.400        93
29.420        90
29.440        93
29.460       127
29.480       110
29.500        90
29.520       117
29.540       120
29.560       120
29.580       100
29.600       113
29.620       113
29.640        70
29.660       117
29.680       123
29.700       120
29.720       153
29.740       107
29.760        90
29.780       123
29.800       120
29.820       123
29.840       130
29.860       110
29.880        97
29.900       113
29.920       130
29.940        87
29.960       110
29.980       127
30.000       100
30.020        90
30.040        70
30.060       147
30.080       150
30.100       103
30.120       147
30.140       150
30.160       130
30.180       127
30.200       117
30.220        93
30.240       130
30.260       137
30.280       100
30.300       110
30.320       117
30.340       123
30.360       103
30.380       100
30.400       123
30.420       107
30.440       120
30.460       117
30.480       107
30.500       137
30.520       137
30.540       120
30.560        90
30.580       113
30.600       123
30.620       133
30.640       137
30.660       187
30.680       173
30.700       180
30.720       213
30.740       213
30.760       313
30.780       350
30.800       420
30.820       506
30.840       576
30.860       600
30.880       793
30.900       760
30.920       870
30.940       846
30.960       870
30.980       786
31.000       660
31.020       726
31.040       643
31.060       576
31.080       443
31.100       393
31.120       350
31.140       340
31.160       243
31.180       240
31.200       187
31.220       190
31.240       173
31.260       140
31.280       157
31.300       140
31.320       143
31.340       120
31.360       147
31.380       137
31.400       123
31.420       173
31.440       113
31.460       120
31.480       120
31.500        87
31.520        77
31.540       140
31.560       110
31.580        87
31.600        90
31.620       107
31.640       133
31.660       120
31.680       103
31.700       137
31.720        83
31.740       123
31.760       127
31.780        63
31.800       110
31.820       113
31.840        97
31.860        97
31.880       123
31.900       103
31.920        83
31.940       143
31.960       107
31.980       110
32.000       103
32.020       117
32.040        90
32.060        90
32.080       107
32.100       150
32.120        93
32.140       110
32.160        67
32.180       103
32.200       103
32.220       103
32.240       117
32.260       100
32.280       120
32.300       147
32.320       123
32.340       140
32.360        83
32.380       120
32.400       117
32.420        93
32.440        83
32.460       103
32.480        97
32.500       100
32.520       100
32.540       123
32.560        87
32.580        83
32.600       120
32.620       140
32.640        87
32.660        90
32.680       110
32.700        97
32.720        93
32.740        93
32.760        87
32.780        93
32.800       110
32.820       110
32.840       100
32.860        90
32.880        90
32.900       107
32.920       110
32.940       123
32.960        90
32.980       117
33.000        73
33.020       100
33.040       120
33.060        87
33.080        77
33.100       107
33.120        73
33.140       120
33.160        97
33.180       113
33.200       137
33.220       110
33.240        83
33.260       127
33.280        93
33.300        83
33.320       120
33.340       117
33.360        90
33.380       110
33.400        87
33.420        47
33.440       103
33.460        97
33.480        93
33.500        70
33.520        77
33.540        83
33.560        77
33.580       107
33.600        73
33.620       120
33.640        93
33.660        97
33.680       117
33.700        80
33.720       127
33.740        93
33.760        83
33.780        93
33.800       120
33.820       103
33.840        83
33.860       110
33.880        97
33.900       120
33.920        87
33.940       107
33.960        97
33.980       137
34.000        93
34.020        93
34.040        53
34.060        77
34.080        93
34.100       107
34.120        90
34.140        70
34.160       100
34.180       107
34.200        83
34.220        87
34.240        93
34.260        73
34.280       110
34.300        70
34.320        70
34.340        73
34.360       107
34.380        83
34.400        77
34.420        80
34.440        90
34.460       117
34.480       110
34.500        90
34.520        87
34.540       103
34.560        93
34.580        67
34.600       110
34.620       103
34.640        77
34.660       120
34.680       117
34.700       110
34.720        67
34.740       113
34.760        77
34.780        50
34.800        80
34.820       110
34.840       117
34.860        97
34.880       103
34.900        97
34.920        90
34.940       107
34.960       103
34.980       120
35.000        83
35.020       130
35.040       133
35.060       137
35.080       103
35.100       107
35.120       137
35.140       180
35.160       193
35.180       187
35.200       127
35.220       143
35.240       140
35.260       123
35.280       143
35.300       133
35.320       103
35.340        97
35.360        87
35.380       100
35.400        73
35.420        70
35.440        70
35.460       100
35.480        97
35.500        97
35.520        63
35.540        90
35.560        67
35.580       100
35.600        77
35.620        73
35.640        80
35.660        83
35.680        63
35.700        93
35.720        60
35.740        67
35.760        57
35.780       110
35.800        90
35.820        87
35.840        63
35.860        57
35.880        87
35.900        80
35.920        93
35.940        70
35.960       113
35.980        73
36.000        63
36.020       127
36.040        97
36.060        97
36.080        80
36.100        83
36.120        70
36.140        83
36.160        87
36.180        90
36.200        90
36.220        50
36.240        83
36.260        63
36.280       100
36.300       110
36.320        77
36.340        67
36.360       113
36.380       100
36.400        80
36.420        80
36.440        87
36.460        70
36.480        93
36.500        97
36.520        90
36.540        70
36.560        83
36.580        60
36.600        87
36.620        87
36.640        93
36.660        87
36.680        80
36.700        67
36.720        93
36.740        73
36.760        90
36.780        77
36.800       110
36.820        90
36.840        83
36.860        77
36.880        53
36.900        77
36.920       107
36.940        83
36.960        50
36.980        63
37.000        70
37.020        90
37.040        93
37.060       103
37.080        93
37.100        83
37.120        73
37.140        90
37.160        90
37.180        73
37.200        97
37.220        53
37.240        83
37.260        83
37.280        90
37.300        93
37.320       100
37.340        77
37.360        80
37.380        67
37.400        73
37.420        73
37.440        97
37.460       103
37.480        90
37.500       110
37.520        83
37.540        73
37.560        90
37.580       137
37.600        77
37.620        77
37.640       100
37.660        73
37.680       110
37.700        90
37.720        77
37.740        97
37.760        83
37.780        87
37.800       127
37.820       107
37.840       150
37.860       117
37.880       150
37.900       167
37.920       193
37.940       200
37.960       173
37.980       170
38.000       177
38.020       280
38.040       323
38.060       380
38.080       420
38.100       436
38.120       583
38.140       656
38.160       706
38.180       896
38.200       943
38.220       810
38.240       916
38.260       830
38.280       756
38.300       743
38.320       720
38.340       626
38.360       566
38.380       506
38.400       433
38.420       327
38.440       200
38.460       220
38.480       170
38.500       167
38.520       113
38.540       130
38.560       137
38.580        97
38.600       130
38.620       140
38.640       103
38.660        90
38.680        77
38.700       123
38.720        90
38.740        77
38.760        70
38.780       107
38.800        90
38.820       107
38.840       120
38.860        77
38.880       123
38.900        90
38.920        90
38.940       100
38.960        67
38.980       123
39.000        97
39.020        63
39.040       113
39.060        57
39.080        97
39.100        63
39.120        77
39.140        90
39.160        77
39.180        60
39.200       103
39.220        93
39.240        80
39.260        87
39.280        63
39.300       103
39.320        73
39.340       113
39.360       100
39.380       110
39.400        73
39.420        73
39.440        73
39.460        90
39.480        97
39.500        73
39.520        67
39.540        97
39.560        80
39.580        57
39.600       103
39.620       100
39.640        63
39.660        97
39.680        77
39.700       110
39.720       137
39.740        87
39.760       103
39.780        87
39.800        77
39.820        67
39.840        67
39.860        87
39.880       103
39.900        63
39.920       100
39.940       103
39.960       100
39.980        63
40.000        60
40.020        53
40.040        77
40.060        60
40.080        40
40.100        73
40.120        90
40.140        87
40.160        67
40.180        73
40.200        87
40.220        80
40.240       100
40.260       103
40.280        80
40.300        47
40.320        93
40.340        97
40.360        67
40.380       110
40.400        83
40.420       100
40.440        70
40.460        80
40.480        70
40.500        57
40.520        80
40.540        77
40.560        73
40.580        60
40.600        83
40.620        63
40.640        93
40.660        40
40.680        77
40.700        70
40.720        50
40.740        77
40.760        57
40.780        50
40.800        67
40.820        73
40.840        67
40.860        60
40.880        73
40.900        63
40.920        70
40.940        70
40.960        77
40.980        83
41.000        67
41.020        57
41.040        93
41.060        60
41.080        63
41.100        83
41.120        63
41.140        97
41.160        53
41.180        73
41.200        93
41.220        93
41.240        83
41.260        90
41.280        90
41.300        93
41.320        70
41.340       100
41.360        60
41.380        83
41.400        90
41.420        80
41.440       110
41.460        90
41.480        63
41.500        67
41.520        93
41.540        87
41.560        83
41.580        83
41.600        53
41.620       130
41.640       103
41.660       117
41.680       140
41.700       143
41.720       103
41.740        97
41.760        80
41.780       113
41.800        93
41.820        63
41.840       103
41.860        57
41.880        70
41.900        73
41.920        80
41.940       107
41.960        90
41.980       100
42.000        97
42.020        87
42.040        60
42.060        77
42.080        73
42.100        87
42.120        87
42.140        87
42.160        57
42.180        73
42.200        63
42.220        60
42.240        73
42.260        83
42.280       100
42.300        67
42.320        73
42.340        77
42.360        63
42.380        67
42.400        67
42.420        90
42.440        47
42.460        73
42.480        67
42.500        97
42.520        87
42.540       113
42.560        73
42.580        67
42.600        67
42.620        50
42.640        80
42.660        67
42.680        73
42.700        60
42.720       103
42.740        80
42.760        83
42.780        80
42.800       103
42.820        77
42.840        90
42.860        83
42.880        83
42.900        73
42.920        87
42.940        93
42.960        80
42.980       100
43.000       100
43.020        87
43.040        73
43.060        43
43.080        93
43.100        77
43.120        93
43.140        83
43.160        90
43.180        77
43.200        73
43.220       107
43.240       117
43.260        93
43.280       140
43.300       167
43.320       230
43.340       387
43.360       377
43.380       347
43.400       223
43.420       210
43.440       193
43.460       233
43.480       227
43.500       173
43.520       157
43.540       103
43.560        83
43.580        63
43.600        93
43.620        83
43.640       133
43.660        87
43.680        87
43.700       120
43.720        97
43.740       127
43.760       123
43.780       127
43.800        97
43.820        97
43.840       137
43.860       140
43.880       137
43.900       197
43.920       217
43.940       207
43.960       283
43.980       290
44.000       323
44.020       377
44.040       430
44.060       436
44.080       516
44.100       626
44.120       733
44.140       873
44.160       940
44.180       880
44.200       966
44.220      1056
44.240      1110
44.260      1160
44.280       956
44.300       996
44.320      1043
44.340       953
44.360       883
44.380       850
44.400       726
44.420       660
44.440       593
44.460       546
44.480       377
44.500       413
44.520       307
44.540       323
44.560       283
44.580       250
44.600       193
44.620       177
44.640       153
44.660       147
44.680       137
44.700       173
44.720       127
44.740       127
44.760       117
44.780       107
44.800       107
44.820       120
44.840        80
44.860       107
44.880        97
44.900        77
44.920        87
44.940        80
44.960       100
44.980       103
45.000        73
45.020        90
45.040        77
45.060        83
45.080        97
45.100        83
45.120        83
45.140       107
45.160        80
45.180        73
45.200        90
45.220        53
45.240        63
45.260        80
45.280        90
45.300        83
45.320        97
45.340        63
45.360       123
45.380        73
45.400       150
45.420        77
45.440       100
45.460        83
45.480        60
45.500       107
45.520        73
45.540        70
45.560        90
45.580        90
45.600        83
45.620       100
45.640        63
45.660        53
45.680        87
45.700        93
45.720        70
45.740        70
45.760        77
45.780        80
45.800        67
45.820        50
45.840        67
45.860        60
45.880        87
45.900        97
45.920       113
45.940        90
45.960        63
45.980        80
46.000        43
46.020       113
46.040        70
46.060        63
46.080        53
46.100        77
46.120        73
46.140        73
46.160        80
46.180        87
46.200        93
46.220       107
46.240       103
46.260        60
46.280        57
46.300       100
46.320        73
46.340        53
46.360        87
46.380        47
46.400        67
46.420        60
46.440        73
46.460        67
46.480        63
46.500        60
46.520        70
46.540        60
46.560        83
46.580        77
46.600       100
46.620        50
46.640        77
46.660        77
46.680        80
46.700        87
46.720        67
46.740        70
46.760        70
46.780        63
46.800        73
46.820        70
46.840        70
46.860        50
46.880        73
46.900        77
46.920        77
46.940        83
46.960        77
46.980        63
47.000        77
47.020        80
47.040        67
47.060        77
47.080        40
47.100        73
47.120        43
47.140        63
47.160        70
47.180        73
47.200        67
47.220        93
47.240        97
47.260        70
47.280        70
47.300        87
47.320        67
47.340        70
47.360        67
47.380        63
47.400        53
47.420        57
47.440        90
47.460        73
47.480        60
47.500        90
47.520       107
47.540       103
47.560        60
47.580        47
47.600        60
47.620        60
47.640        63
47.660        40
47.680        57
47.700        63
47.720        77
47.740        83
47.760        70
47.780        80
47.800        67
47.820        47
47.840        80
47.860        63
47.880        43
47.900        60
47.920        70
47.940        73
47.960        60
47.980        93
48.000        87
48.020        80
48.040        80
48.060        77
48.080        73
48.100        70
48.120        50
48.140        90
48.160        67
48.180        53
48.200        50
48.220        83
48.240        67
48.260        47
48.280        73
48.300        87
48.320        80
48.340        63
48.360        50
48.380        50
48.400        63
48.420        67
48.440        67
48.460        97
48.480        60
48.500        80
48.520        70
48.540        47
48.560        80
48.580        57
48.600        67
48.620        63
48.640        97
48.660        77
48.680        57
48.700        63
48.720        60
48.740        63
48.760        73
48.780        70
48.800        77
48.820        70
48.840        53
48.860        47
48.880        50
48.900        43
48.920        53
48.940        57
48.960        67
48.980        87
49.000        87
49.020        50
49.040        63
49.060        77
49.080        57
49.100        77
49.120        90
49.140        60
49.160        97
49.180        87
49.200        80
49.220        60
49.240        70
49.260        93
49.280        77
49.300        73
49.320        67
49.340        70
49.360        60
49.380        80
49.400        80
49.420        80
49.440        73
49.460        73
49.480        53
49.500        77
49.520        93
49.540        53
49.560        53
49.580        80
49.600        90
49.620        63
49.640        97
49.660        80
49.680       100
49.700       127
49.720        63
49.740        67
49.760        83
49.780        67
49.800        73
49.820        87
49.840        63
49.860       100
49.880       110
49.900        57
49.920       110
49.940       127
49.960       120
49.980       120
50.000        87
50.020        83
50.040       107
50.060        73
50.080        63
50.100       110
50.120        93
50.140        97
50.160       100
50.180        43
50.200        57
50.220        70
50.240        63
50.260        83
50.280        77
50.300        73
50.320        73
50.340        67
50.360        97
50.380        63
50.400        50
50.420        60
50.440        70
50.460        60
50.480        97
50.500        77
50.520       100
50.540        60
50.560        53
50.580        63
50.600        90
50.620        57
50.640        93
50.660        87
50.680        60
50.700        57
50.720        60
50.740        60
50.760        70
50.780        70
50.800        57
50.820        80
50.840        63
50.860        33
50.880        43
50.900        87
50.920        60
50.940        80
50.960        40
50.980        80
51.000        80
51.020        83
51.040        53
51.060        63
51.080        53
51.100        87
51.120        67
51.140        53
51.160        73
51.180        43
51.200        60
51.220        70
51.240        73
51.260        67
51.280        57
51.300        63
51.320        67
51.340        70
51.360        67
51.380        57
51.400        67
51.420        77
51.440        57
51.460        57
51.480        90
51.500        50
51.520        63
51.540        60
51.560        87
51.580        67
51.600       103
51.620        67
51.640        57
51.660        67
51.680        40
51.700        77
51.720        53
51.740        37
51.760        70
51.780        57
51.800        90
51.820        70
51.840        43
51.860        57
51.880        47
51.900        60
51.920        57
51.940        70
51.960        67
51.980        90
52.000        77
52.020        63
52.040        70
52.060        53
52.080        77
52.100        50
52.120        73
52.140        40
52.160        53
52.180        80
52.200        70
52.220        50
52.240        87
52.260        67
52.280        43
52.300       107
52.320        63
52.340        50
52.360        50
52.380        77
52.400        73
52.420        70
52.440        87
52.460       113
52.480       150
52.500       203
52.520       223
52.540       303
52.560       233
52.580       250
52.600       147
52.620       143
52.640       120
52.660       153
52.680       113
52.700       163
52.720       110
52.740       120
52.760        87
52.780        93
52.800        73
52.820        67
52.840        53
52.860        90
52.880        70
52.900        87
52.920        57
52.940        60
52.960        70
52.980        53
53.000        70
53.020        70
53.040        90
53.060        57
53.080        63
53.100        57
53.120        67
53.140        70
53.160        60
53.180        63
53.200        50
53.220        63
53.240        70
53.260        77
53.280        60
53.300        67
53.320        80
53.340        67
53.360        80
53.380        63
53.400        73
53.420        57
53.440        57
53.460        60
53.480        93
53.500        80
53.520        80
53.540        53
53.560        63
53.580        80
53.600        67
53.620        90
53.640        67
53.660        77
53.680        90
53.700        63
53.720        67
53.740        67
53.760        57
53.780        57
53.800        67
53.820        67
53.840        53
53.860        87
53.880        70
53.900        93
53.920        90
53.940        77
53.960        97
53.980        73
54.000        80
54.020        57
54.040        77
54.060        73
54.080        80
54.100        87
54.120       120
54.140        83
54.160        97
54.180        60
54.200        80
54.220        83
54.240        63
54.260        57
54.280        60
54.300        70
54.320        50
54.340        87
54.360        83
54.380        90
54.400        67
54.420        83
54.440        80
54.460       120
54.480       113
54.500        83
54.520        73
54.540        87
54.560       130
54.580       103
54.600       143
54.620       110
54.640       143
54.660       103
54.680       133
54.700       163
54.720       200
54.740       193
54.760       197
54.780       217
54.800       243
54.820       343
54.840       367
54.860       493
54.880       463
54.900       483
54.920       516
54.940       616
54.960       586
54.980       723
55.000       670
55.020       733
55.040       786
55.060       816
55.080       886
55.100       913
55.120       903
55.140       876
55.160       853
55.180       750
55.200       780
55.220       773
55.240       710
55.260       620
55.280       530
55.300       440
55.320       470
55.340       403
55.360       380
55.380       307
55.400       313
55.420       217
55.440       273
55.460       253
55.480       197
55.500       170
55.520       163
55.540       143
55.560       147
55.580       127
55.600       100
55.620        93
55.640       113
55.660       140
55.680       123
55.700        97
55.720        67
55.740        87
55.760        73
55.780       107
55.800        77
55.820       113
55.840        53
55.860        67
55.880       100
55.900       103
55.920        80
55.940        83
55.960        53
55.980       103
56.000        97
56.020        77
56.040        73
56.060        80
56.080       100
56.100        43
56.120        73
56.140        93
56.160        97
56.180        80
56.200        90
56.220        63
56.240        63
56.260        57
56.280        70
56.300        67
56.320        93
56.340        73
56.360        47
56.380        90
56.400        57
56.420        50
56.440        77
56.460        77
56.480        63
56.500        70
56.520        67
56.540        73
56.560        83
56.580        70
56.600        73
56.620        80
56.640       103
56.660        53
56.680        60
56.700        63
56.720        67
56.740        67
56.760        83
56.780        60
56.800        63
56.820        80
56.840       107
56.860        60
56.880        53
56.900        77
56.920        67
56.940       100
56.960        67
56.980        97
57.000        83
57.020       107
57.040       103
57.060        97
57.080        57
57.100        90
57.120        70
57.140        43
57.160        73
57.180        77
57.200        53
57.220        90
57.240       110
57.260        53
57.280        80
57.300       117
57.320        93
57.340       103
57.360        93
57.380        87
57.400       107
57.420       147
57.440       183
57.460       227
57.480       313
57.500       423
57.520       500
57.540       423
57.560       340
57.580       240
57.600       227
57.620       197
57.640       203
57.660       250
57.680       307
57.700       273
57.720       253
57.740       137
57.760       127
57.780        90
57.800       127
57.820        97
57.840        97
57.860        87
57.880        50
57.900        90
57.920        93
57.940        90
57.960        57
57.980        60
58.000        63
58.020        57
58.040        93
58.060        67
58.080        93
58.100        47
58.120        87
58.140        90
58.160        60
58.180        93
58.200        67
58.220        77
58.240        47
58.260        90
58.280        93
58.300        53
58.320        83
58.340        87
58.360        67
58.380       103
58.400        87
58.420        73
58.440        57
58.460        80
58.480       100
58.500        30
58.520        50
58.540        40
58.560        50
58.580        60
58.600        77
58.620        97
58.640        83
58.660        77
58.680        80
58.700       147
58.720        60
58.740        53
58.760        53
58.780        77
58.800        47
58.820        63
58.840        63
58.860        43
58.880        37
58.900        63
58.920        83
58.940        67
58.960       100
58.980        70
59.000        90
59.020        47
59.040        70
59.060        57
59.080        60
59.100        43
59.120        90
59.140        63
59.160        70
59.180        87
59.200        40
59.220        77
59.240        87
59.260        37
59.280        67
59.300        63
59.320        47
59.340        90
59.360        93
59.380       103
59.400        67
59.420        50
59.440        90
59.460        50
59.480        77
59.500        93
59.520        70
59.540        73
59.560        37
59.580        97
59.600        50
59.620        57
59.640        73
59.660        67
59.680        67
59.700        77
59.720        77
59.740        73
59.760        83
59.780        70
59.800        50
59.820        67
59.840        73
59.860        57
59.880        80
59.900        63
59.920        73
59.940        43
59.960        43
59.980        73
60.000        53
60.020        63
60.040        60
60.060        77
60.080        63
60.100        73
60.120       103
60.140        83
60.160        60
60.180        70
60.200        57
60.220        63
60.240        73
60.260        73
60.280        87
60.300        87
60.320        80
60.340        67
60.360        73
60.380        43
60.400        53
60.420        83
60.440        57
60.460        73
60.480        47
60.500        87
60.520        40
60.540        80
60.560        60
60.580        73
60.600        67
60.620        60
60.640        60
60.660        43
60.680        60
60.700        83
60.720        87
60.740        70
60.760        67
60.780        67
60.800        80
60.820        60
60.840        67
60.860        63
60.880        27
60.900        87
60.920        83
60.940        53
60.960        93
60.980        83
61.000        97
61.020        73
61.040        67
61.060        87
61.080        57
61.100        90
61.120        60
61.140        97
61.160       103
61.180       107
61.200       137
61.220       137
61.240       167
61.260       233
61.280       323
61.300       383
61.320       343
61.340       253
61.360       160
61.380       110
61.400       167
61.420       137
61.440       200
61.460       217
61.480       233
61.500       157
61.520       127
61.540        80
61.560        73
61.580        83
61.600        70
61.620        80
61.640        73
61.660       107
61.680        87
61.700        63
61.720        67
61.740        73
61.760        87
61.780        57
61.800        57
61.820        70
61.840        40
61.860        37
61.880        50
61.900        50
61.920        63
61.940        83
61.960        53
61.980        73
62.000        60
62.020        73
62.040        63
62.060        60
62.080        23
62.100        50
62.120        40
62.140       117
62.160        93
62.180        60
62.200        57
62.220        57
62.240        43
62.260        57
62.280        60
62.300        73
62.320        73
62.340        67
62.360        63
62.380        60
62.400        47
62.420        33
62.440        53
62.460        60
62.480        50
62.500        77
62.520        47
62.540        83
62.560        60
62.580        53
62.600        30
62.620        67
62.640        60
62.660        73
62.680        77
62.700        63
62.720        63
62.740        80
62.760        60
62.780        70
62.800        63
62.820        57
62.840        47
62.860        43
62.880        67
62.900        60
62.920        37
62.940        50
62.960        60
62.980        57
63.000        70
63.020        57
63.040        80
63.060        67
63.080        70
63.100        57
63.120        63
63.140        60
63.160        73
63.180        63
63.200        57
63.220        67
63.240        73
63.260        37
63.280        53
63.300        67
63.320        63
63.340        47
63.360        60
63.380        80
63.400        67
63.420        57
63.440        63
63.460        73
63.480        60
63.500        60
63.520        40
63.540        63
63.560        47
63.580        73
63.600        53
63.620        87
63.640        70
63.660        57
63.680        60
63.700        57
63.720        83
63.740        80
63.760        60
63.780        60
63.800        80
63.820        80
63.840        33
63.860        57
63.880        77
63.900        90
63.920        60
63.940        77
63.960        93
63.980        40
64.000        80
64.020        73
64.040        53
64.060        80
64.080        67
64.100        97
64.120        53
64.140        83
64.160        90
64.180        67
64.200        97
64.220       113
64.240       103
64.260        77
64.280        70
64.300       123
64.320        97
64.340       150
64.360       143
64.380       150
64.400       157
64.420       190
64.440       137
64.460       157
64.480       130
64.500       153
64.520       167
64.540       153
64.560       150
64.580       153
64.600       163
64.620       120
64.640       147
64.660       127
64.680       143
64.700       150
64.720       133
64.740       157
64.760       117
64.780       110
64.800       123
64.820        93
64.840        70
64.860        87
64.880       103
64.900       100
64.920        90
64.940        93
64.960        77
64.980        70
65.000        77
65.020        57
65.040        67
65.060        83
65.080        63
65.100        43
65.120        53
65.140       117
65.160        77
65.180        70
65.200        93
65.220        53
65.240        80
65.260        70
65.280        63
65.300        50
65.320        43
65.340        67
65.360        57
65.380        87
65.400        63
65.420        50
65.440        60
65.460        50
65.480        63
65.500        57
65.520        70
65.540        60
65.560        37
65.580        80
65.600        57
65.620        50
65.640        57
65.660        77
65.680        47
65.700        50
65.720        80
65.740        50
65.760        53
65.780        53
65.800        67
65.820        50
65.840        60
65.860        93
65.880        43
65.900        73
65.920        53
65.940        77
65.960        37
65.980        53
66.000        53
66.020        73
66.040        60
66.060        67
66.080        63
66.100        60
66.120        83
66.140        50
66.160        40
66.180        53
66.200        60
66.220        77
66.240        73
66.260        47
66.280        53
66.300        57
66.320        63
66.340        60
66.360        57
66.380        40
66.400        53
66.420        97
66.440        80
66.460        93
66.480        97
66.500       140
66.520       153
66.540       200
66.560       150
66.580       157
66.600        93
66.620       103
66.640        90
66.660        83
66.680        63
66.700       123
66.720        83
66.740       107
66.760       110
66.780        80
66.800        67
66.820        83
66.840        63
66.860        63
66.880        40
66.900        53
66.920        47
66.940        63
66.960        77
66.980        47
67.000        77
67.020        43
67.040        37
67.060        83
67.080        67
67.100        67
67.120        77
67.140        67
67.160        47
67.180        57
67.200        33
67.220        73
67.240        53
67.260        47
67.280        53
67.300        50
67.320        57
67.340        60
67.360        60
67.380        70
67.400        50
67.420        40
67.440        40
67.460        53
67.480        50
67.500        50
67.520        37
67.540        43
67.560        70
67.580        50
67.600        40
67.620        50
67.640        57
67.660        37
67.680        77
67.700        60
67.720        83
67.740        40
67.760        50
67.780        50
67.800        43
67.820        57
67.840        60
67.860        67
67.880        47
67.900        40
67.920        53
67.940        73
67.960        43
67.980        50
68.000        57
68.020        63
68.040        67
68.060        47
68.080        70
68.100        83
68.120        67
68.140        80
68.160       110
68.180       187
68.200       210
68.220       157
68.240       177
68.260       157
68.280       130
68.300       100
68.320       100
68.340        97
68.360       117
68.380       107
68.400       137
68.420       140
68.440       133
68.460       103
68.480        97
68.500        70
68.520        53
68.540        97
68.560        90
68.580        60
68.600        57
68.620        73
68.640        60
68.660        63
68.680        47
68.700        87
68.720        90
68.740        73
68.760        87
68.780        77
68.800        60
68.820        90
68.840        63
68.860        47
68.880        73
68.900        87
68.920        70
68.940        57
68.960        93
68.980        97
69.000        70
69.020        93
69.040        87
69.060        97
69.080        57
69.100        60
69.120        87
69.140        67
69.160        93
69.180        80
69.200       113
69.220        60
69.240        67
69.260        80
69.280        57
69.300        90
69.320        77
69.340        93
69.360        57
69.380        60
69.400        57
69.420        63
69.440        60
69.460        60
69.480        87
69.500        57
69.520        70
69.540        70
69.560        47
69.580        53
69.600        43
69.620        63
69.640        47
69.660        50
69.680        73
69.700        93
69.720        70
69.740        63
69.760        33
69.780        77
69.800        47
69.820        67
69.840        63
69.860        93
69.880        33
69.900        67
69.920        70
69.940        43
69.960        63
69.980        37
70.000        57
70.020        73
70.040        60
70.060        47
70.080        47
70.100        60
70.120        57
70.140        87
70.160        47
70.180        57
70.200        50
70.220        53
70.240        77
70.260        50
70.280        67
70.300        60
70.320        43
70.340        93
70.360        50
70.380        57
70.400        63
70.420        53
70.440        70
70.460        50
70.480        73
70.500        57
70.520        67
70.540        57
70.560        33
70.580        57
70.600        53
70.620        57
70.640        70
70.660        60
70.680        63
70.700        53
70.720        80
70.740        47
70.760        47
70.780        27
70.800        63
70.820        43
70.840        60
70.860        60
70.880        73
70.900        30
70.920        40
70.940        57
70.960        43
70.980        43
71.000        57
71.020        60
71.040        43
71.060        43
71.080        73
71.100        57
71.120        53
71.140        50
71.160        67
71.180        60
71.200        57
71.220        60
71.240        47
71.260        33
71.280        40
71.300        13
71.320        50
71.340        37
71.360        60
71.380        37
71.400        50
71.420        37
71.440        50
71.460        73
71.480        47
71.500        70
71.520        53
71.540        70
71.560        53
71.580        50
71.600        63
71.620        53
71.640        60
71.660        60
71.680        80
71.700        63
71.720        30
71.740        47
71.760        53
71.780        47
71.800        60
71.820        60
71.840        60
71.860        50
71.880        70
71.900        57
71.920        70
71.940        43
71.960        73
71.980        40
72.000        70
72.020        53
72.040        43
72.060        57
72.080        70
72.100        70
72.120        77
72.140        47
72.160        47
72.180        47
72.200        87
72.220        53
72.240        57
72.260        77
72.280        60
72.300        43
72.320        77
72.340        50
72.360        57
72.380        83
72.400        57
72.420        57
72.440        80
72.460        57
72.480        90
72.500       100
72.520        73
72.540       100
72.560       133
72.580        83
72.600        83
72.620        77
72.640        93
72.660        90
72.680       120
72.700       120
72.720       103
72.740        93
72.760       107
72.780       177
72.800       147
72.820       150
72.840       150
72.860       150
72.880       120
72.900       197
72.920       163
72.940       180
72.960       227
72.980       173
73.000       313
73.020       230
73.040       263
73.060       220
73.080       193
73.100       237
73.120       257
73.140       230
73.160       253
73.180       270
73.200       263
73.220       257
73.240       230
73.260       243
73.280       197
73.300       200
73.320       180
73.340       210
73.360       200
73.380       197
73.400       237
73.420       190
73.440       173
73.460       207
73.480       170
73.500       147
73.520       167
73.540       227
73.560       170
73.580       163
73.600       130
73.620       147
73.640       113
73.660       100
73.680       120
73.700       113
73.720       150
73.740        67
73.760        80
73.780        47
73.800        87
73.820        87
73.840        90
73.860        47
73.880        87
73.900        80
73.920       100
73.940        57
73.960        70
73.980        47
74.000        63
74.020        70
74.040        67
74.060        93
74.080        67
74.100        77
74.120        80
74.140        97
74.160        57
74.180        47
74.200        73
74.220        70
74.240        67
74.260        70
74.280        77
74.300       113
74.320        73
74.340        53
74.360        53
74.380        60
74.400        50
74.420        70
74.440        53
74.460        83
74.480        43
74.500        30
74.520        47
74.540        57
74.560        30
74.580        77
74.600        23
74.620        50
74.640        50
74.660        40
74.680        60
74.700        47
74.720        97
74.740        43
74.760        93
74.780        67
74.800        57
74.820        67
74.840        57
74.860        50
74.880        47
74.900        53
74.920        60
74.940        63
74.960        40
74.980        63
75.000        63
75.020        43
75.040        53
75.060        53
75.080        63
75.100        53
75.120        83
75.140        63
75.160        50
75.180        87
75.200        60
75.220        53
75.240        50
75.260        50
75.280        73
75.300        53
75.320        63
75.340        40
75.360        63
75.380        47
75.400        37
75.420        47
75.440        73
75.460        60
75.480        43
75.500        33
75.520        40
75.540        47
75.560        73
75.580        57
75.600        57
75.620        57
75.640        60
75.660        37
75.680        43
75.700        40
75.720        47
75.740        63
75.760        73
75.780        53
75.800        53
75.820        33
75.840        63
75.860        37
75.880        53
75.900        63
75.920        73
75.940        40
75.960        50
75.980        60
76.000        43
76.020        37
76.040        63
76.060        63
76.080        67
76.100        57
76.120        70
76.140        67
76.160        53
76.180        57
76.200        57
76.220        47
76.240        67
76.260        57
76.280        63
76.300        60
76.320        37
76.340        53
76.360        80
76.380        77
76.400        47
76.420        67
76.440        47
76.460        77
76.480        60
76.500        57
76.520        90
76.540        60
76.560        77
76.580        87
76.600        73
76.620        93
76.640        80
76.660       100
76.680        93
76.700       130
76.720       140
76.740       180
76.760       270
76.780       377
76.800       420
76.820       590
76.840       893
76.860      1093
76.880      1233
76.900      1110
76.920       816
76.940       543
76.960       367
76.980       237
77.000       310
77.020       297
77.040       400
77.060       523
77.080       586
77.100       666
77.120       580
77.140       536
77.160       417
77.180       223
77.200       290
77.220       247
77.240       260
77.260       227
77.280       257
77.300       183
77.320       137
77.340       140
77.360       113
77.380       110
77.400       100
77.420       113
77.440       103
77.460       133
77.480       163
77.500       180
77.520       117
77.540       123
77.560       100
77.580        90
77.600        97
77.620        93
77.640        83
77.660        40
77.680       137
77.700        83
77.720       113
77.740        90
77.760        97
77.780        73
77.800        63
77.820        80
77.840        83
77.860        63
77.880       100
77.900        47
77.920        50
77.940        70
77.960        67
77.980        43
78.000        47
78.020        50
78.040        80
78.060        67
78.080        33
78.100        70
78.120        77
78.140        53
78.160        63
78.180        73
78.200        40
78.220        63
78.240        63
78.260        70
78.280        63
78.300        50
78.320        60
78.340        60
78.360        53
78.380        27
78.400        50
78.420        47
78.440        50
78.460        53
78.480        57
78.500        47
78.520        67
78.540        47
78.560        43
78.580        80
78.600        50
78.620        40
78.640        37
78.660        53
78.680        50
78.700        60
78.720        53
78.740        53
78.760        50
78.780        23
78.800        60
78.820        30
78.840        40
78.860        77
78.880        50
78.900        57
78.920        80
78.940        67
78.960        67
78.980        50
79.000        60
79.020        53
79.040        50
79.060        47
79.080        67
79.100        47
79.120        40
79.140        57
79.160        57
79.180        30
79.200        53
79.220        53
79.240        50
79.260        53
79.280        50
79.300        27
79.320        40
79.340        30
79.360        40
79.380        40
79.400        43
79.420        83
79.440        67
79.460        30
79.480        33
79.500        63
79.520        37
79.540        37
79.560        53
79.580        57
79.600        50
79.620        50
79.640        20
79.660        73
79.680        60
79.700        33
79.720        63
79.740        37
79.760        27
79.780        50
79.800        53
79.820        17
79.840         0
79.860         0
79.880         0
79.900         0
79.920         0
79.940         0
79.960         3
79.980         0
80.000         0
