20.000       300
20.020       267
20.040       233
20.060       257
20.080       253
20.100       280
20.120       237
20.140       290
20.160       287
20.180       260
20.200       237
20.220       243
20.240       257
20.260       257
20.280       247
20.300       260
20.320       257
20.340       227
20.360       247
20.380       250
20.400       187
20.420       240
20.440       237
20.460       190
20.480       307
20.500       287
20.520       280
20.540       313
20.560       257
20.580       247
20.600       200
20.620       217
20.640       257
20.660       227
20.680       203
20.700       243
20.720       247
20.740       233
20.760       287
20.780       250
20.800       207
20.820       227
20.840       210
20.860       297
20.880       187
20.900       183
20.920       267
20.940       203
20.960       210
20.980       230
21.000       280
21.020       217
21.040       233
21.060       250
21.080       203
21.100       273
21.120       190
21.140       220
21.160       230
21.180       280
21.200       247
21.220       220
21.240       230
21.260       310
21.280       230
21.300       257
21.320       243
21.340       283
21.360       273
21.380       243
21.400       220
21.420       180
21.440       200
21.460       207
21.480       200
21.500       203
21.520       203
21.540       227
21.560       220
21.580       227
21.600       173
21.620       253
21.640       243
21.660       190
21.680       153
21.700       183
21.720       213
21.740       223
21.760       197
21.780       197
21.800       210
21.820       237
21.840       180
21.860       237
21.880       227
21.900       207
21.920       227
21.940       180
21.960       223
21.980       213
22.000       207
22.020       227
22.040       237
22.060       233
22.080       220
22.100       253
22.120       193
22.140       247
22.160       183
22.180       190
22.200       193
22.220       193
22.240       283
22.260       167
22.280       213
22.300       240
22.320       183
22.340       203
22.360       227
22.380       240
22.400       180
22.420       227
22.440       233
22.460       203
22.480       253
22.500       190
22.520       193
22.540       167
22.560       193
22.580       207
22.600       203
22.620       263
22.640       187
22.660       157
22.680       207
22.700       247
22.720       200
22.740       233
22.760       207
22.780       227
22.800       240
22.820       250
22.840       210
22.860       200
22.880       190
22.900       210
22.920       217
22.940       240
22.960       190
22.980       210
23.000       247
23.020       227
23.040       250
23.060       193
23.080       183
23.100       223
23.120       210
23.140       160
23.160       223
23.180       193
23.200       183
23.220       197
23.240       210
23.260       203
23.280       160
23.300       177
23.320       177
23.340       210
23.360       203
23.380       210
23.400       177
23.420       203
23.440       237
23.460       247
23.480       170
23.500       203
23.520       190
23.540       193
23.560       187
23.580       223
23.600       163
23.620       203
23.640       177
23.660       203
23.680       173
23.700       210
23.720       187
23.740       187
23.760       200
23.780       230
23.800       183
23.820       183
23.840       223
23.860       177
23.880       160
23.900       207
23.920       177
23.940       173
23.960       200
23.980       200
24.000       183
24.020       167
24.040       180
24.060       143
24.080       217
24.100       160
24.120       200
24.140       177
24.160       180
24.180       217
24.200       173
24.220       157
24.240       167
24.260       167
24.280       157
24.300       167
24.320       190
24.340       133
24.360       187
24.380       217
24.400       167
24.420       137
24.440       207
24.460       187
24.480       167
24.500       223
24.520       190
24.540       140
24.560       140
24.580       163
24.600       193
24.620       173
24.640       197
24.660       163
24.680       147
24.700       160
24.720       163
24.740       160
24.760       170
24.780       153
24.800       203
24.820       203
24.840       143
24.860       137
24.880       137
24.900       137
24.920       120
24.940       220
24.960       177
24.980       170
25.000       183
25.020       197
25.040       130
25.060       180
25.080       180
25.100       167
25.120       173
25.140       173
25.160       153
25.180       180
25.200       157
25.220       153
25.240       193
25.260       210
25.280       200
25.300       183
25.320       157
25.340       190
25.360       200
25.380       213
25.400       233
25.420       240
25.440       260
25.460       323
25.480       546
25.500       570
25.520       616
25.540       760
25.560       843
25.580      1106
25.600      1140
25.620       983
25.640       793
25.660       630
25.680       530
25.700       363
25.720       213
25.740       233
25.760       203
25.780       170
25.800       143
25.820       160
25.840       153
25.860       133
25.880       180
25.900       137
25.920       170
25.940       163
25.960       163
25.980       140
26.000       107
26.020       147
26.040       160
26.060       213
26.080       183
26.100       160
26.120       173
26.140        97
26.160       157
26.180       150
26.200       157
26.220       157
26.240       160
26.260       147
26.280       153
26.300       157
26.320       137
26.340       163
26.360       140
26.380       127
26.400       150
26.420       167
26.440       147
26.460       123
26.480       170
26.500       130
26.520       180
26.540       150
26.560       123
26.580       147
26.600       137
26.620       190
26.640       133
26.660       177
26.680       167
26.700       123
26.720       103
26.740       143
26.760       153
26.780       110
26.800       127
26.820       130
26.840       143
26.860       110
26.880       120
26.900       140
26.920       140
26.940       150
26.960       143
26.980       137
27.000       160
27.020       123
27.040       150
27.060       127
27.080       157
27.100       137
27.120       150
27.140       150
27.160       140
27.180       120
27.200       117
27.220       103
27.240       157
27.260       143
27.280       123
27.300       143
27.320       160
27.340       137
27.360       147
27.380       143
27.400       100
27.420       123
27.440       160
27.460       153
27.480       123
27.500       130
27.520       147
27.540       130
27.560       163
27.580       113
27.600       120
27.620       110
27.640       150
27.660       137
27.680       153
27.700       137
27.720       130
27.740       120
27.760       133
27.780       130
27.800       187
27.820       140
27.840       120
27.860       130
27.880       103
27.900       123
27.920       143
27.940       127
27.960       133
27.980       120
28.000       113
28.020       120
28.040       133
28.060       123
28.080       103
28.100       140
28.120       150
28.140       160
28.160       130
28.180       117
28.200       117
28.220       130
28.240       120
28.260       137
28.280       140
28.300       147
28.320       113
28.340       110
28.360       153
28.380       137
28.400       137
28.420       177
28.440       140
28.460       147
28.480       127
28.500       120
28.520        80
28.540       153
28.560       130
28.580       117
28.600       163
28.620       153
28.640       123
28.660       107
28.680       117
28.700       137
28.720        67
28.740       130
28.760       110
28.780       127
28.800       130
28.820       143
28.840       107
28.860        83
28.880        90
28.900       133
28.920       153
28.940       143
28.960       110
28.980       120
29.000       113
29.020       123
29.040       123
29.060       100
29.080       110
29.100       140
29.120       107
29.140       117
29.160       107
29.180       100
29.200       103
29.220        83
29.240        87
29.260       157
29.280       127
29.300       100
29.320       113
29.340       163
29.360       100
29.380       113
29.400        97
29.420       127
29.440       137
29.460       153
29.480       170
29.500       123
29.520       123
29.540       130
29.560       100
29.580        90
29.600       113
29.620       127
29.640       110
29.660       117
29.680        93
29.700        90
29.720       100
29.740       157
29.760       107
29.780        83
29.800        70
29.820        83
29.840        90
29.860        73
29.880        97
29.900       103
29.920       110
29.940       110
29.960       103
29.980       103
30.000       123
30.020        97
30.040        97
30.060        83
30.080       110
30.100       113
30.120       117
30.140       133
30.160        93
30.180        77
30.200       137
30.220       110
30.240       160
30.260        97
30.280       130
30.300       140
30.320       137
30.340       113
30.360       113
30.380       123
30.400       100
30.420       113
30.440       113
30.460       137
30.480        87
30.500       113
30.520        77
30.540       117
30.560       123
30.580       117
30.600        80
30.620        97
30.640       103
30.660       107
30.680       123
30.700       127
30.720       113
30.740       117
30.760       127
30.780       107
30.800       107
30.820       127
30.840        83
30.860        83
30.880       103
30.900       110
30.920       100
30.940       117
30.960       123
30.980       130
31.000        90
31.020       113
31.040       120
31.060        93
31.080       123
31.100        77
31.120       100
31.140       103
31.160       133
31.180       107
31.200        93
31.220        93
31.240        90
31.260       130
31.280       110
31.300       103
31.320       120
31.340        87
31.360       133
31.380        80
31.400       100
31.420       107
31.440        70
31.460       107
31.480        97
31.500       130
31.520       117
31.540       137
31.560       130
31.580       107
31.600        83
31.620       123
31.640       133
31.660        90
31.680       163
31.700        93
31.720        93
31.740       117
31.760       123
31.780       123
31.800       117
31.820        83
31.840       113
31.860       107
31.880        80
31.900       103
31.920        93
31.940        90
31.960        73
31.980        93
32.000        93
32.020       127
32.040        97
32.060        87
32.080       107
32.100       113
32.120        73
32.140        73
32.160       110
32.180       103
32.200        70
32.220        97
32.240       137
32.260        90
32.280        83
32.300       113
32.320        80
32.340       143
32.360       120
32.380       110
32.400       100
32.420        90
32.440       130
32.460       107
32.480        83
32.500       103
32.520       100
32.540       110
32.560       100
32.580        97
32.600        83
32.620        90
32.640        63
32.660       120
32.680        67
32.700        87
32.720        53
32.740       107
32.760        93
32.780       103
32.800        80
32.820        97
32.840       100
32.860        93
32.880       100
32.900        97
32.920        80
32.940        90
32.960        83
32.980        80
33.000       107
33.020        77
33.040       100
33.060        83
33.080        97
33.100        90
33.120       113
33.140       127
33.160       120
33.180        83
33.200        83
33.220       107
33.240        83
33.260        70
33.280        80
33.300        93
33.320        90
33.340       133
33.360        90
33.380        83
33.400       110
33.420        63
33.440        93
33.460       100
33.480        77
33.500        77
33.520        87
33.540       123
33.560        90
33.580        63
33.600        90
33.620        93
33.640        93
33.660       103
33.680       100
33.700        97
33.720        90
33.740       103
33.760        70
33.780       100
33.800        73
33.820        90
33.840        97
33.860       103
33.880        80
33.900        80
33.920        97
33.940        83
33.960       110
33.980        87
34.000        80
34.020        80
34.040        83
34.060       110
34.080        87
34.100       117
34.120       117
34.140        97
34.160       130
34.180       103
34.200       110
34.220        67
34.240       143
34.260        73
34.280       140
34.300        70
34.320       107
34.340        97
34.360        83
34.380        97
34.400        90
34.420       107
34.440        93
34.460       100
34.480        77
34.500        73
34.520        83
34.540       123
34.560       107
34.580       107
34.600        87
34.620       103
34.640        87
34.660       100
34.680       107
34.700       107
34.720       130
34.740        83
34.760       130
34.780       123
34.800       160
34.820       117
34.840       137
34.860       140
34.880       177
34.900       177
34.920       257
34.940       323
34.960       636
34.980       973
35.000       836
35.020       756
35.040       796
35.060       946
35.080      1103
35.100      1679
35.120      2542
35.140      2662
35.160      2326
35.180      1813
35.200      1573
35.220      1459
35.240      1356
35.260       960
35.280       646
35.300       337
35.320       213
35.340       193
35.360       127
35.380       173
35.400       140
35.420       120
35.440       127
35.460        83
35.480        70
35.500       117
35.520       117
35.540       103
35.560        97
35.580       107
35.600        80
35.620        83
35.640       110
35.660        67
35.680       110
35.700       100
35.720        87
35.740       120
35.760        77
35.780       107
35.800        83
35.820        93
35.840        73
35.860        77
35.880        97
35.900        97
35.920        93
35.940        93
35.960        87
35.980        63
36.000        73
36.020       100
36.040       110
36.060       123
36.080        57
36.100        60
36.120       100
36.140       123
36.160       113
36.180       137
36.200        87
36.220        77
36.240        93
36.260        73
36.280       110
36.300        67
36.320        83
36.340        63
36.360        77
36.380       103
36.400       110
36.420        90
36.440        70
36.460        80
36.480       110
36.500       103
36.520        77
36.540       117
36.560        67
36.580        83
36.600        90
36.620       100
36.640       110
36.660        50
36.680       107
36.700        93
36.720       107
36.740       103
36.760       103
36.780       103
36.800        83
36.820        67
36.840       103
36.860       123
36.880       113
36.900       153
36.920        87
36.940       147
36.960       107
36.980       107
37.000        97
37.020        83
37.040        83
37.060        90
37.080        87
37.100        80
37.120        80
37.140        77
37.160        97
37.180        67
37.200        90
37.220        70
37.240        97
37.260        80
37.280       100
37.300       103
37.320        97
37.340        77
37.360       107
37.380        90
37.400       107
37.420        83
37.440        67
37.460        77
37.480        90
37.500        77
37.520       100
37.540        73
37.560        93
37.580       120
37.600       103
37.620       117
37.640       127
37.660       157
37.680       160
37.700       310
37.720       390
37.740       600
37.760       760
37.780       936
37.800       886
37.820       850
37.840       573
37.860       506
37.880       506
37.900       456
37.920       350
37.940       157
37.960       103
37.980       117
38.000        87
38.020       120
38.040        77
38.060        90
38.080        90
38.100        90
38.120        80
38.140        70
38.160        60
38.180       113
38.200        97
38.220        77
38.240        67
38.260        70
38.280        57
38.300        90
38.320        63
38.340        73
38.360        67
38.380        67
38.400        93
38.420        67
38.440        77
38.460        73
38.480        60
38.500        67
38.520        93
38.540        77
38.560        90
38.580        87
38.600        93
38.620        97
38.640        97
38.660        97
38.680        90
38.700        73
38.720       100
38.740        73
38.760        70
38.780        93
38.800        90
38.820       110
38.840        97
38.860        87
38.880        50
38.900        40
38.920        60
38.940       103
38.960        87
38.980       107
39.000       100
39.020        83
39.040        73
39.060        80
39.080        53
39.100        80
39.120        93
39.140        67
39.160        57
39.180        63
39.200        70
39.220        87
39.240        67
39.260        83
39.280        77
39.300        50
39.320        90
39.340        83
39.360        73
39.380        53
39.400        93
39.420        97
39.440        73
39.460        70
39.480        60
39.500       107
39.520        50
39.540        70
39.560        67
39.580        77
39.600       100
39.620        70
39.640       100
39.660        87
39.680        97
39.700        83
39.720        83
39.740       103
39.760        87
39.780        77
39.800        73
39.820        93
39.840        80
39.860        87
39.880        60
39.900        80
39.920        80
39.940        57
39.960        63
39.980        83
40.000        47
40.020        87
40.040        83
40.060        63
40.080        70
40.100        90
40.120        60
40.140       127
40.160        60
40.180        73
40.200        73
40.220        60
40.240        60
40.260        73
40.280        57
40.300        67
40.320        87
40.340        93
40.360        80
40.380        73
40.400        60
40.420        80
40.440        90
40.460        63
40.480        83
40.500        90
40.520        83
40.540        80
40.560        63
40.580        70
40.600        80
40.620        63
40.640        77
40.660        70
40.680       100
40.700        70
40.720        50
40.740       120
40.760        53
40.780        87
40.800        93
40.820        53
40.840        67
40.860        57
40.880        47
40.900        60
40.920        80
40.940        73
40.960        93
40.980       103
41.000        87
41.020        87
41.040        63
41.060        60
41.080        70
41.100        83
41.120        80
41.140        87
41.160        97
41.180       107
41.200        60
41.220       100
41.240        90
41.260        60
41.280        47
41.300        67
41.320        83
41.340        83
41.360        83
41.380       120
41.400        57
41.420       123
41.440       153
41.460       100
41.480       123
41.500       123
41.520       127
41.540       123
41.560       147
41.580       180
41.600       267
41.620       387
41.640       493
41.660       636
41.680       723
41.700       520
41.720       430
41.740       353
41.760       367
41.780       423
41.800       393
41.820       213
41.840       187
41.860       110
41.880       103
41.900       110
41.920        97
41.940       100
41.960        83
41.980       103
42.000        73
42.020        73
42.040        77
42.060        60
42.080        77
42.100        70
42.120        83
42.140        53
42.160        90
42.180        73
42.200        77
42.220        93
42.240       107
42.260        80
42.280        93
42.300        93
42.320        67
42.340        87
42.360        70
42.380        67
42.400        73
42.420        63
42.440        90
42.460        80
42.480        73
42.500        87
42.520        57
42.540        93
42.560        33
42.580        80
42.600        80
42.620        97
42.640        87
42.660        63
42.680        93
42.700        83
42.720        77
42.740        67
42.760        50
42.780        90
42.800        73
42.820        63
42.840        60
42.860        50
42.880        97
42.900        60
42.920        67
42.940        53
42.960        67
42.980        70
43.000        50
43.020        77
43.040       107
43.060        90
43.080       103
43.100       107
43.120       150
43.140       150
43.160       193
43.180       167
43.200       210
43.220       183
43.240       233
43.260       260
43.280       473
43.300       696
43.320      1016
43.340      1733
43.360      2546
43.380      2409
43.400      1983
43.420      1226
43.440      1050
43.460       993
43.480      1359
43.500      1103
43.520       710
43.540       350
43.560       237
43.580       187
43.600        97
43.620        97
43.640       110
43.660        97
43.680       110
43.700        77
43.720        87
43.740        93
43.760        93
43.780        77
43.800        67
43.820        63
43.840        63
43.860        67
43.880       100
43.900        70
43.920        60
43.940        80
43.960        70
43.980        67
44.000        83
44.020        57
44.040        87
44.060        73
44.080        93
44.100        63
44.120        63
44.140        70
44.160        73
44.180        63
44.200        57
44.220        83
44.240       137
44.260        67
44.280        93
44.300        50
44.320        60
44.340        63
44.360        63
44.380        60
44.400        90
44.420        63
44.440        73
44.460        63
44.480        83
44.500        90
44.520        63
44.540        67
44.560        93
44.580        47
44.600        63
44.620        90
44.640        80
44.660        80
44.680        73
44.700        70
44.720        60
44.740        67
44.760        97
44.780        73
44.800       100
44.820        93
44.840        97
44.860       113
44.880        83
44.900        77
44.920        83
44.940        60
44.960        60
44.980        80
45.000        83
45.020       100
45.040        73
45.060        53
45.080        77
45.100        87
45.120        60
45.140        70
45.160        53
45.180        80
45.200        37
45.220        57
45.240        67
45.260        93
45.280        97
45.300        67
45.320        77
45.340        63
45.360        43
45.380        67
45.400        40
45.420        60
45.440        40
45.460        77
45.480        77
45.500        63
45.520        50
45.540        87
45.560        37
45.580        87
45.600        80
45.620        67
45.640        60
45.660        77
45.680        53
45.700        73
45.720        83
45.740        73
45.760        57
45.780        67
45.800        77
45.820        43
45.840        80
45.860        67
45.880        77
45.900        77
45.920        77
45.940        73
45.960        67
45.980        57
46.000        77
46.020        67
46.040        67
46.060        90
46.080        53
46.100        63
46.120        53
46.140        70
46.160        73
46.180        77
46.200        63
46.220        77
46.240        83
46.260        87
46.280       103
46.300        40
46.320        57
46.340        87
46.360        83
46.380        67
46.400       103
46.420        40
46.440        60
46.460        67
46.480        50
46.500        53
46.520        70
46.540        50
46.560        73
46.580        53
46.600        90
46.620        63
46.640        47
46.660        53
46.680        43
46.700        80
46.720        73
46.740        60
46.760        63
46.780        73
46.800        77
46.820        97
46.840        73
46.860        43
46.880        63
46.900        87
46.920        63
46.940        47
46.960        70
46.980        57
47.000        97
47.020        80
47.040        73
47.060        47
47.080        67
47.100        77
47.120        77
47.140        93
47.160        93
47.180       103
47.200        73
47.220        80
47.240        67
47.260        60
47.280        60
47.300        80
47.320        90
47.340        50
47.360        63
47.380        80
47.400        73
47.420        47
47.440        60
47.460        57
47.480        70
47.500        67
47.520        67
47.540        53
47.560        80
47.580        70
47.600        53
47.620        73
47.640        63
47.660        43
47.680        50
47.700        83
47.720        70
47.740        53
47.760        30
47.780        50
47.800        77
47.820        50
47.840        60
47.860        57
47.880        73
47.900        60
47.920        43
47.940        40
47.960        53
47.980        57
48.000        73
48.020        67
48.040        50
48.060        50
48.080        57
48.100        67
48.120        77
48.140        63
48.160        47
48.180        50
48.200        60
48.220        57
48.240        70
48.260        67
48.280        33
48.300        60
48.320        70
48.340        73
48.360        53
48.380        67
48.400        80
48.420        93
48.440        87
48.460        70
48.480        67
48.500        37
48.520        67
48.540        50
48.560        50
48.580        67
48.600        43
48.620        73
48.640        63
48.660        70
48.680        67
48.700        50
48.720        70
48.740        73
48.760        83
48.780        57
48.800        67
48.820        73
48.840        50
48.860        97
48.880        63
48.900        67
48.920        83
48.940        83
48.960        87
48.980        77
49.000        57
49.020        77
49.040        70
49.060        80
49.080        63
49.100        47
49.120        60
49.140        73
49.160        77
49.180        63
49.200        27
49.220        33
49.240        43
49.260        67
49.280        60
49.300        57
49.320        57
49.340        83
49.360        57
49.380        43
49.400        60
49.420        40
49.440        83
49.460        77
49.480        40
49.500        77
49.520        67
49.540        47
49.560        43
49.580        77
49.600        47
49.620        67
49.640        37
49.660        40
49.680        70
49.700        60
49.720        37
49.740        67
49.760        47
49.780        67
49.800        60
49.820        60
49.840        77
49.860        60
49.880        43
49.900        83
49.920        37
49.940        93
49.960        70
49.980        57
50.000        80
50.020        60
50.040        70
50.060        53
50.080        53
50.100        47
50.120        87
50.140        57
50.160        60
50.180        53
50.200        80
50.220        60
50.240        70
50.260        60
50.280        57
50.300        53
50.320        87
50.340        67
50.360        57
50.380        70
50.400        47
50.420        50
50.440        73
50.460        67
50.480        93
50.500        57
50.520        67
50.540        50
50.560        60
50.580        67
50.600        50
50.620        60
50.640        63
50.660        63
50.680        50
50.700        60
50.720        63
50.740        60
50.760        80
50.780        87
50.800        70
50.820        53
50.840        70
50.860        47
50.880        33
50.900        50
50.920        57
50.940        73
50.960        47
50.980        67
51.000        83
51.020        80
51.040        43
51.060        73
51.080        80
51.100        50
51.120        40
51.140        73
51.160        50
51.180        43
51.200        80
51.220        53
51.240        50
51.260        53
51.280        57
51.300        47
51.320        53
51.340        83
51.360        73
51.380        77
51.400        53
51.420        67
51.440        40
51.460        50
51.480        67
51.500        63
51.520        83
51.540        60
51.560        83
51.580        47
51.600        93
51.620        97
51.640        53
51.660        57
51.680        97
51.700        70
51.720        80
51.740        77
51.760        43
51.780        63
51.800        67
51.820        73
51.840        57
51.860        70
51.880        43
51.900        63
51.920        83
51.940        47
51.960       107
51.980        33
52.000        63
52.020        43
52.040        73
52.060        40
52.080        63
52.100        87
52.120        70
52.140        80
52.160        33
52.180        37
52.200        60
52.220       100
52.240        43
52.260        47
52.280       113
52.300        87
52.320        77
52.340        73
52.360        80
52.380       100
52.400       110
52.420       110
52.440       133
52.460       177
52.480       217
52.500       337
52.520       573
52.540      1206
52.560      1606
52.580      1463
52.600      1063
52.620       556
52.640       340
52.660       380
52.680       563
52.700       870
52.720       743
52.740       643
52.760       307
52.780       217
52.800       100
52.820       123
52.840       113
52.860        80
52.880        83
52.900        63
52.920       100
52.940        83
52.960        87
52.980        40
53.000        60
53.020        57
53.040        47
53.060        50
53.080        53
53.100        83
53.120        53
53.140        63
53.160        80
53.180        53
53.200        87
53.220       100
53.240        80
53.260        67
53.280        40
53.300        77
53.320        60
53.340        57
53.360        93
53.380        43
53.400        57
53.420        93
53.440        50
53.460        50
53.480        27
53.500        77
53.520        63
53.540        47
53.560        87
53.580        57
53.600        70
53.620        70
53.640        50
53.660        73
53.680        83
53.700        73
53.720        60
53.740        47
53.760        77
53.780        53
53.800        50
53.820        53
53.840        83
53.860        37
53.880        60
53.900        77
53.920        40
53.940        57
53.960        53
53.980        57
54.000        63
54.020        73
54.040        77
54.060        80
54.080        43
54.100        37
54.120        90
54.140        73
54.160        33
54.180        57
54.200        80
54.220        83
54.240        73
54.260        60
54.280        80
54.300        57
54.320        67
54.340        57
54.360        63
54.380        40
54.400        63
54.420        60
54.440        73
54.460        37
54.480        47
54.500        87
54.520        67
54.540        67
54.560       103
54.580        60
54.600        50
54.620        50
54.640        30
54.660        77
54.680        70
54.700        77
54.720        67
54.740        67
54.760        60
54.780        77
54.800        87
54.820        83
54.840        67
54.860        63
54.880        50
54.900        57
54.920        73
54.940        73
54.960        67
54.980        57
55.000        47
55.020        73
55.040        70
55.060        63
55.080        70
55.100        53
55.120        67
55.140        63
55.160        63
55.180        37
55.200        70
55.220        63
55.240        57
55.260        53
55.280        50
55.300        57
55.320        77
55.340        73
55.360        83
55.380        70
55.400        63
55.420        83
55.440        67
55.460        73
55.480        83
55.500        83
55.520        60
55.540        90
55.560        50
55.580        90
55.600        60
55.620        77
55.640        77
55.660        47
55.680        67
55.700        50
55.720        77
55.740        60
55.760        63
55.780        57
55.800        87
55.820        87
55.840        67
55.860        37
55.880        53
55.900       120
55.920        83
55.940        53
55.960        90
55.980        57
56.000        47
56.020        40
56.040        87
56.060        50
56.080        63
56.100        77
56.120        53
56.140        67
56.160        53
56.180        67
56.200        60
56.220        63
56.240        80
56.260        57
56.280       110
56.300        60
56.320        63
56.340        67
56.360        73
56.380        43
56.400        77
56.420        87
56.440        53
56.460        53
56.480        87
56.500        73
56.520        73
56.540        67
56.560        60
56.580        80
56.600        67
56.620        57
56.640        87
56.660        97
56.680        90
56.700        90
56.720        73
56.740        63
56.760        57
56.780        43
56.800        63
56.820        63
56.840        67
56.860        50
56.880        67
56.900        43
56.920        80
56.940        67
56.960        77
56.980        87
57.000       100
57.020        73
57.040        70
57.060        83
57.080       103
57.100        73
57.120        67
57.140        63
57.160        53
57.180        70
57.200        63
57.220       123
57.240       133
57.260       157
57.280       150
57.300       150
57.320       190
57.340       173
57.360       227
57.380       327
57.400       513
57.420       753
57.440      1083
57.460      1329
57.480      1516
57.500      2046
57.520      2249
57.540      2399
57.560      1759
57.580      1020
57.600       783
57.620       783
57.640      1080
57.660      1176
57.680      1309
57.700      1183
57.720       726
57.740       466
57.760       220
57.780       143
57.800       147
57.820       100
57.840       100
57.860        83
57.880        67
57.900        80
57.920        53
57.940        93
57.960        93
57.980        60
58.000        60
58.020        53
58.040        67
58.060        90
58.080        73
58.100        90
58.120        70
58.140        60
58.160        70
58.180        47
58.200        87
58.220       103
58.240        80
58.260        50
58.280        43
58.300        53
58.320        73
58.340        63
58.360        73
58.380        70
58.400        63
58.420        60
58.440        47
58.460        30
58.480        70
58.500        53
58.520        73
58.540        77
58.560        87
58.580        73
58.600        53
58.620        67
58.640        53
58.660        60
58.680       110
58.700        53
58.720        77
58.740        63
58.760        67
58.780        60
58.800        77
58.820        60
58.840        40
58.860        77
58.880        50
58.900        60
58.920        87
58.940        70
58.960        83
58.980        63
59.000        70
59.020        80
59.040        70
59.060        67
59.080        70
59.100        53
59.120        67
59.140        50
59.160        70
59.180        67
59.200        60
59.220        90
59.240        50
59.260        87
59.280        67
59.300        70
59.320        63
59.340       107
59.360        83
59.380        60
59.400        47
59.420        93
59.440        90
59.460        77
59.480        90
59.500        63
59.520        90
59.540       117
59.560        67
59.580        73
59.600        83
59.620        67
59.640        60
59.660        40
59.680        63
59.700       103
59.720        50
59.740       120
59.760        97
59.780        80
59.800         0
59.820         0
59.840         0
59.860         0
59.880         0
59.900         0
59.920         0
59.940         0
59.960         0
59.980         0
60.000         0
