20.000         0
20.020         0
20.040         0
20.060         0
20.080         0
20.100         0
20.120         0
20.140         0
20.160         3
20.180       130
20.200       250
20.220       227
20.240       223
20.260       220
20.280       227
20.300       263
20.320       247
20.340       257
20.360       240
20.380       287
20.400       217
20.420       183
20.440       220
20.460       223
20.480       247
20.500       237
20.520       230
20.540       263
20.560       190
20.580       233
20.600       217
20.620       257
20.640       293
20.660       253
20.680       220
20.700       223
20.720       233
20.740       247
20.760       247
20.780       263
20.800       253
20.820       243
20.840       217
20.860       253
20.880       260
20.900       230
20.920       193
20.940       217
20.960       217
20.980       223
21.000       200
21.020       210
21.040       240
21.060       247
21.080       213
21.100       250
21.120       243
21.140       230
21.160       240
21.180       240
21.200       250
21.220       183
21.240       240
21.260       243
21.280       300
21.300       227
21.320       233
21.340       263
21.360       210
21.380       140
21.400       237
21.420       220
21.440       217
21.460       190
21.480       180
21.500       217
21.520       233
21.540       177
21.560       243
21.580       243
21.600       197
21.620       203
21.640       260
21.660       207
21.680       240
21.700       243
21.720       223
21.740       193
21.760       203
21.780       200
21.800       240
21.820       230
21.840       243
21.860       200
21.880       243
21.900       250
21.920       210
21.940       203
21.960       247
21.980       260
22.000       237
22.020       253
22.040       313
22.060       280
22.080       297
22.100       283
22.120       260
22.140       357
22.160       310
22.180       337
22.200       277
22.220       303
22.240       263
22.260       247
22.280       287
22.300       277
22.320       243
22.340       237
22.360       197
22.380       150
22.400       187
22.420       223
22.440       200
22.460       233
22.480       177
22.500       183
22.520       213
22.540       250
22.560       233
22.580       193
22.600       230
22.620       190
22.640       213
22.660       190
22.680       227
22.700       190
22.720       227
22.740       190
22.760       197
22.780       273
22.800       213
22.820       180
22.840       193
22.860       157
22.880       177
22.900       237
22.920       193
22.940       197
22.960       183
22.980       203
23.000       160
23.020       177
23.040       207
23.060       230
23.080       213
23.100       187
23.120       197
23.140       220
23.160       233
23.180       210
23.200       227
23.220       207
23.240       227
23.260       157
23.280       187
23.300       170
23.320       163
23.340       217
23.360       200
23.380       243
23.400       220
23.420       213
23.440       263
23.460       190
23.480       200
23.500       210
23.520       217
23.540       187
23.560       193
23.580       180
23.600       247
23.620       183
23.640       160
23.660       213
23.680       187
23.700       210
23.720       193
23.740       223
23.760       187
23.780       207
23.800       210
23.820       237
23.840       263
23.860       217
23.880       257
23.900       287
23.920       247
23.940       217
23.960       230
23.980       237
24.000       177
24.020       230
24.040       197
24.060       167
24.080       213
24.100       213
24.120       173
24.140       237
24.160       193
24.180       237
24.200       190
24.220       197
24.240       150
24.260       173
24.280       177
24.300       203
24.320       170
24.340       217
24.360       193
24.380       210
24.400       177
24.420       197
24.440       210
24.460       167
24.480       193
24.500       220
24.520       137
24.540       163
24.560       207
24.580       207
24.600       170
24.620       173
24.640       177
24.660       147
24.680       157
24.700       177
24.720       163
24.740       207
24.760       163
24.780       213
24.800       167
24.820       190
24.840       203
24.860       227
24.880       143
24.900       227
24.920       170
24.940       120
24.960       193
24.980       187
25.000       183
25.020       230
25.040       163
25.060       173
25.080       147
25.100       187
25.120       257
25.140       217
25.160       213
25.180       170
25.200       193
25.220       253
25.240       197
25.260       170
25.280       177
25.300       170
25.320       207
25.340       193
25.360       147
25.380       157
25.400       197
25.420       153
25.440       210
25.460       237
25.480       207
25.500       253
25.520       187
25.540       267
25.560       287
25.580       327
25.600       287
25.620       327
25.640       310
25.660       273
25.680       177
25.700       250
25.720       197
25.740       153
25.760       187
25.780       223
25.800       157
25.820       163
25.840       143
25.860       163
25.880       157
25.900       187
25.920       150
25.940       143
25.960       190
25.980       133
26.000       163
26.020       167
26.040       163
26.060       130
26.080       193
26.100       173
26.120       143
26.140       117
26.160       197
26.180       127
26.200       120
26.220       130
26.240       113
26.260       130
26.280       147
26.300       187
26.320       153
26.340       177
26.360       160
26.380       133
26.400       183
26.420       203
26.440       153
26.460       163
26.480       153
26.500       167
26.520       157
26.540       173
26.560       187
26.580       153
26.600       133
26.620       137
26.640       147
26.660       147
26.680       127
26.700        90
26.720       150
26.740       163
26.760       160
26.780       157
26.800       157
26.820       187
26.840       157
26.860       203
26.880       163
26.900       157
26.920       153
26.940       143
26.960       117
26.980       187
27.000       157
27.020       127
27.040       143
27.060       150
27.080       150
27.100       197
27.120       137
27.140       160
27.160       123
27.180       140
27.200       130
27.220       143
27.240       133
27.260       120
27.280       120
27.300       137
27.320       143
27.340       153
27.360       130
27.380       140
27.400       110
27.420       130
27.440       120
27.460        90
27.480       130
27.500       140
27.520       123
27.540       130
27.560       127
27.580       137
27.600       167
27.620       143
27.640        87
27.660       123
27.680       100
27.700       140
27.720       113
27.740       163
27.760       137
27.780       157
27.800       130
27.820       143
27.840        77
27.860       117
27.880       127
27.900       130
27.920       103
27.940       153
27.960       170
27.980       123
28.000       130
28.020       133
28.040       137
28.060       123
28.080       137
28.100       140
28.120       137
28.140       140
28.160       147
28.180       133
28.200       140
28.220       137
28.240       140
28.260       117
28.280       163
28.300       113
28.320       113
28.340       147
28.360       127
28.380       177
28.400       150
28.420       123
28.440       173
28.460       150
28.480       210
28.500       190
28.520       187
28.540       247
28.560       280
28.580       297
28.600       363
28.620       303
28.640       377
28.660       413
28.680       383
28.700       413
28.720       383
28.740       383
28.760       350
28.780       337
28.800       320
28.820       280
28.840       247
28.860       207
28.880       237
28.900       193
28.920       163
28.940       187
28.960       160
28.980       113
29.000       117
29.020       133
29.040       120
29.060       160
29.080       140
29.100       117
29.120       110
29.140       130
29.160       103
29.180       110
29.200       123
29.220       113
29.240       153
29.260       113
29.280       153
29.300       143
29.320       117
29.340       120
29.360       177
29.380       177
29.400       117
29.420       200
29.440       133
29.460       193
29.480       183
29.500       177
29.520       180
29.540       213
29.560       207
29.580       263
29.600       253
29.620       280
29.640       313
29.660       247
29.680       267
29.700       307
29.720       253
29.740       190
29.760       203
29.780       103
29.800       197
29.820       100
29.840       167
29.860       173
29.880       143
29.900       193
29.920       137
29.940       230
29.960       233
29.980       187
30.000       180
30.020       150
30.040       170
30.060       120
30.080       180
30.100       140
30.120       113
30.140       160
30.160       133
30.180        90
30.200        97
30.220       113
30.240       107
30.260       130
30.280       103
30.300       137
30.320       100
30.340       100
30.360        97
30.380       123
30.400       137
30.420       150
30.440        97
30.460       120
30.480       130
30.500       107
30.520       150
30.540       123
30.560       103
30.580        97
30.600       160
30.620       180
30.640       157
30.660       127
30.680       150
30.700       127
30.720       177
30.740       230
30.760       230
30.780       207
30.800       197
30.820       177
30.840       250
30.860       153
30.880       200
30.900       167
30.920       183
30.940       207
30.960       143
30.980       190
31.000       177
31.020       243
31.040       180
31.060       247
31.080       240
31.100       223
31.120       243
31.140       217
31.160       233
31.180       230
31.200       240
31.220       213
31.240       293
31.260       283
31.280       363
31.300       387
31.320       490
31.340       436
31.360       510
31.380       576
31.400       650
31.420       746
31.440       826
31.460       773
31.480       823
31.500       733
31.520       733
31.540       733
31.560       550
31.580       556
31.600       423
31.620       347
31.640       317
31.660       293
31.680       280
31.700       250
31.720       230
31.740       203
31.760       230
31.780       233
31.800       220
31.820       223
31.840       163
31.860       203
31.880       193
31.900       187
31.920       157
31.940       193
31.960       163
31.980       177
32.000       157
32.020       147
32.040       157
32.060       150
32.080       140
32.100       120
32.120       160
32.140       173
32.160       127
32.180       103
32.200       163
32.220       150
32.240       147
32.260       153
32.280       110
32.300       137
32.320       123
32.340        97
32.360        93
32.380       137
32.400       110
32.420        87
32.440       117
32.460       133
32.480       147
32.500       107
32.520        93
32.540       113
32.560        93
32.580       127
32.600       100
32.620       123
32.640       123
32.660       107
32.680       130
32.700       103
32.720       150
32.740       120
32.760       123
32.780       137
32.800       123
32.820       163
32.840       143
32.860       140
32.880       163
32.900       117
32.920       117
32.940       123
32.960       107
32.980       117
33.000        87
33.020       147
33.040        93
33.060        93
33.080       103
33.100       110
33.120       103
33.140        97
33.160       127
33.180       103
33.200       107
33.220       140
33.240       110
33.260       123
33.280       107
33.300       130
33.320       113
33.340       110
33.360       123
33.380       110
33.400       123
33.420       107
33.440       113
33.460        93
33.480       110
33.500        67
33.520       100
33.540        93
33.560       110
33.580        97
33.600       117
33.620       130
33.640        93
33.660       120
33.680       103
33.700       100
33.720        77
33.740       103
33.760       110
33.780        97
33.800       140
33.820       140
33.840       140
33.860        57
33.880        87
33.900        87
33.920       103
33.940        87
33.960       110
33.980       107
34.000       113
34.020       123
34.040       107
34.060       107
34.080        93
34.100       130
34.120       100
34.140       113
34.160        87
34.180       127
34.200        87
34.220       127
34.240        73
34.260       100
34.280        97
34.300        83
34.320        63
34.340        87
34.360       133
34.380        87
34.400       103
34.420       117
34.440        97
34.460       127
34.480       120
34.500       133
34.520       123
34.540        80
34.560       123
34.580       120
34.600        83
34.620       130
34.640       113
34.660       150
34.680       100
34.700       103
34.720       100
34.740        97
34.760       103
34.780        73
34.800        93
34.820       130
34.840        97
34.860       143
34.880       130
34.900       107
34.920       117
34.940       147
34.960       153
34.980       113
35.000       177
35.020       233
35.040       240
35.060       297
35.080       360
35.100       383
35.120       653
35.140       956
35.160      1376
35.180      1433
35.200      1449
35.220      1163
35.240       903
35.260       860
35.280       800
35.300       606
35.320       340
35.340       187
35.360       150
35.380       137
35.400       123
35.420       127
35.440        83
35.460       113
35.480        70
35.500       130
35.520       107
35.540        80
35.560       103
35.580       113
35.600        87
35.620       123
35.640        97
35.660        97
35.680        63
35.700       100
35.720        67
35.740       100
35.760       103
35.780        83
35.800        93
35.820       123
35.840       127
35.860        63
35.880       110
35.900       120
35.920       140
35.940       143
35.960       140
35.980        97
36.000       113
36.020       133
36.040       147
36.060       100
36.080       127
36.100       130
36.120       123
36.140       110
36.160       150
36.180        80
36.200       110
36.220       133
36.240        70
36.260       103
36.280       100
36.300        93
36.320        90
36.340        90
36.360       130
36.380       130
36.400        80
36.420        83
36.440       143
36.460        83
36.480       120
36.500        73
36.520       123
36.540       117
36.560       127
36.580        77
36.600       137
36.620       110
36.640        97
36.660        80
36.680       117
36.700       103
36.720        80
36.740       100
36.760       123
36.780        63
36.800       127
36.820       130
36.840       140
36.860       143
36.880       120
36.900        97
36.920       120
36.940       150
36.960       103
36.980        97
37.000       113
37.020       127
37.040       107
37.060       133
37.080       133
37.100       137
37.120       140
37.140       130
37.160       157
37.180       147
37.200       120
37.220       123
37.240        97
37.260       100
37.280       133
37.300       110
37.320       130
37.340        83
37.360       123
37.380        80
37.400        90
37.420        73
37.440       100
37.460        80
37.480        90
37.500        93
37.520        83
37.540       117
37.560       100
37.580       113
37.600       107
37.620       137
37.640        80
37.660       130
37.680       117
37.700       123
37.720       113
37.740       170
37.760       180
37.780       227
37.800       287
37.820       237
37.840       253
37.860       150
37.880       153
37.900       170
37.920       160
37.940       120
37.960       123
37.980        87
38.000        73
38.020        97
38.040        70
38.060       123
38.080       107
38.100        77
38.120       130
38.140       107
38.160       107
38.180        83
38.200       110
38.220       120
38.240       127
38.260        70
38.280        87
38.300       127
38.320       123
38.340        87
38.360       103
38.380        83
38.400       117
38.420       140
38.440        90
38.460       120
38.480       140
38.500       127
38.520       173
38.540       110
38.560       153
38.580       177
38.600       177
38.620       207
38.640       210
38.660       223
38.680       297
38.700       330
38.720       377
38.740       423
38.760       440
38.780       440
38.800       526
38.820       500
38.840       493
38.860       430
38.880       333
38.900       397
38.920       273
38.940       280
38.960       287
38.980       243
39.000       183
39.020       167
39.040       157
39.060       160
39.080       117
39.100       153
39.120       113
39.140       123
39.160       130
39.180       117
39.200        77
39.220       103
39.240        80
39.260       110
39.280       107
39.300        90
39.320        97
39.340        97
39.360       100
39.380        90
39.400        63
39.420        83
39.440        97
39.460        63
39.480       107
39.500        80
39.520        77
39.540        97
39.560       100
39.580        83
39.600        50
39.620        63
39.640       100
39.660        90
39.680        93
39.700        90
39.720        87
39.740       123
39.760        93
39.780        83
39.800       107
39.820       110
39.840       140
39.860       143
39.880       160
39.900       103
39.920       150
39.940       147
39.960       133
39.980       173
40.000       197
40.020       133
40.040       103
40.060       103
40.080       113
40.100       107
40.120        73
40.140       107
40.160        87
40.180        73
40.200        87
40.220        77
40.240        87
40.260        67
40.280       117
40.300        70
40.320        80
40.340        60
40.360        90
40.380        93
40.400        73
40.420        53
40.440        63
40.460        73
40.480        90
40.500       103
40.520        73
40.540        97
40.560        73
40.580       100
40.600        93
40.620        53
40.640        93
40.660        87
40.680        53
40.700        70
40.720       117
40.740       117
40.760        93
40.780        97
40.800       100
40.820       147
40.840       120
40.860       103
40.880       110
40.900        93
40.920       130
40.940        73
40.960        33
40.980        87
41.000       117
41.020       107
41.040        87
41.060        93
41.080        53
41.100       123
41.120        93
41.140        60
41.160       113
41.180       100
41.200       120
41.220       107
41.240       113
41.260       107
41.280        80
41.300        83
41.320       120
41.340       110
41.360        93
41.380       127
41.400       120
41.420       100
41.440        73
41.460       100
41.480       150
41.500       133
41.520       130
41.540       120
41.560       123
41.580       130
41.600       137
41.620       153
41.640       180
41.660       163
41.680       240
41.700       233
41.720       210
41.740       173
41.760       187
41.780       150
41.800       213
41.820       160
41.840       123
41.860       133
41.880        97
41.900       103
41.920       113
41.940       107
41.960       103
41.980        77
42.000        87
42.020        90
42.040       100
42.060        90
42.080        93
42.100        73
42.120       113
42.140        87
42.160        80
42.180       100
42.200        87
42.220       113
42.240        90
42.260        87
42.280        90
42.300       103
42.320        93
42.340       100
42.360        93
42.380        77
42.400        97
42.420        77
42.440        70
42.460        93
42.480        90
42.500        70
42.520        90
42.540        93
42.560       100
42.580        83
42.600        70
42.620        70
42.640        83
42.660        77
42.680        80
42.700        80
42.720        93
42.740       103
42.760       100
42.780        70
42.800        90
42.820        93
42.840        93
42.860       127
42.880        90
42.900       120
42.920       130
42.940       120
42.960       130
42.980       213
43.000       173
43.020       193
43.040       197
43.060       223
43.080       277
43.100       173
43.120       330
43.140       303
43.160       317
43.180       307
43.200       303
43.220       290
43.240       327
43.260       323
43.280       353
43.300       417
43.320       560
43.340       823
43.360       923
43.380      1033
43.400       946
43.420       853
43.440       603
43.460       606
43.480       620
43.500       523
43.520       560
43.540       413
43.560       240
43.580       160
43.600       140
43.620       133
43.640       100
43.660       113
43.680        83
43.700       117
43.720       113
43.740       127
43.760       100
43.780        97
43.800        70
43.820        67
43.840       107
43.860       137
43.880       103
43.900        87
43.920        77
43.940        90
43.960        77
43.980        97
44.000        77
44.020        93
44.040        83
44.060        83
44.080        93
44.100        67
44.120        70
44.140       100
44.160        67
44.180        87
44.200        80
44.220        63
44.240        87
44.260        53
44.280        90
44.300        93
44.320        90
44.340        73
44.360        77
44.380        80
44.400        87
44.420        80
44.440        77
44.460        63
44.480        90
44.500        57
44.520        80
44.540        73
44.560        77
44.580       113
44.600        93
44.620        97
44.640        63
44.660        53
44.680        87
44.700        83
44.720        90
44.740       130
44.760        93
44.780       133
44.800       147
44.820       133
44.840       137
44.860       160
44.880       163
44.900       167
44.920       190
44.940       187
44.960       273
44.980       277
45.000       313
45.020       443
45.040       397
45.060       440
45.080       516
45.100       470
45.120       483
45.140       463
45.160       430
45.180       450
45.200       407
45.220       450
45.240       330
45.260       270
45.280       287
45.300       197
45.320       227
45.340       230
45.360       160
45.380       133
45.400       103
45.420       123
45.440       147
45.460       137
45.480       107
45.500        87
45.520        73
45.540       103
45.560        83
45.580        60
45.600        57
45.620        60
45.640        83
45.660        73
45.680        53
45.700        93
45.720        70
45.740        70
45.760        63
45.780        40
45.800        77
45.820        93
45.840        57
45.860       110
45.880        83
45.900        80
45.920        87
45.940        70
45.960        67
45.980       103
46.000        83
46.020       107
46.040        87
46.060        90
46.080        77
46.100        97
46.120        87
46.140        80
46.160        97
46.180        93
46.200       113
46.220       113
46.240        80
46.260        90
46.280        93
46.300        63
46.320        87
46.340        83
46.360        70
46.380        90
46.400        93
46.420        93
46.440        67
46.460        63
46.480        70
46.500        93
46.520        87
46.540        63
46.560       107
46.580        93
46.600       110
46.620       130
46.640        53
46.660        70
46.680        60
46.700        83
46.720        87
46.740        77
46.760        83
46.780        70
46.800        73
46.820        83
46.840        63
46.860        63
46.880        90
46.900        67
46.920        60
46.940        67
46.960       110
46.980       107
47.000        70
47.020       100
47.040        70
47.060        90
47.080        83
47.100        60
47.120        73
47.140       107
47.160        47
47.180        77
47.200        73
47.220        97
47.240        43
47.260        70
47.280        83
47.300        83
47.320        80
47.340        57
47.360       100
47.380        80
47.400        87
47.420        87
47.440        83
47.460        90
47.480        70
47.500        73
47.520        70
47.540        73
47.560       107
47.580        70
47.600        90
47.620        90
47.640        90
47.660        73
47.680        80
47.700        67
47.720        77
47.740        83
47.760        37
47.780        70
47.800        53
47.820        90
47.840        63
47.860        73
47.880        83
47.900        77
47.920        97
47.940        77
47.960        63
47.980       137
48.000        63
48.020        90
48.040        73
48.060        63
48.080        53
48.100        63
48.120        80
48.140        53
48.160        87
48.180        70
48.200        63
48.220        73
48.240        43
48.260        57
48.280        70
48.300        90
48.320        60
48.340        90
48.360        83
48.380        50
48.400        67
48.420        67
48.440        60
48.460        60
48.480        97
48.500        83
48.520        70
48.540        80
48.560        77
48.580       100
48.600        53
48.620        63
48.640       100
48.660        93
48.680        83
48.700        87
48.720        77
48.740       107
48.760       157
48.780       123
48.800       147
48.820       100
48.840       130
48.860       143
48.880       157
48.900       130
48.920       140
48.940       103
48.960       140
48.980       167
49.000       140
49.020       123
49.040       133
49.060       173
49.080       137
49.100       123
49.120       120
49.140       133
49.160       147
49.180       123
49.200       127
49.220       127
49.240       117
49.260       157
49.280       140
49.300        97
49.320        93
49.340       127
49.360       137
49.380       100
49.400       110
49.420       120
49.440       157
49.460       143
49.480       127
49.500       100
49.520       140
49.540       100
49.560       103
49.580        73
49.600        73
49.620       123
49.640        77
49.660        90
49.680        83
49.700        97
49.720        60
49.740        70
49.760        60
49.780        63
49.800        90
49.820        83
49.840       113
49.860        77
49.880        47
49.900        60
49.920        83
49.940        63
49.960        73
49.980        43
50.000        67
50.020        73
50.040        67
50.060        83
50.080        60
50.100        77
50.120        97
50.140        97
50.160        87
50.180        87
50.200        60
50.220       103
50.240       103
50.260        73
50.280       120
50.300        70
50.320        97
50.340        93
50.360        67
50.380        67
50.400        97
50.420        93
50.440        97
50.460        77
50.480        80
50.500        77
50.520        80
50.540        63
50.560        87
50.580        90
50.600        83
50.620       110
50.640        80
50.660        67
50.680        67
50.700        73
50.720       103
50.740        90
50.760       100
50.780        83
50.800        87
50.820        73
50.840       100
50.860        97
50.880        97
50.900        80
50.920       113
50.940        67
50.960        77
50.980        90
51.000        77
51.020        63
51.040        93
51.060       110
51.080        63
51.100       100
51.120        83
51.140        57
51.160        60
51.180        83
51.200        77
51.220        53
51.240        90
51.260        60
51.280        70
51.300        80
51.320        70
51.340        77
51.360        83
51.380        53
51.400        97
51.420        83
51.440        53
51.460        77
51.480        90
51.500        90
51.520        90
51.540        77
51.560        83
51.580        87
51.600       103
51.620        50
51.640        80
51.660       103
51.680        80
51.700        77
51.720        73
51.740        87
51.760        53
51.780        83
51.800        83
51.820        67
51.840        73
51.860        53
51.880       117
51.900        60
51.920        47
51.940        43
51.960        70
51.980        37
52.000        57
52.020        87
52.040        77
52.060        60
52.080        80
52.100        90
52.120        53
52.140        57
52.160       100
52.180       147
52.200        83
52.220        77
52.240        93
52.260        73
52.280       100
52.300       103
52.320        73
52.340        60
52.360        80
52.380       107
52.400       127
52.420        87
52.440        97
52.460       133
52.480       140
52.500       180
52.520       233
52.540       500
52.560       640
52.580       906
52.600       953
52.620       856
52.640       573
52.660       393
52.680       353
52.700       400
52.720       483
52.740       540
52.760       506
52.780       297
52.800       187
52.820       107
52.840        87
52.860       117
52.880        67
52.900        93
52.920        87
52.940        80
52.960        93
52.980        73
53.000        73
53.020        60
53.040        93
53.060        57
53.080        53
53.100       107
53.120        60
53.140        90
53.160        50
53.180        83
53.200        57
53.220        63
53.240        53
53.260        73
53.280        43
53.300        87
53.320        50
53.340        73
53.360        53
53.380        60
53.400        70
53.420        60
53.440        67
53.460        70
53.480        63
53.500        77
53.520        33
53.540        47
53.560        63
53.580        47
53.600        77
53.620        47
53.640        50
53.660        50
53.680        53
53.700        83
53.720        63
53.740        67
53.760       103
53.780        60
53.800        70
53.820        50
53.840        57
53.860        63
53.880        43
53.900        97
53.920        67
53.940        53
53.960        70
53.980        37
54.000        43
54.020        60
54.040        83
54.060        70
54.080        70
54.100        87
54.120        57
54.140        87
54.160        73
54.180        73
54.200       113
54.220        93
54.240        90
54.260        87
54.280       117
54.300       100
54.320       120
54.340       113
54.360        87
54.380        67
54.400        93
54.420        90
54.440        77
54.460        90
54.480        97
54.500        53
54.520        67
54.540        97
54.560        83
54.580        97
54.600       113
54.620        97
54.640        57
54.660        77
54.680        67
54.700        70
54.720        87
54.740        70
54.760        70
54.780        60
54.800        90
54.820        57
54.840        77
54.860        70
54.880        90
54.900        93
54.920        87
54.940       100
54.960       120
54.980        57
55.000        80
55.020        63
55.040        80
55.060        83
55.080        60
55.100        80
55.120       100
55.140        73
55.160        87
55.180        73
55.200        67
55.220        73
55.240       110
55.260        60
55.280        80
55.300        97
55.320        60
55.340        77
55.360        60
55.380        57
55.400        60
55.420        97
55.440        67
55.460        53
55.480        67
55.500        83
55.520        90
55.540        87
55.560       110
55.580        77
55.600        67
55.620       107
55.640       107
55.660        63
55.680        97
55.700        93
55.720       120
55.740       120
55.760       113
55.780       150
55.800       117
55.820       137
55.840       193
55.860       207
55.880       207
55.900       197
55.920       233
55.940       290
55.960       280
55.980       293
56.000       333
56.020       303
56.040       303
56.060       317
56.080       287
56.100       290
56.120       260
56.140       260
56.160       230
56.180       197
56.200       203
56.220       223
56.240       160
56.260       240
56.280       180
56.300       153
56.320       147
56.340       140
56.360       133
56.380       117
56.400       100
56.420        60
56.440       120
56.460       107
56.480        90
56.500        63
56.520        90
56.540       107
56.560       107
56.580        87
56.600        57
56.620        70
56.640        77
56.660        83
56.680       107
56.700        80
56.720       107
56.740        77
56.760        93
56.780        93
56.800        80
56.820        77
56.840       110
56.860        97
56.880        80
56.900       120
56.920       123
56.940       113
56.960       100
56.980       120
57.000       147
57.020       127
57.040        90
57.060       107
57.080        97
57.100       103
57.120       100
57.140       117
57.160       113
57.180       120
57.200       133
57.220       120
57.240        67
57.260       130
57.280       120
57.300       157
57.320       140
57.340       220
57.360       127
57.380       153
57.400       243
57.420       197
57.440       303
57.460       390
57.480       700
57.500       973
57.520      1329
57.540      1516
57.560      1746
57.580      1160
57.600       860
57.620       593
57.640       520
57.660       660
57.680       900
57.700       793
57.720       860
57.740       703
57.760       440
57.780       290
57.800       153
57.820       127
57.840       110
57.860       120
57.880        80
57.900        90
57.920        97
57.940        87
57.960        90
57.980       100
58.000       133
58.020        93
58.040        93
58.060        93
58.080       100
58.100        73
58.120        77
58.140       100
58.160        87
58.180       103
58.200        53
58.220        70
58.240        73
58.260        57
58.280        97
58.300        60
58.320        63
58.340        67
58.360        83
58.380        80
58.400        63
58.420        73
58.440        67
58.460        67
58.480        60
58.500        70
58.520        73
58.540        87
58.560        67
58.580        57
58.600        60
58.620        93
58.640        70
58.660        87
58.680        57
58.700        70
58.720        57
58.740        57
58.760       110
58.780        80
58.800        57
58.820        63
58.840        67
58.860        70
58.880        60
58.900        47
58.920        67
58.940        60
58.960        77
58.980        47
59.000       117
59.020        53
59.040        67
59.060        83
59.080        60
59.100        77
59.120        70
59.140        80
59.160        73
59.180        97
59.200        90
59.220        63
59.240        63
59.260        77
59.280        93
59.300        90
59.320        57
59.340        97
59.360        73
59.380       123
59.400        83
59.420       107
59.440       123
59.460        83
59.480       137
59.500        57
59.520       103
59.540        93
59.560        83
59.580        83
59.600       113
59.620        80
59.640        80
59.660        87
59.680       120
59.700        90
59.720       127
59.740       127
59.760       157
59.780       137
59.800       167
59.820       110
59.840        97
59.860        97
59.880        73
59.900        90
59.920       120
59.940        90
59.960        80
59.980        67
60.000        97
