20.000       250
20.020       250
20.040       263
20.060       223
20.080       270
20.100       227
20.120       270
20.140       270
20.160       253
20.180       240
20.200       197
20.220       237
20.240       230
20.260       163
20.280       283
20.300       217
20.320       203
20.340       267
20.360       237
20.380       230
20.400       173
20.420       193
20.440       290
20.460       257
20.480       267
20.500       287
20.520       200
20.540       217
20.560       223
20.580       243
20.600       250
20.620       220
20.640       253
20.660       200
20.680       227
20.700       187
20.720       270
20.740       230
20.760       223
20.780       193
20.800       243
20.820       203
20.840       240
20.860       223
20.880       243
20.900       223
20.920       237
20.940       250
20.960       263
20.980       180
21.000       253
21.020       267
21.040       287
21.060       237
21.080       243
21.100       217
21.120       220
21.140       240
21.160       177
21.180       190
21.200       237
21.220       263
21.240       250
21.260       243
21.280       207
21.300       217
21.320       223
21.340       237
21.360       193
21.380       203
21.400       217
21.420       237
21.440       213
21.460       243
21.480       240
21.500       250
21.520       130
21.540       210
21.560       210
21.580       270
21.600       223
21.620       180
21.640       247
21.660       233
21.680       283
21.700       210
21.720       230
21.740       230
21.760       240
21.780       223
21.800       250
21.820       247
21.840       217
21.860       260
21.880       217
21.900       227
21.920       190
21.940       217
21.960       310
21.980       273
22.000       280
22.020       373
22.040       353
22.060       423
22.080       387
22.100       310
22.120       380
22.140       330
22.160       243
22.180       267
22.200       273
22.220       223
22.240       173
22.260       200
22.280       237
22.300       193
22.320       203
22.340       193
22.360       227
22.380       163
22.400       233
22.420       167
22.440       243
22.460       173
22.480       183
22.500       223
22.520       217
22.540       157
22.560       197
22.580       207
22.600       200
22.620       223
22.640       170
22.660       217
22.680       173
22.700       163
22.720       210
22.740       180
22.760       177
22.780       203
22.800       203
22.820       210
22.840       213
22.860       220
22.880       200
22.900       207
22.920       220
22.940       203
22.960       203
22.980       190
23.000       217
23.020       237
23.040       207
23.060       187
23.080       227
23.100       207
23.120       187
23.140       200
23.160       227
23.180       217
23.200       143
23.220       183
23.240       180
23.260       237
23.280       217
23.300       170
23.320       197
23.340       193
23.360       163
23.380       193
23.400       173
23.420       200
23.440       197
23.460       190
23.480       150
23.500       187
23.520       207
23.540       170
23.560       180
23.580       150
23.600       177
23.620       173
23.640       173
23.660       207
23.680       147
23.700       187
23.720       223
23.740       160
23.760       203
23.780       207
23.800       203
23.820       193
23.840       173
23.860       210
23.880       177
23.900       190
23.920       200
23.940       223
23.960       207
23.980       183
24.000       190
24.020       157
24.040       180
24.060       180
24.080       207
24.100       143
24.120       183
24.140       203
24.160       170
24.180       187
24.200       240
24.220       167
24.240       200
24.260       170
24.280       197
24.300       163
24.320       213
24.340       217
24.360       183
24.380       153
24.400       153
24.420       203
24.440       160
24.460       210
24.480       147
24.500       167
24.520       203
24.540       170
24.560       177
24.580       210
24.600       177
24.620       187
24.640       150
24.660       180
24.680       167
24.700       177
24.720       157
24.740       157
24.760       160
24.780       147
24.800       190
24.820       170
24.840       170
24.860       157
24.880       143
24.900       183
24.920       153
24.940       170
24.960       177
24.980       177
25.000       197
25.020       180
25.040       170
25.060       113
25.080       137
25.100       153
25.120       193
25.140       173
25.160       213
25.180       137
25.200       187
25.220       157
25.240       187
25.260       160
25.280       210
25.300       183
25.320       120
25.340       153
25.360       213
25.380       137
25.400       197
25.420       173
25.440       140
25.460       183
25.480       133
25.500       197
25.520       210
25.540       187
25.560       177
25.580       167
25.600       183
25.620       200
25.640       167
25.660       163
25.680       183
25.700       163
25.720       187
25.740       173
25.760       120
25.780       157
25.800       160
25.820       177
25.840       143
25.860       157
25.880       167
25.900       147
25.920       130
25.940       170
25.960       153
25.980       150
26.000       133
26.020       160
26.040       190
26.060       133
26.080       137
26.100       143
26.120       160
26.140       143
26.160       123
26.180       113
26.200       140
26.220       153
26.240       190
26.260        93
26.280       117
26.300       107
26.320       150
26.340       120
26.360       140
26.380       147
26.400       133
26.420       173
26.440       120
26.460       167
26.480       110
26.500       133
26.520       120
26.540       157
26.560       110
26.580       147
26.600       130
26.620       110
26.640       103
26.660       167
26.680       133
26.700       110
26.720       127
26.740       127
26.760       133
26.780       147
26.800       110
26.820       120
26.840       180
26.860       147
26.880       143
26.900       130
26.920       110
26.940       137
26.960       103
26.980       127
27.000       190
27.020       110
27.040       107
27.060       130
27.080       157
27.100       140
27.120       110
27.140       163
27.160       157
27.180       143
27.200       123
27.220       133
27.240       143
27.260       120
27.280       143
27.300       120
27.320       127
27.340       137
27.360       167
27.380       120
27.400        63
27.420       100
27.440       107
27.460       140
27.480       110
27.500       117
27.520       120
27.540       143
27.560       110
27.580        93
27.600       147
27.620       100
27.640       170
27.660       190
27.680       133
27.700       143
27.720       147
27.740        97
27.760       143
27.780       117
27.800       103
27.820       100
27.840       143
27.860       143
27.880       137
27.900        97
27.920       113
27.940       130
27.960        87
27.980       137
28.000        83
28.020       103
28.040       130
28.060       130
28.080       140
28.100       123
28.120       153
28.140       157
28.160       177
28.180       147
28.200       107
28.220        97
28.240       120
28.260       147
28.280       120
28.300       127
28.320       117
28.340       100
28.360        83
28.380       130
28.400       137
28.420       133
28.440       107
28.460       113
28.480       143
28.500       123
28.520       150
28.540       167
28.560       143
28.580       140
28.600       137
28.620       183
28.640       173
28.660       157
28.680       147
28.700       117
28.720       133
28.740       150
28.760       150
28.780       133
28.800       190
28.820       103
28.840       117
28.860       100
28.880       113
28.900       120
28.920        87
28.940        97
28.960       130
28.980       130
29.000       100
29.020       123
29.040       107
29.060       110
29.080       107
29.100       130
29.120       127
29.140        97
29.160       120
29.180       130
29.200        93
29.220       113
29.240        97
29.260        80
29.280       143
29.300        90
29.320       110
29.340        63
29.360       103
29.380        97
29.400        80
29.420       107
29.440       107
29.460       120
29.480       123
29.500        83
29.520        90
29.540       113
29.560       107
29.580       140
29.600       120
29.620       100
29.640       130
29.660       107
29.680       137
29.700       117
29.720       133
29.740       117
29.760       120
29.780       127
29.800        80
29.820       107
29.840        97
29.860       127
29.880       120
29.900        93
29.920       120
29.940       103
29.960       120
29.980       117
30.000       120
30.020        90
30.040       110
30.060        83
30.080       117
30.100        87
30.120       103
30.140        83
30.160       100
30.180       100
30.200       110
30.220       103
30.240        80
30.260       117
30.280       113
30.300       133
30.320        93
30.340       107
30.360       107
30.380       137
30.400        80
30.420        97
30.440       107
30.460       120
30.480       110
30.500       133
30.520       100
30.540        97
30.560       117
30.580       113
30.600       133
30.620        83
30.640       113
30.660       100
30.680       150
30.700        73
30.720       133
30.740       130
30.760        97
30.780       123
30.800       140
30.820        97
30.840       127
30.860       127
30.880       113
30.900       160
30.920       137
30.940       133
30.960       123
30.980       127
31.000       137
31.020       120
31.040       107
31.060       120
31.080        97
31.100       130
31.120       120
31.140       133
31.160       113
31.180       130
31.200       177
31.220       227
31.240       200
31.260       227
31.280       327
31.300       320
31.320       417
31.340       483
31.360       526
31.380       590
31.400       623
31.420       663
31.440       576
31.460       513
31.480       403
31.500       327
31.520       247
31.540       243
31.560       130
31.580       180
31.600       137
31.620       130
31.640       140
31.660       110
31.680       133
31.700       127
31.720       127
31.740        93
31.760       127
31.780       140
31.800       130
31.820       113
31.840       130
31.860       130
31.880        90
31.900       113
31.920       100
31.940        93
31.960       120
31.980        97
32.000        90
32.020       117
32.040       100
32.060       113
32.080        87
32.100       103
32.120        73
32.140        97
32.160        87
32.180        97
32.200       107
32.220       103
32.240       120
32.260        97
32.280       103
32.300        73
32.320       117
32.340        93
32.360        83
32.380        67
32.400        83
32.420       133
32.440       117
32.460        83
32.480        93
32.500        50
32.520       117
32.540       100
32.560        83
32.580        90
32.600        97
32.620       103
32.640       100
32.660       123
32.680       133
32.700       100
32.720        73
32.740       107
32.760        93
32.780       113
32.800        97
32.820       107
32.840        77
32.860        70
32.880        93
32.900        77
32.920       100
32.940       117
32.960       100
32.980       113
33.000        83
33.020        97
33.040        80
33.060        90
33.080        80
33.100        60
33.120        73
33.140        97
33.160       100
33.180       100
33.200       110
33.220        80
33.240        97
33.260       110
33.280       150
33.300        77
33.320        97
33.340        70
33.360        77
33.380       120
33.400        87
33.420       103
33.440        83
33.460        93
33.480        87
33.500        83
33.520        93
33.540        93
33.560        93
33.580        93
33.600        77
33.620        87
33.640        63
33.660        87
33.680       107
33.700       103
33.720       117
33.740        73
33.760        67
33.780        93
33.800        70
33.820        80
33.840       110
33.860        83
33.880       117
33.900       100
33.920       127
33.940        93
33.960        83
33.980       103
34.000        63
34.020       137
34.040       113
34.060        73
34.080        93
34.100        73
34.120        93
34.140        77
34.160        67
34.180        80
34.200       103
34.220       113
34.240        77
34.260        83
34.280        97
34.300       100
34.320        60
34.340        80
34.360        60
34.380        77
34.400        67
34.420       107
34.440       100
34.460        93
34.480        83
34.500        93
34.520        93
34.540        80
34.560        93
34.580       107
34.600        97
34.620        87
34.640        83
34.660        90
34.680       117
34.700        83
34.720        87
34.740        90
34.760       107
34.780        87
34.800        67
34.820       107
34.840        93
34.860        80
34.880       137
34.900        87
34.920        97
34.940        97
34.960        90
34.980       100
35.000        90
35.020        70
35.040       110
35.060       113
35.080       123
35.100       163
35.120       140
35.140       220
35.160       210
35.180       170
35.200       163
35.220       137
35.240       140
35.260       130
35.280       113
35.300       113
35.320       100
35.340       130
35.360        63
35.380        70
35.400       100
35.420        60
35.440        83
35.460        90
35.480        80
35.500        73
35.520        67
35.540        77
35.560        83
35.580        73
35.600       103
35.620        63
35.640        73
35.660       113
35.680       113
35.700        83
35.720        70
35.740        80
35.760        93
35.780        73
35.800        77
35.820       103
35.840       127
35.860        87
35.880        83
35.900        73
35.920       100
35.940        83
35.960        73
35.980       123
36.000        90
36.020        70
36.040       107
36.060        80
36.080        97
36.100        67
36.120        70
36.140       103
36.160        77
36.180        60
36.200        90
36.220        83
36.240        77
36.260        97
36.280        57
36.300        53
36.320        83
36.340        63
36.360        73
36.380        90
36.400        87
36.420        77
36.440        73
36.460        87
36.480        93
36.500        87
36.520       100
36.540       107
36.560        87
36.580        93
36.600        87
36.620        87
36.640        63
36.660        97
36.680        47
36.700        90
36.720        47
36.740        87
36.760        43
36.780       103
36.800        63
36.820        67
36.840        87
36.860        83
36.880       107
36.900        87
36.920        80
36.940        73
36.960        63
36.980        87
37.000        53
37.020       113
37.040        73
37.060       107
37.080        60
37.100        93
37.120        67
37.140        83
37.160        70
37.180        57
37.200        83
37.220        53
37.240        80
37.260        93
37.280        80
37.300        67
37.320        90
37.340        73
37.360        87
37.380        97
37.400        97
37.420        80
37.440        63
37.460       100
37.480        87
37.500        97
37.520        53
37.540        80
37.560        77
37.580        83
37.600        67
37.620        77
37.640        90
37.660       113
37.680        77
37.700        57
37.720       113
37.740        97
37.760       153
37.780        97
37.800       113
37.820       100
37.840        77
37.860        97
37.880       107
37.900        60
37.920       127
37.940        77
37.960        60
37.980        87
38.000        97
38.020        67
38.040       103
38.060        87
38.080        73
38.100        77
38.120        70
38.140        63
38.160        47
38.180       103
38.200        53
38.220       127
38.240        80
38.260       120
38.280       107
38.300       100
38.320        80
38.340       113
38.360       133
38.380       133
38.400       163
38.420       147
38.440       187
38.460       137
38.480       200
38.500       270
38.520       367
38.540       370
38.560       426
38.580       570
38.600       713
38.620       933
38.640      1073
38.660      1339
38.680      1413
38.700      1473
38.720      1423
38.740      1286
38.760      1183
38.780       983
38.800       880
38.820       670
38.840       573
38.860       397
38.880       330
38.900       180
38.920       170
38.940       133
38.960       163
38.980       117
39.000       117
39.020       100
39.040       120
39.060        90
39.080       137
39.100        77
39.120        97
39.140        83
39.160        87
39.180        63
39.200       103
39.220       120
39.240        67
39.260        97
39.280        53
39.300        83
39.320        80
39.340        83
39.360        37
39.380        67
39.400        63
39.420        77
39.440        73
39.460        67
39.480        73
39.500        70
39.520       100
39.540        73
39.560       107
39.580        90
39.600        93
39.620        90
39.640        83
39.660        70
39.680        90
39.700        57
39.720       103
39.740        93
39.760        60
39.780        93
39.800        73
39.820        83
39.840        60
39.860        80
39.880        67
39.900        80
39.920        83
39.940        37
39.960        83
39.980        77
40.000        63
40.020        80
40.040        93
40.060        77
40.080        80
40.100        80
40.120        60
40.140        63
40.160        47
40.180        73
40.200        63
40.220        73
40.240        60
40.260       100
40.280        63
40.300        77
40.320        73
40.340        90
40.360        67
40.380        63
40.400        77
40.420        80
40.440        63
40.460        90
40.480        57
40.500       110
40.520        80
40.540       107
40.560        43
40.580        83
40.600        67
40.620        80
40.640        77
40.660        67
40.680        83
40.700        77
40.720        80
40.740        80
40.760        97
40.780        77
40.800        73
40.820        57
40.840        80
40.860        67
40.880        63
40.900        77
40.920        80
40.940        63
40.960        67
40.980        70
41.000        67
41.020        63
41.040       103
41.060        50
41.080        73
41.100       100
41.120        53
41.140        80
41.160        70
41.180        43
41.200        93
41.220        60
41.240        67
41.260        87
41.280        83
41.300        67
41.320        77
41.340        90
41.360        60
41.380        53
41.400        57
41.420       103
41.440        83
41.460        57
41.480        87
41.500        83
41.520        70
41.540       117
41.560        67
41.580       100
41.600        70
41.620        80
41.640        90
41.660       157
41.680       130
41.700       113
41.720       133
41.740        93
41.760        93
41.780       103
41.800        70
41.820       100
41.840       110
41.860        57
41.880       103
41.900        70
41.920        87
41.940        73
41.960        73
41.980        83
42.000        43
42.020        53
42.040        63
42.060        83
42.080        83
42.100        53
42.120        80
42.140        80
42.160        60
42.180        70
42.200        73
42.220        70
42.240        47
42.260        53
42.280        83
42.300        60
42.320        77
42.340        43
42.360        70
42.380       107
42.400        57
42.420        57
42.440        70
42.460        93
42.480        70
42.500        63
42.520        73
42.540        47
42.560        63
42.580        57
42.600        67
42.620        63
42.640        70
42.660        73
42.680        67
42.700        53
42.720        67
42.740        70
42.760        73
42.780        87
42.800        97
42.820        67
42.840       103
42.860        90
42.880       107
42.900       117
42.920        70
42.940        83
42.960        90
42.980       133
43.000       123
43.020       123
43.040       137
43.060       150
43.080       177
43.100       113
43.120       110
43.140       133
43.160       147
43.180       110
43.200        87
43.220       150
43.240       123
43.260       123
43.280       147
43.300       143
43.320       113
43.340       170
43.360       210
43.380       213
43.400       173
43.420       133
43.440       183
43.460       137
43.480       113
43.500       133
43.520        97
43.540       103
43.560        93
43.580        90
43.600        83
43.620        90
43.640        57
43.660        60
43.680        77
43.700        67
43.720        63
43.740        97
43.760        67
43.780        40
43.800        77
43.820        83
43.840        43
43.860        90
43.880        63
43.900        73
43.920        57
43.940        70
43.960       107
43.980        73
44.000        50
44.020        67
44.040        80
44.060        90
44.080        80
44.100        67
44.120        97
44.140        73
44.160        70
44.180        83
44.200        70
44.220        43
44.240        50
44.260        77
44.280        83
44.300        93
44.320        73
44.340        87
44.360        83
44.380        67
44.400        77
44.420        80
44.440        87
44.460        97
44.480        87
44.500        80
44.520        80
44.540        77
44.560       123
44.580       103
44.600        83
44.620        87
44.640        73
44.660        87
44.680       123
44.700       123
44.720       140
44.740       160
44.760       153
44.780       157
44.800       250
44.820       247
44.840       317
44.860       330
44.880       407
44.900       533
44.920       590
44.940       773
44.960       833
44.980       836
45.000       820
45.020       786
45.040       856
45.060       710
45.080       536
45.100       596
45.120       486
45.140       450
45.160       293
45.180       297
45.200       180
45.220       173
45.240       143
45.260       110
45.280        80
45.300        93
45.320        90
45.340       153
45.360        83
45.380        60
45.400        83
45.420        97
45.440        67
45.460        83
45.480        87
45.500        67
45.520        97
45.540        90
45.560        63
45.580        97
45.600        73
45.620        90
45.640        67
45.660        80
45.680        90
45.700        83
45.720        57
45.740        43
45.760        57
45.780        53
45.800        87
45.820       100
45.840        37
45.860        60
45.880        77
45.900        53
45.920        67
45.940        97
45.960        67
45.980        73
46.000        47
46.020        53
46.040        87
46.060        63
46.080        53
46.100        73
46.120        63
46.140        97
46.160        37
46.180        70
46.200        80
46.220        73
46.240        77
46.260        87
46.280        57
46.300        63
46.320        47
46.340        77
46.360        47
46.380        60
46.400        70
46.420        70
46.440        73
46.460        80
46.480        63
46.500        57
46.520        43
46.540        70
46.560        53
46.580        60
46.600        73
46.620        70
46.640        57
46.660        43
46.680        67
46.700        43
46.720        37
46.740        80
46.760        53
46.780        63
46.800        70
46.820        83
46.840        50
46.860        73
46.880        63
46.900        90
46.920        50
46.940        67
46.960        57
46.980        40
47.000        57
47.020        67
47.040        57
47.060        70
47.080       100
47.100        53
47.120        80
47.140        73
47.160        57
47.180        70
47.200        57
47.220        33
47.240        43
47.260        60
47.280        77
47.300        93
47.320        67
47.340        53
47.360        80
47.380        83
47.400        87
47.420        73
47.440        73
47.460        50
47.480        90
47.500        67
47.520        77
47.540        47
47.560        57
47.580        70
47.600        57
47.620        70
47.640        70
47.660        73
47.680        83
47.700        43
47.720        47
47.740        63
47.760        97
47.780        63
47.800        87
47.820        63
47.840        63
47.860        57
47.880        57
47.900        63
47.920        57
47.940        80
47.960        73
47.980        63
48.000        53
48.020        87
48.040        57
48.060        67
48.080        87
48.100        57
48.120        47
48.140        70
48.160        40
48.180        57
48.200        57
48.220        53
48.240        43
48.260        77
48.280        57
48.300        53
48.320        53
48.340        73
48.360        50
48.380        43
48.400        77
48.420        67
48.440        80
48.460        80
48.480        63
48.500        53
48.520        67
48.540        63
48.560        83
48.580        53
48.600        43
48.620        77
48.640        87
48.660        90
48.680       103
48.700       107
48.720        87
48.740        67
48.760       110
48.780        93
48.800       107
48.820        90
48.840        83
48.860       110
48.880        70
48.900        63
48.920        93
48.940        80
48.960        97
48.980        63
49.000        93
49.020       110
49.040        83
49.060       103
49.080        90
49.100        83
49.120        70
49.140        50
49.160        80
49.180        67
49.200        87
49.220        77
49.240        80
49.260        73
49.280        60
49.300        67
49.320       100
49.340       107
49.360        47
49.380        73
49.400        90
49.420        67
49.440        67
49.460        63
49.480        80
49.500        50
49.520        57
49.540        53
49.560        50
49.580        63
49.600        77
49.620        60
49.640        80
49.660        67
49.680        60
49.700        57
49.720        80
49.740        63
49.760        90
49.780        43
49.800        50
49.820        67
49.840        70
49.860        63
49.880        87
49.900        57
49.920        50
49.940        57
49.960        57
49.980        80
50.000        57
50.020        80
50.040        83
50.060        50
50.080        73
50.100        80
50.120       100
50.140        60
50.160        53
50.180        40
50.200        47
50.220        70
50.240        73
50.260        70
50.280        53
50.300        63
50.320        33
50.340        63
50.360        63
50.380        57
50.400        53
50.420        70
50.440        80
50.460        83
50.480        87
50.500        80
50.520        53
50.540        93
50.560        60
50.580        73
50.600        67
50.620       113
50.640        80
50.660        93
50.680        80
50.700        67
50.720        87
50.740        80
50.760       120
50.780       100
50.800        73
50.820        77
50.840        73
50.860        97
50.880        57
50.900        67
50.920        67
50.940        20
50.960        70
50.980        57
51.000        30
51.020        40
51.040        67
51.060        83
51.080        57
51.100        60
51.120        53
51.140        77
51.160        53
51.180        67
51.200        57
51.220        60
51.240        70
51.260        50
51.280        70
51.300        90
51.320        43
51.340        40
51.360        67
51.380        73
51.400        87
51.420        63
51.440        77
51.460        73
51.480        70
51.500        53
51.520        47
51.540        83
51.560        57
51.580        70
51.600        63
51.620        70
51.640        70
51.660        67
51.680        50
51.700        50
51.720        63
51.740        47
51.760        57
51.780        47
51.800        57
51.820        47
51.840        37
51.860        50
51.880        50
51.900        63
51.920        53
51.940        40
51.960        60
51.980        77
52.000        67
52.020        53
52.040        80
52.060        57
52.080        43
52.100        73
52.120        53
52.140        73
52.160        63
52.180        53
52.200        37
52.220        63
52.240        53
52.260        67
52.280        60
52.300       100
52.320        73
52.340        60
52.360        70
52.380        53
52.400        60
52.420        97
52.440        73
52.460        83
52.480        93
52.500       117
52.520       140
52.540       203
52.560       253
52.580       263
52.600       200
52.620       140
52.640       147
52.660       137
52.680       150
52.700       107
52.720       120
52.740       133
52.760       130
52.780        87
52.800        63
52.820        47
52.840        77
52.860        83
52.880        67
52.900        70
52.920        77
52.940        50
52.960        60
52.980        67
53.000        73
53.020        53
53.040        50
53.060        63
53.080        43
53.100        50
53.120        47
53.140        67
53.160        80
53.180        50
53.200        50
53.220        40
53.240        57
53.260        57
53.280        53
53.300        77
53.320        50
53.340        63
53.360        60
53.380        80
53.400        53
53.420        53
53.440        70
53.460        67
53.480        83
53.500        60
53.520        67
53.540        33
53.560        57
53.580        37
53.600        37
53.620        57
53.640        60
53.660        53
53.680        57
53.700        70
53.720        67
53.740        70
53.760        60
53.780        53
53.800        80
53.820        47
53.840        53
53.860        33
53.880        87
53.900        67
53.920        57
53.940        53
53.960        53
53.980        90
54.000        70
54.020        50
54.040        63
54.060        83
54.080        63
54.100        77
54.120       113
54.140        73
54.160        77
54.180       103
54.200        90
54.220        60
54.240        63
54.260        53
54.280        80
54.300        63
54.320        63
54.340        50
54.360        53
54.380        63
54.400        57
54.420        83
54.440        60
54.460        80
54.480        67
54.500        67
54.520        57
54.540        70
54.560        50
54.580        50
54.600        60
54.620        57
54.640        53
54.660        57
54.680        73
54.700        67
54.720        70
54.740        57
54.760        63
54.780        80
54.800       103
54.820        73
54.840        70
54.860        80
54.880        73
54.900        67
54.920        57
54.940        87
54.960        90
54.980        63
55.000        70
55.020        53
55.040        77
55.060        50
55.080        83
55.100        63
55.120        83
55.140        73
55.160        60
55.180        37
55.200        60
55.220       120
55.240        83
55.260        80
55.280        67
55.300        57
55.320        73
55.340        87
55.360        57
55.380        47
55.400        77
55.420        73
55.440        73
55.460        93
55.480        77
55.500        87
55.520       113
55.540        70
55.560       113
55.580       147
55.600       150
55.620       150
55.640       160
55.660       190
55.680       230
55.700       183
55.720       267
55.740       273
55.760       353
55.780       496
55.800       606
55.820       606
55.840       810
55.860      1150
55.880      1113
55.900      1353
55.920      1186
55.940      1223
55.960       966
55.980       826
56.000       776
56.020       753
56.040       686
56.060       686
56.080       656
56.100       533
56.120       440
56.140       297
56.160       247
56.180       213
56.200       163
56.220       127
56.240       137
56.260       107
56.280       140
56.300       100
56.320        87
56.340        63
56.360       113
56.380        80
56.400        57
56.420        80
56.440        60
56.460        73
56.480        43
56.500        50
56.520        57
56.540        73
56.560        70
56.580        83
56.600        70
56.620        90
56.640        93
56.660        67
56.680        83
56.700        67
56.720       100
56.740        63
56.760        83
56.780        67
56.800        87
56.820        70
56.840        77
56.860        63
56.880        77
56.900        70
56.920        67
56.940        83
56.960        73
56.980        77
57.000        97
57.020        97
57.040        30
57.060        60
57.080        93
57.100        70
57.120        73
57.140        87
57.160        80
57.180        57
57.200        53
57.220        77
57.240        87
57.260        77
57.280        90
57.300        87
57.320        83
57.340        87
57.360       153
57.380       120
57.400       173
57.420       173
57.440       160
57.460       250
57.480       390
57.500       553
57.520       466
57.540       420
57.560       287
57.580       217
57.600       210
57.620       213
57.640       260
57.660       243
57.680       297
57.700       220
57.720       163
57.740       103
57.760       113
57.780        80
57.800        97
57.820       110
57.840        97
57.860        63
57.880        60
57.900        40
57.920        73
57.940        67
57.960        83
57.980        77
58.000        70
58.020        60
58.040        63
58.060        63
58.080        73
58.100        63
58.120        57
58.140        77
58.160        83
58.180        60
58.200        73
58.220        87
58.240        43
58.260        90
58.280        83
58.300        80
58.320        57
58.340        67
58.360        63
58.380       103
58.400        93
58.420        57
58.440        57
58.460        77
58.480        63
58.500        80
58.520        60
58.540        63
58.560        67
58.580        97
58.600        80
58.620        97
58.640        67
58.660        87
58.680       103
58.700        63
58.720        63
58.740        67
58.760        37
58.780        67
58.800        70
58.820        57
58.840        57
58.860        60
58.880        63
58.900        53
58.920        83
58.940        67
58.960        63
58.980        57
59.000        73
59.020        67
59.040        70
59.060        87
59.080        77
59.100        80
59.120        73
59.140        40
59.160        60
59.180        67
59.200        60
59.220        67
59.240        90
59.260        60
59.280        77
59.300        87
59.320        73
59.340        60
59.360        67
59.380        83
59.400        87
59.420        57
59.440        73
59.460        50
59.480       113
59.500        40
59.520        83
59.540        80
59.560        90
59.580        73
59.600        60
59.620        80
59.640        37
59.660        33
59.680        47
59.700        53
59.720        60
59.740        87
59.760        77
59.780        73
59.800        57
59.820        40
59.840        60
59.860        67
59.880        10
59.900         0
59.920         0
59.940         0
59.960         0
59.980         0
60.000         0
