20.000       303
20.020       213
20.040       250
20.060       223
20.080       277
20.100       260
20.120       217
20.140       333
20.160       210
20.180       263
20.200       253
20.220       220
20.240       283
20.260       240
20.280       203
20.300       170
20.320       233
20.340       233
20.360       307
20.380       317
20.400       253
20.420       240
20.440       263
20.460       263
20.480       277
20.500       203
20.520       247
20.540       250
20.560       250
20.580       173
20.600       260
20.620       273
20.640       210
20.660       190
20.680       237
20.700       183
20.720       233
20.740       197
20.760       267
20.780       200
20.800       237
20.820       223
20.840       230
20.860       223
20.880       247
20.900       247
20.920       253
20.940       253
20.960       227
20.980       220
21.000       217
21.020       217
21.040       253
21.060       200
21.080       280
21.100       227
21.120       170
21.140       257
21.160       210
21.180       190
21.200       203
21.220       297
21.240       217
21.260       270
21.280       217
21.300       207
21.320       200
21.340       220
21.360       163
21.380       183
21.400       250
21.420       213
21.440       273
21.460       227
21.480       223
21.500       193
21.520       223
21.540       227
21.560       247
21.580       230
21.600       290
21.620       240
21.640       203
21.660       240
21.680       227
21.700       263
21.720       237
21.740       227
21.760       243
21.780       230
21.800       273
21.820       220
21.840       237
21.860       277
21.880       213
21.900       213
21.920       217
21.940       267
21.960       250
21.980       220
22.000       283
22.020       247
22.040       227
22.060       213
22.080       230
22.100       230
22.120       223
22.140       223
22.160       183
22.180       197
22.200       203
22.220       213
22.240       233
22.260       210
22.280       183
22.300       213
22.320       260
22.340       187
22.360       197
22.380       233
22.400       210
22.420       210
22.440       257
22.460       193
22.480       210
22.500       197
22.520       213
22.540       210
22.560       157
22.580       180
22.600       237
22.620       250
22.640       213
22.660       223
22.680       157
22.700       217
22.720       217
22.740       227
22.760       177
22.780       173
22.800       213
22.820       223
22.840       190
22.860       203
22.880       160
22.900       170
22.920       207
22.940       190
22.960       207
22.980       207
23.000       213
23.020       200
23.040       260
23.060       190
23.080       217
23.100       207
23.120       203
23.140       157
23.160       153
23.180       240
23.200       197
23.220       207
23.240       213
23.260       173
23.280       150
23.300       267
23.320       250
23.340       200
23.360       183
23.380       187
23.400       193
23.420       167
23.440       177
23.460       180
23.480       200
23.500       197
23.520       203
23.540       223
23.560       167
23.580       153
23.600       217
23.620       217
23.640       203
23.660       160
23.680       170
23.700       230
23.720       157
23.740       197
23.760       167
23.780       207
23.800       177
23.820       163
23.840       147
23.860       213
23.880       183
23.900       207
23.920       177
23.940       227
23.960       170
23.980       203
24.000       150
24.020       200
24.040       187
24.060       193
24.080       227
24.100       130
24.120       183
24.140       187
24.160       183
24.180       200
24.200       177
24.220       240
24.240       153
24.260       150
24.280       210
24.300       170
24.320       177
24.340       173
24.360       190
24.380       167
24.400       167
24.420       200
24.440       170
24.460       153
24.480       173
24.500       227
24.520       210
24.540       183
24.560       193
24.580       190
24.600       177
24.620       173
24.640       200
24.660       190
24.680       207
24.700       213
24.720       177
24.740       143
24.760       160
24.780       167
24.800       177
24.820       197
24.840       147
24.860       210
24.880       157
24.900       187
24.920       193
24.940       157
24.960       147
24.980       137
25.000       183
25.020       177
25.040       187
25.060       160
25.080       203
25.100       177
25.120       197
25.140       187
25.160       233
25.180       160
25.200       223
25.220       147
25.240       190
25.260       170
25.280       183
25.300       213
25.320       167
25.340       173
25.360       193
25.380       143
25.400       200
25.420       173
25.440       203
25.460       147
25.480       207
25.500       183
25.520       240
25.540       183
25.560       223
25.580       227
25.600       250
25.620       173
25.640       270
25.660       150
25.680       253
25.700       173
25.720       183
25.740       137
25.760       220
25.780       187
25.800       207
25.820       133
25.840       207
25.860       160
25.880       137
25.900       180
25.920       163
25.940       187
25.960       197
25.980       143
26.000       117
26.020       167
26.040       167
26.060       140
26.080       143
26.100       117
26.120       163
26.140       150
26.160       197
26.180       143
26.200       143
26.220       170
26.240       243
26.260       163
26.280       127
26.300       163
26.320       130
26.340       170
26.360       170
26.380       193
26.400       183
26.420       183
26.440       157
26.460       163
26.480       163
26.500       170
26.520       190
26.540       163
26.560       193
26.580       200
26.600       140
26.620       227
26.640       200
26.660       173
26.680       180
26.700       233
26.720       180
26.740       177
26.760       167
26.780       143
26.800       160
26.820       157
26.840       143
26.860       147
26.880       203
26.900       130
26.920       197
26.940       137
26.960       160
26.980       173
27.000       170
27.020       157
27.040       153
27.060       147
27.080        73
27.100       123
27.120       107
27.140       193
27.160       133
27.180       163
27.200       123
27.220       167
27.240       127
27.260       117
27.280       137
27.300       143
27.320       127
27.340       180
27.360       120
27.380       170
27.400       157
27.420       123
27.440       160
27.460        90
27.480       147
27.500       117
27.520       163
27.540        97
27.560       150
27.580       127
27.600       137
27.620        80
27.640       170
27.660       157
27.680       167
27.700       127
27.720       123
27.740       133
27.760       157
27.780       173
27.800       153
27.820       120
27.840       143
27.860       167
27.880       130
27.900       113
27.920       123
27.940       143
27.960       147
27.980       113
28.000       150
28.020       137
28.040       173
28.060       123
28.080       140
28.100       113
28.120       137
28.140       133
28.160       153
28.180       163
28.200       120
28.220       153
28.240       113
28.260       137
28.280       110
28.300       150
28.320       123
28.340       100
28.360       130
28.380       123
28.400       133
28.420       113
28.440       147
28.460       137
28.480       150
28.500       160
28.520       117
28.540       130
28.560       160
28.580       133
28.600       173
28.620       157
28.640       213
28.660       180
28.680       197
28.700       203
28.720       147
28.740       147
28.760       213
28.780       147
28.800       230
28.820       167
28.840       207
28.860       153
28.880       203
28.900       160
28.920       107
28.940       117
28.960       137
28.980       153
29.000        87
29.020       143
29.040       160
29.060       110
29.080       113
29.100       140
29.120       120
29.140       127
29.160       130
29.180       103
29.200       140
29.220       113
29.240       130
29.260       117
29.280       123
29.300       110
29.320       143
29.340       140
29.360       103
29.380       120
29.400       113
29.420       103
29.440       100
29.460       120
29.480       157
29.500       143
29.520        90
29.540       130
29.560       127
29.580       110
29.600       137
29.620       133
29.640       107
29.660       140
29.680       127
29.700       147
29.720        77
29.740       110
29.760       103
29.780        90
29.800       107
29.820       117
29.840        90
29.860       113
29.880       160
29.900       103
29.920       137
29.940       150
29.960       130
29.980        93
30.000        97
30.020       100
30.040        77
30.060       150
30.080       100
30.100       100
30.120       120
30.140        90
30.160       137
30.180       117
30.200       120
30.220       120
30.240       130
30.260       117
30.280       117
30.300       133
30.320        87
30.340        90
30.360       120
30.380       133
30.400        97
30.420        87
30.440       130
30.460       130
30.480       120
30.500       113
30.520       120
30.540       147
30.560       107
30.580       120
30.600       113
30.620       120
30.640       113
30.660       147
30.680       153
30.700       113
30.720       137
30.740       140
30.760       117
30.780       110
30.800       143
30.820       137
30.840       123
30.860       127
30.880       130
30.900       107
30.920       103
30.940       173
30.960        90
30.980       140
31.000       127
31.020       130
31.040       163
31.060       137
31.080       127
31.100       113
31.120       123
31.140        90
31.160       117
31.180       133
31.200       113
31.220       120
31.240       130
31.260       117
31.280       117
31.300       157
31.320       130
31.340       200
31.360       187
31.380       177
31.400       140
31.420       183
31.440       183
31.460       197
31.480       120
31.500       147
31.520       180
31.540       173
31.560       127
31.580       173
31.600       173
31.620       187
31.640       233
31.660       143
31.680       170
31.700       210
31.720       150
31.740       210
31.760       190
31.780       190
31.800       160
31.820       187
31.840       167
31.860       130
31.880       153
31.900       157
31.920       133
31.940       167
31.960       133
31.980       100
32.000       113
32.020        90
32.040       163
32.060       110
32.080       100
32.100       127
32.120       107
32.140        87
32.160       127
32.180       123
32.200       107
32.220       120
32.240       110
32.260       120
32.280       110
32.300       113
32.320       130
32.340       110
32.360        97
32.380        83
32.400       110
32.420       130
32.440        80
32.460       107
32.480       107
32.500       130
32.520       120
32.540       150
32.560       143
32.580        83
32.600       113
32.620        60
32.640       117
32.660        87
32.680        87
32.700       100
32.720       100
32.740        90
32.760       120
32.780       110
32.800        93
32.820        97
32.840        87
32.860       110
32.880       113
32.900       100
32.920        90
32.940       117
32.960       100
32.980        97
33.000       100
33.020        93
33.040       133
33.060       140
33.080       157
33.100       137
33.120        73
33.140       110
33.160        63
33.180       110
33.200       113
33.220        87
33.240       120
33.260       133
33.280        83
33.300       137
33.320       100
33.340        97
33.360       103
33.380        97
33.400        80
33.420        80
33.440       137
33.460        70
33.480       117
33.500       103
33.520        93
33.540        93
33.560       113
33.580        73
33.600        80
33.620        93
33.640       120
33.660       147
33.680       100
33.700       107
33.720        97
33.740       117
33.760        97
33.780       107
33.800        93
33.820       163
33.840       173
33.860       137
33.880       187
33.900       150
33.920       187
33.940       183
33.960       253
33.980       237
34.000       233
34.020       260
34.040       253
34.060       300
34.080       360
34.100       303
34.120       303
34.140       317
34.160       303
34.180       260
34.200       230
34.220       227
34.240       173
34.260       177
34.280       223
34.300       153
34.320       177
34.340       160
34.360       120
34.380        97
34.400       147
34.420       173
34.440       100
34.460       103
34.480        97
34.500        97
34.520       127
34.540       103
34.560        80
34.580       103
34.600       147
34.620        93
34.640       123
34.660        83
34.680       117
34.700       110
34.720        90
34.740        83
34.760       113
34.780       113
34.800       160
34.820       127
34.840       120
34.860       190
34.880       127
34.900        97
34.920       147
34.940        97
34.960       120
34.980       137
35.000       150
35.020       190
35.040       163
35.060       223
35.080       297
35.100       357
35.120       530
35.140       650
35.160       680
35.180       756
35.200       696
35.220       440
35.240       397
35.260       373
35.280       343
35.300       237
35.320       143
35.340       100
35.360        90
35.380       117
35.400       130
35.420       113
35.440        80
35.460       107
35.480        93
35.500        87
35.520        43
35.540       110
35.560        73
35.580       107
35.600        63
35.620        80
35.640       103
35.660       107
35.680       110
35.700        80
35.720        87
35.740       107
35.760        97
35.780        87
35.800        90
35.820        80
35.840        87
35.860       100
35.880        93
35.900        63
35.920        90
35.940        77
35.960       100
35.980        80
36.000        73
36.020       103
36.040        97
36.060       140
36.080        93
36.100        70
36.120        83
36.140        77
36.160        83
36.180        70
36.200       107
36.220       130
36.240        80
36.260       120
36.280       107
36.300        77
36.320        97
36.340        87
36.360        83
36.380        97
36.400        70
36.420        90
36.440       127
36.460       150
36.480       113
36.500       103
36.520       137
36.540       130
36.560       113
36.580       127
36.600       120
36.620       110
36.640       127
36.660       140
36.680        87
36.700        77
36.720       113
36.740       100
36.760       110
36.780        90
36.800        97
36.820       113
36.840       110
36.860       120
36.880       123
36.900        93
36.920        93
36.940       100
36.960       130
36.980       123
37.000        83
37.020        67
37.040       120
37.060       103
37.080       107
37.100       100
37.120       110
37.140       117
37.160       130
37.180        63
37.200        93
37.220       117
37.240        70
37.260        97
37.280        87
37.300       110
37.320       137
37.340       120
37.360       130
37.380       103
37.400       160
37.420       127
37.440       143
37.460       140
37.480       127
37.500       103
37.520       140
37.540       100
37.560       110
37.580       103
37.600       110
37.620       120
37.640       137
37.660       103
37.680       190
37.700       163
37.720       160
37.740       177
37.760       243
37.780       270
37.800       207
37.820       197
37.840       247
37.860       253
37.880       240
37.900       180
37.920       187
37.940       157
37.960       123
37.980       140
38.000       193
38.020       147
38.040       150
38.060       190
38.080       117
38.100       213
38.120       177
38.140       183
38.160       183
38.180       150
38.200       143
38.220       170
38.240       137
38.260       167
38.280       173
38.300       180
38.320       207
38.340       260
38.360       257
38.380       267
38.400       250
38.420       350
38.440       423
38.460       480
38.480       633
38.500       673
38.520       980
38.540      1006
38.560      1386
38.580      1829
38.600      2512
38.620      2972
38.640      3925
38.660      4505
38.680      4918
38.700      5371
38.720      5068
38.740      5225
38.760      4661
38.780      3945
38.800      3375
38.820      3082
38.840      2316
38.860      1646
38.880      1409
38.900      1060
38.920       713
38.940       536
38.960       486
38.980       436
39.000       297
39.020       280
39.040       250
39.060       237
39.080       230
39.100       197
39.120       210
39.140       173
39.160       187
39.180       177
39.200       117
39.220       190
39.240       127
39.260       107
39.280       133
39.300       163
39.320       177
39.340       137
39.360       113
39.380       140
39.400        90
39.420       143
39.440       113
39.460       123
39.480        97
39.500       130
39.520        97
39.540       103
39.560       117
39.580        90
39.600       103
39.620       137
39.640       137
39.660        93
39.680       110
39.700       113
39.720       153
39.740       127
39.760       147
39.780       150
39.800       137
39.820       123
39.840       137
39.860       150
39.880       153
39.900       170
39.920       147
39.940       107
39.960       167
39.980       147
40.000       143
40.020       130
40.040       120
40.060       127
40.080       147
40.100        87
40.120       110
40.140       120
40.160        80
40.180       103
40.200       100
40.220       127
40.240        93
40.260       133
40.280       117
40.300        97
40.320       147
40.340        80
40.360        87
40.380        77
40.400       120
40.420       110
40.440        60
40.460        80
40.480       117
40.500        90
40.520        90
40.540        77
40.560        97
40.580       103
40.600        90
40.620        87
40.640       107
40.660        80
40.680        63
40.700        80
40.720       133
40.740        93
40.760       133
40.780        67
40.800        67
40.820       140
40.840        83
40.860       113
40.880        70
40.900       130
40.920       120
40.940       103
40.960        80
40.980       110
41.000       100
41.020        97
41.040        70
41.060        93
41.080       113
41.100        70
41.120        83
41.140        90
41.160       147
41.180       103
41.200       100
41.220        83
41.240       113
41.260       127
41.280        87
41.300       117
41.320        83
41.340        93
41.360       107
41.380        97
41.400        83
41.420        93
41.440        60
41.460        93
41.480        90
41.500        90
41.520        67
41.540        83
41.560       140
41.580       117
41.600        93
41.620       140
41.640       180
41.660       203
41.680       177
41.700       190
41.720       187
41.740       113
41.760       150
41.780       130
41.800       133
41.820       110
41.840       123
41.860       147
41.880       113
41.900        90
41.920        83
41.940        90
41.960       110
41.980        87
42.000        93
42.020        90
42.040        87
42.060        77
42.080       110
42.100        80
42.120       107
42.140       120
42.160        93
42.180        93
42.200        90
42.220       133
42.240        70
42.260        67
42.280       110
42.300        80
42.320       107
42.340        70
42.360       107
42.380        73
42.400        67
42.420        77
42.440        87
42.460        87
42.480        80
42.500        83
42.520        90
42.540        40
42.560        60
42.580       107
42.600        73
42.620       110
42.640        80
42.660       100
42.680        90
42.700        83
42.720       113
42.740        93
42.760        80
42.780        63
42.800        93
42.820       123
42.840        90
42.860        97
42.880       107
42.900        70
42.920       110
42.940        70
42.960        77
42.980        97
43.000        70
43.020       120
43.040       100
43.060       120
43.080       103
43.100       143
43.120       130
43.140       133
43.160       130
43.180       170
43.200       140
43.220       183
43.240       163
43.260       193
43.280       267
43.300       293
43.320       367
43.340       460
43.360       583
43.380       506
43.400       433
43.420       367
43.440       373
43.460       333
43.480       353
43.500       310
43.520       150
43.540       163
43.560       110
43.580        87
43.600        73
43.620        67
43.640        73
43.660        97
43.680       107
43.700       113
43.720       127
43.740        73
43.760       113
43.780        83
43.800        77
43.820        77
43.840        83
43.860        70
43.880        67
43.900        73
43.920        53
43.940        90
43.960        80
43.980        90
44.000        77
44.020        67
44.040        53
44.060        77
44.080        77
44.100        80
44.120        90
44.140        77
44.160        80
44.180        87
44.200        67
44.220        93
44.240        70
44.260        70
44.280        73
44.300        50
44.320        87
44.340        70
44.360       107
44.380        73
44.400        60
44.420        87
44.440        67
44.460        67
44.480        83
44.500        60
44.520        87
44.540       113
44.560       127
44.580        83
44.600        70
44.620       103
44.640        83
44.660        63
44.680       103
44.700        70
44.720       100
44.740        97
44.760        93
44.780        77
44.800        63
44.820        70
44.840        90
44.860        90
44.880       103
44.900       100
44.920        97
44.940        93
44.960       127
44.980        93
45.000       127
45.020       120
45.040       117
45.060       117
45.080       117
45.100       120
45.120       120
45.140       120
45.160        90
45.180        83
45.200       143
45.220       113
45.240       123
45.260        63
45.280        53
45.300        80
45.320        80
45.340        87
45.360       103
45.380        53
45.400        90
45.420       107
45.440       103
45.460        70
45.480        70
45.500        77
45.520        73
45.540        70
45.560        50
45.580        77
45.600        47
45.620        93
45.640        93
45.660        87
45.680       100
45.700        90
45.720        93
45.740        70
45.760        60
45.780        83
45.800        67
45.820        70
45.840       103
45.860        67
45.880        83
45.900        97
45.920        87
45.940        83
45.960        83
45.980        80
46.000       110
46.020        90
46.040        70
46.060        93
46.080        63
46.100        93
46.120        80
46.140        80
46.160        87
46.180        93
46.200        77
46.220        87
46.240        70
46.260        60
46.280        70
46.300        53
46.320        67
46.340        80
46.360        97
46.380        67
46.400        80
46.420        63
46.440        73
46.460        70
46.480        87
46.500        63
46.520       117
46.540        77
46.560        93
46.580        90
46.600        73
46.620       100
46.640        47
46.660        57
46.680        47
46.700        57
46.720        63
46.740        93
46.760        60
46.780        77
46.800        97
46.820        57
46.840        67
46.860       103
46.880        77
46.900        77
46.920        77
46.940        90
46.960        87
46.980        87
47.000        57
47.020        47
47.040        70
47.060        70
47.080        53
47.100        67
47.120        70
47.140        43
47.160        87
47.180       107
47.200        73
47.220        67
47.240        53
47.260        77
47.280        87
47.300        60
47.320        67
47.340        60
47.360        90
47.380        57
47.400        70
47.420        53
47.440        97
47.460        87
47.480        67
47.500        67
47.520        67
47.540        63
47.560        43
47.580        70
47.600        77
47.620        87
47.640        60
47.660        53
47.680        70
47.700        37
47.720        60
47.740        43
47.760        73
47.780        63
47.800        90
47.820        50
47.840        53
47.860        53
47.880        80
47.900        63
47.920        63
47.940        87
47.960        90
47.980        67
48.000        83
48.020        83
48.040        93
48.060        53
48.080        57
48.100        50
48.120        80
48.140        57
48.160        57
48.180        57
48.200        87
48.220        57
48.240        60
48.260        57
48.280        60
48.300        70
48.320        90
48.340        63
48.360        83
48.380        73
48.400        87
48.420        43
48.440        63
48.460        60
48.480        67
48.500        63
48.520        67
48.540        87
48.560        53
48.580        63
48.600        97
48.620       103
48.640       113
48.660       103
48.680        53
48.700        97
48.720        77
48.740        77
48.760        80
48.780       113
48.800        87
48.820       120
48.840        90
48.860       137
48.880        67
48.900        83
48.920        50
48.940        97
48.960        73
48.980        80
49.000        80
49.020       110
49.040        80
49.060        60
49.080        80
49.100        80
49.120        50
49.140        70
49.160        73
49.180        67
49.200        90
49.220        73
49.240        77
49.260        63
49.280        40
49.300        87
49.320        70
49.340       107
49.360        77
49.380        70
49.400       117
49.420        53
49.440        70
49.460        97
49.480        77
49.500        60
49.520        80
49.540        70
49.560        87
49.580        83
49.600        93
49.620        57
49.640       113
49.660        53
49.680        70
49.700        80
49.720        87
49.740        90
49.760        70
49.780        67
49.800        77
49.820        47
49.840        90
49.860        80
49.880        60
49.900        67
49.920        73
49.940        53
49.960        60
49.980        83
50.000       120
50.020        77
50.040        87
50.060        80
50.080        70
50.100       107
50.120       117
50.140        70
50.160        93
50.180        73
50.200        83
50.220        87
50.240        97
50.260        73
50.280        80
50.300        77
50.320        60
50.340        43
50.360        77
50.380        83
50.400       130
50.420        77
50.440       103
50.460        80
50.480        53
50.500        57
50.520        80
50.540        77
50.560        90
50.580        70
50.600        90
50.620        83
50.640        53
50.660        43
50.680        67
50.700        47
50.720        83
50.740        70
50.760        63
50.780        33
50.800        80
50.820        63
50.840        63
50.860        57
50.880        83
50.900        43
50.920        83
50.940        50
50.960        63
50.980        93
51.000        80
51.020        80
51.040        47
51.060        63
51.080        67
51.100        37
51.120       120
51.140        60
51.160        73
51.180        73
51.200        67
51.220        77
51.240        70
51.260        57
51.280        60
51.300       107
51.320        73
51.340        57
51.360        67
51.380        70
51.400        53
51.420        90
51.440        83
51.460        70
51.480        60
51.500        70
51.520        67
51.540        53
51.560        87
51.580       100
51.600        57
51.620        70
51.640        63
51.660       103
51.680        80
51.700        83
51.720        70
51.740        77
51.760        50
51.780        87
51.800        87
51.820        93
51.840       107
51.860       103
51.880        90
51.900       103
51.920        77
51.940        87
51.960       113
51.980        90
52.000       100
52.020       103
52.040        73
52.060        93
52.080        77
52.100        87
52.120        60
52.140       110
52.160        70
52.180        70
52.200        63
52.220        83
52.240        87
52.260        60
52.280        73
52.300        53
52.320        77
52.340        97
52.360        93
52.380        70
52.400        97
52.420        70
52.440       123
52.460        87
52.480       130
52.500       217
52.520       267
52.540       263
52.560       393
52.580       480
52.600       363
52.620       293
52.640       203
52.660       187
52.680       190
52.700       243
52.720       283
52.740       213
52.760       167
52.780       130
52.800        93
52.820        83
52.840        60
52.860        60
52.880        67
52.900        70
52.920        67
52.940        63
52.960        53
52.980       100
53.000        50
53.020        83
53.040        67
53.060        67
53.080        57
53.100        57
53.120        57
53.140        57
53.160        87
53.180        70
53.200        63
53.220        63
53.240        67
53.260        67
53.280        73
53.300        60
53.320        57
53.340        60
53.360        73
53.380        80
53.400        90
53.420        53
53.440        67
53.460        87
53.480        80
53.500        57
53.520        63
53.540        70
53.560        70
53.580        53
53.600        77
53.620        70
53.640        77
53.660       107
53.680        93
53.700        60
53.720        83
53.740        60
53.760        57
53.780        57
53.800        63
53.820        80
53.840        70
53.860        77
53.880        63
53.900        77
53.920        77
53.940        40
53.960        50
53.980       117
54.000        77
54.020        73
54.040        47
54.060        63
54.080        53
54.100        67
54.120        90
54.140        70
54.160        80
54.180        87
54.200        70
54.220       103
54.240        97
54.260        97
54.280        77
54.300        53
54.320        87
54.340        83
54.360        60
54.380        73
54.400       107
54.420        70
54.440        53
54.460        67
54.480        93
54.500        73
54.520        77
54.540        77
54.560        63
54.580        77
54.600        90
54.620        73
54.640        60
54.660        97
54.680        83
54.700       113
54.720        93
54.740        57
54.760        93
54.780        83
54.800        97
54.820        70
54.840       103
54.860        93
54.880       117
54.900       110
54.920       103
54.940       110
54.960        83
54.980       107
55.000        80
55.020       100
55.040        80
55.060        60
55.080       103
55.100        97
55.120       110
55.140        70
55.160       100
55.180       127
55.200        73
55.220        90
55.240        83
55.260        70
55.280        93
55.300       107
55.320       103
55.340        97
55.360       120
55.380       110
55.400       113
55.420       120
55.440       147
55.460       173
55.480       213
55.500       187
55.520       160
55.540       170
55.560       247
55.580       263
55.600       270
55.620       287
55.640       413
55.660       480
55.680       540
55.700       676
55.720       780
55.740       800
55.760      1103
55.780      1299
55.800      1443
55.820      1673
55.840      1803
55.860      1879
55.880      1953
55.900      1866
55.920      1809
55.940      1659
55.960      1506
55.980      1513
56.000      1273
56.020      1309
56.040      1180
56.060       980
56.080       883
56.100       663
56.120       660
56.140       553
56.160       440
56.180       380
56.200       340
56.220       257
56.240       233
56.260       207
56.280       213
56.300       140
56.320       163
56.340       130
56.360       133
56.380       167
56.400       167
56.420       170
56.440       117
56.460       133
56.480        93
56.500       103
56.520       120
56.540       103
56.560        93
56.580       100
56.600       107
56.620        73
56.640       100
56.660        90
56.680       100
56.700        80
56.720       100
56.740        93
56.760        77
56.780        77
56.800        93
56.820       103
56.840       137
56.860       120
56.880       110
56.900        93
56.920       100
56.940       157
56.960        73
56.980        93
57.000        77
57.020        97
57.040        70
57.060        90
57.080        70
57.100        90
57.120        70
57.140       100
57.160        53
57.180        87
57.200        97
57.220       110
57.240       103
57.260       113
57.280        83
57.300       123
57.320       127
57.340       120
57.360       157
57.380       227
57.400       237
57.420       373
57.440       473
57.460       710
57.480      1100
57.500      1409
57.520      1473
57.540      1213
57.560       873
57.580       573
57.600       506
57.620       586
57.640       750
57.660       736
57.680       746
57.700       603
57.720       367
57.740       293
57.760       190
57.780       150
57.800       123
57.820       100
57.840       120
57.860        93
57.880        77
57.900        80
57.920        53
57.940        80
57.960       100
57.980        77
58.000        53
58.020        53
58.040        50
58.060       107
58.080        73
58.100       107
58.120        57
58.140        97
58.160        87
58.180        90
58.200        50
58.220        83
58.240       107
58.260        70
58.280        63
58.300        83
58.320        70
58.340        63
58.360       100
58.380        90
58.400        43
58.420        67
58.440        70
58.460        70
58.480        97
58.500        80
58.520        67
58.540        93
58.560        40
58.580        73
58.600        57
58.620        67
58.640       103
58.660        87
58.680        57
58.700        67
58.720        67
58.740        60
58.760        77
58.780        80
58.800        57
58.820        80
58.840        73
58.860        67
58.880        57
58.900        67
58.920        50
58.940        57
58.960        73
58.980        57
59.000        60
59.020        93
59.040       110
59.060        87
59.080        70
59.100        70
59.120        80
59.140        77
59.160        73
59.180        97
59.200        63
59.220        47
59.240        83
59.260       100
59.280        67
59.300        73
59.320        47
59.340        77
59.360        53
59.380        90
59.400        83
59.420        73
59.440       103
59.460        60
59.480        67
59.500        47
59.520        53
59.540        67
59.560       117
59.580        90
59.600       100
59.620       103
59.640        63
59.660        93
59.680        63
59.700        90
59.720        97
59.740        83
59.760       107
59.780        90
59.800        87
59.820         3
59.840         0
59.860         0
59.880         0
59.900         0
59.920         0
59.940         3
59.960         0
59.980         0
60.000         0
