20.000         0
20.020         0
20.040         0
20.060         0
20.080         0
20.100         0
20.120         0
20.140         0
20.160         0
20.180         0
20.200       120
20.220       273
20.240       277
20.260       203
20.280       230
20.300       280
20.320       260
20.340       270
20.360       250
20.380       243
20.400       220
20.420       217
20.440       200
20.460       247
20.480       250
20.500       247
20.520       233
20.540       313
20.560       240
20.580       243
20.600       250
20.620       270
20.640       267
20.660       267
20.680       327
20.700       247
20.720       213
20.740       207
20.760       233
20.780       250
20.800       227
20.820       263
20.840       210
20.860       223
20.880       220
20.900       273
20.920       233
20.940       217
20.960       240
20.980       210
21.000       247
21.020       243
21.040       240
21.060       193
21.080       237
21.100       257
21.120       207
21.140       237
21.160       240
21.180       197
21.200       230
21.220       193
21.240       207
21.260       230
21.280       287
21.300       260
21.320       213
21.340       197
21.360       250
21.380       223
21.400       197
21.420       227
21.440       200
21.460       210
21.480       203
21.500       157
21.520       230
21.540       187
21.560       250
21.580       173
21.600       193
21.620       250
21.640       243
21.660       240
21.680       233
21.700       227
21.720       230
21.740       227
21.760       240
21.780       247
21.800       227
21.820       287
21.840       217
21.860       253
21.880       257
21.900       283
21.920       243
21.940       287
21.960       213
21.980       307
22.000       317
22.020       377
22.040       443
22.060       596
22.080       630
22.100       563
22.120       480
22.140       520
22.160       390
22.180       363
22.200       380
22.220       257
22.240       220
22.260       283
22.280       230
22.300       230
22.320       237
22.340       233
22.360       253
22.380       197
22.400       197
22.420       193
22.440       240
22.460       197
22.480       210
22.500       180
22.520       240
22.540       203
22.560       197
22.580       217
22.600       177
22.620       190
22.640       190
22.660       203
22.680       207
22.700       240
22.720       167
22.740       197
22.760       243
22.780       173
22.800       223
22.820       243
22.840       237
22.860       220
22.880       200
22.900       200
22.920       160
22.940       223
22.960       237
22.980       207
23.000       187
23.020       210
23.040       257
23.060       260
23.080       210
23.100       193
23.120       183
23.140       167
23.160       213
23.180       217
23.200       203
23.220       190
23.240       220
23.260       187
23.280       207
23.300       200
23.320       203
23.340       193
23.360       193
23.380       230
23.400       163
23.420       207
23.440       180
23.460       153
23.480       190
23.500       217
23.520       200
23.540       203
23.560       227
23.580       200
23.600       210
23.620       193
23.640       193
23.660       223
23.680       220
23.700       227
23.720       167
23.740       197
23.760       190
23.780       173
23.800       183
23.820       207
23.840       210
23.860       190
23.880       210
23.900       130
23.920       143
23.940       197
23.960       180
23.980       157
24.000       190
24.020       163
24.040       173
24.060       163
24.080       220
24.100       183
24.120       197
24.140       167
24.160       160
24.180       183
24.200       190
24.220       170
24.240       167
24.260       173
24.280       227
24.300       230
24.320       160
24.340       190
24.360       207
24.380       167
24.400       190
24.420       177
24.440       213
24.460       157
24.480       177
24.500       153
24.520       187
24.540       187
24.560       113
24.580       233
24.600       103
24.620       190
24.640       200
24.660       180
24.680       210
24.700       183
24.720       203
24.740       180
24.760       180
24.780       177
24.800       153
24.820       187
24.840       193
24.860       183
24.880       167
24.900       183
24.920       137
24.940       147
24.960       183
24.980       217
25.000       193
25.020       193
25.040       187
25.060       170
25.080       163
25.100       167
25.120       183
25.140       253
25.160       267
25.180       193
25.200       187
25.220       160
25.240       187
25.260       217
25.280       157
25.300       170
25.320       190
25.340       197
25.360       163
25.380       120
25.400       170
25.420       163
25.440       177
25.460       167
25.480       183
25.500       140
25.520       203
25.540       243
25.560       207
25.580       220
25.600       253
25.620       307
25.640       230
25.660       247
25.680       200
25.700       227
25.720       220
25.740       157
25.760       183
25.780       187
25.800       170
25.820       177
25.840       147
25.860       143
25.880       160
25.900       133
25.920       167
25.940       127
25.960       177
25.980       150
26.000       177
26.020       180
26.040       150
26.060       190
26.080       183
26.100       160
26.120       157
26.140       150
26.160       203
26.180       140
26.200       160
26.220       137
26.240       143
26.260       193
26.280       217
26.300       183
26.320       197
26.340       130
26.360       197
26.380       200
26.400       193
26.420       203
26.440       140
26.460       150
26.480       200
26.500       153
26.520       180
26.540       213
26.560       167
26.580       180
26.600       160
26.620       163
26.640       163
26.660       163
26.680       207
26.700       167
26.720       210
26.740       200
26.760       153
26.780       223
26.800       103
26.820       163
26.840       120
26.860       120
26.880       103
26.900       107
26.920       127
26.940       213
26.960       133
26.980       170
27.000       167
27.020       123
27.040       127
27.060       150
27.080       130
27.100       143
27.120       140
27.140       127
27.160       123
27.180       120
27.200       150
27.220       153
27.240       133
27.260       160
27.280       133
27.300       147
27.320       160
27.340       130
27.360       153
27.380       160
27.400       153
27.420       180
27.440       147
27.460       133
27.480       107
27.500       150
27.520       153
27.540       153
27.560       107
27.580       140
27.600       133
27.620       100
27.640       127
27.660       147
27.680       147
27.700       140
27.720       137
27.740        97
27.760       177
27.780       187
27.800       130
27.820       157
27.840       117
27.860       133
27.880       140
27.900       147
27.920       150
27.940       130
27.960       147
27.980       113
28.000       173
28.020       160
28.040       160
28.060       133
28.080       153
28.100       137
28.120       157
28.140       153
28.160       137
28.180       130
28.200       120
28.220       147
28.240       160
28.260       130
28.280       120
28.300       140
28.320       140
28.340       113
28.360       123
28.380       123
28.400       127
28.420       137
28.440       130
28.460       147
28.480       110
28.500       120
28.520       123
28.540       107
28.560       140
28.580       140
28.600       150
28.620       160
28.640       200
28.660       207
28.680       170
28.700       163
28.720       200
28.740       157
28.760       193
28.780       193
28.800       150
28.820       173
28.840       163
28.860       160
28.880       143
28.900       130
28.920       133
28.940       140
28.960       190
28.980       110
29.000       123
29.020       127
29.040       137
29.060       140
29.080       117
29.100       137
29.120       133
29.140       143
29.160       127
29.180       137
29.200       137
29.220        90
29.240       200
29.260       140
29.280       133
29.300       137
29.320       100
29.340       147
29.360        90
29.380       117
29.400        90
29.420       143
29.440       123
29.460       133
29.480       173
29.500       147
29.520       100
29.540       127
29.560       137
29.580       120
29.600       123
29.620       120
29.640       127
29.660       127
29.680       130
29.700        83
29.720        97
29.740       123
29.760       103
29.780       163
29.800       113
29.820       100
29.840       100
29.860       147
29.880       120
29.900       147
29.920       100
29.940       110
29.960       100
29.980       123
30.000       130
30.020       143
30.040       137
30.060       160
30.080        83
30.100        90
30.120       120
30.140       133
30.160       150
30.180       133
30.200       123
30.220       140
30.240       137
30.260       137
30.280        70
30.300       153
30.320       103
30.340       140
30.360       103
30.380        93
30.400       130
30.420       163
30.440       120
30.460        73
30.480       110
30.500       120
30.520        87
30.540       110
30.560       123
30.580       107
30.600       150
30.620       137
30.640       150
30.660       113
30.680       133
30.700        87
30.720       140
30.740       130
30.760       133
30.780        83
30.800       100
30.820       133
30.840       100
30.860       143
30.880       147
30.900        87
30.920        67
30.940       130
30.960       133
30.980       133
31.000       150
31.020       117
31.040       123
31.060       147
31.080       117
31.100       153
31.120       113
31.140       133
31.160       147
31.180       120
31.200       150
31.220       167
31.240       183
31.260       167
31.280       243
31.300       190
31.320       213
31.340       237
31.360       253
31.380       203
31.400       323
31.420       310
31.440       243
31.460       210
31.480       203
31.500       200
31.520       210
31.540       227
31.560       220
31.580       223
31.600       160
31.620       163
31.640       160
31.660       177
31.680       150
31.700       187
31.720       167
31.740       193
31.760       140
31.780       180
31.800       167
31.820       147
31.840       107
31.860       133
31.880       160
31.900        80
31.920       137
31.940       140
31.960       110
31.980       133
32.000       120
32.020       100
32.040        93
32.060       157
32.080       113
32.100       110
32.120       143
32.140       133
32.160       103
32.180        93
32.200       103
32.220       140
32.240       153
32.260       113
32.280       137
32.300       170
32.320       113
32.340       153
32.360       107
32.380       113
32.400        73
32.420       107
32.440       130
32.460       113
32.480       103
32.500       110
32.520        90
32.540       100
32.560        90
32.580       113
32.600        97
32.620        90
32.640        83
32.660       110
32.680       133
32.700        80
32.720        90
32.740        93
32.760        97
32.780       143
32.800        93
32.820        73
32.840        93
32.860        80
32.880       103
32.900        87
32.920        93
32.940       113
32.960       117
32.980        70
33.000        97
33.020        83
33.040        97
33.060       100
33.080       100
33.100        93
33.120       123
33.140        97
33.160        87
33.180       127
33.200       110
33.220        77
33.240       120
33.260        90
33.280        87
33.300       117
33.320        63
33.340       120
33.360       107
33.380       103
33.400       110
33.420        93
33.440        77
33.460       103
33.480       107
33.500        97
33.520       107
33.540       143
33.560       107
33.580       100
33.600       117
33.620        90
33.640        60
33.660        67
33.680       117
33.700       127
33.720       113
33.740        77
33.760       110
33.780       143
33.800       130
33.820       113
33.840       127
33.860       153
33.880       140
33.900        93
33.920       127
33.940       143
33.960       133
33.980       193
34.000       103
34.020       167
34.040       150
34.060       190
34.080       157
34.100       173
34.120       190
34.140       163
34.160       167
34.180       150
34.200       177
34.220       157
34.240       153
34.260       143
34.280       137
34.300       157
34.320       103
34.340       127
34.360       130
34.380       123
34.400        80
34.420       107
34.440       123
34.460        87
34.480        97
34.500       107
34.520        87
34.540        97
34.560       147
34.580        93
34.600       100
34.620       120
34.640        70
34.660        73
34.680       100
34.700        83
34.720        90
34.740       110
34.760       120
34.780       113
34.800       113
34.820       117
34.840       137
34.860       123
34.880       143
34.900       100
34.920       130
34.940       110
34.960        93
34.980       123
35.000       167
35.020       140
35.040       210
35.060       233
35.080       330
35.100       293
35.120       417
35.140       496
35.160       620
35.180       656
35.200       543
35.220       533
35.240       440
35.260       423
35.280       323
35.300       237
35.320       203
35.340       160
35.360       140
35.380        97
35.400       100
35.420       120
35.440        97
35.460       120
35.480       100
35.500       113
35.520       113
35.540        77
35.560       123
35.580        80
35.600        63
35.620        63
35.640       113
35.660        87
35.680        70
35.700       107
35.720        97
35.740        97
35.760        70
35.780        73
35.800       103
35.820        90
35.840       103
35.860        67
35.880        97
35.900        67
35.920        80
35.940       110
35.960       100
35.980        73
36.000       107
36.020        93
36.040        83
36.060       110
36.080        97
36.100       127
36.120        83
36.140        97
36.160        93
36.180       100
36.200       100
36.220       103
36.240        93
36.260        87
36.280        73
36.300       123
36.320        70
36.340        77
36.360        83
36.380        93
36.400        93
36.420        87
36.440       100
36.460       117
36.480       133
36.500       120
36.520       130
36.540        83
36.560       123
36.580        87
36.600       113
36.620       173
36.640       100
36.660       110
36.680       130
36.700       100
36.720        93
36.740       107
36.760        87
36.780       120
36.800        97
36.820       107
36.840       103
36.860        97
36.880        97
36.900        77
36.920       137
36.940       113
36.960       110
36.980       103
37.000        93
37.020       107
37.040        87
37.060       133
37.080       130
37.100        93
37.120        93
37.140       113
37.160       100
37.180       113
37.200       130
37.220        93
37.240       113
37.260        70
37.280        90
37.300        97
37.320       100
37.340       113
37.360        83
37.380       110
37.400        70
37.420       120
37.440       113
37.460        77
37.480       113
37.500       100
37.520       133
37.540        83
37.560       103
37.580        97
37.600        90
37.620       100
37.640       103
37.660       123
37.680       107
37.700       133
37.720       143
37.740       150
37.760       213
37.780       190
37.800       253
37.820       200
37.840       213
37.860       197
37.880       147
37.900       143
37.920       177
37.940       153
37.960       133
37.980       143
38.000       113
38.020       123
38.040       140
38.060       113
38.080       183
38.100       150
38.120       120
38.140       103
38.160       137
38.180       137
38.200       157
38.220       157
38.240       173
38.260       170
38.280       143
38.300       160
38.320       163
38.340       140
38.360       160
38.380       137
38.400       170
38.420       190
38.440       287
38.460       307
38.480       407
38.500       420
38.520       620
38.540       730
38.560       916
38.580      1246
38.600      1576
38.620      2009
38.640      2272
38.660      3025
38.680      3375
38.700      3502
38.720      3978
38.740      3768
38.760      3639
38.780      3335
38.800      2852
38.820      2432
38.840      2126
38.860      1596
38.880      1240
38.900       820
38.920       703
38.940       453
38.960       407
38.980       353
39.000       240
39.020       220
39.040       227
39.060       187
39.080       183
39.100       183
39.120       177
39.140       140
39.160       153
39.180       147
39.200       180
39.220       140
39.240       133
39.260       100
39.280       113
39.300        80
39.320        93
39.340       123
39.360       113
39.380       133
39.400        97
39.420        87
39.440        73
39.460       113
39.480        93
39.500        80
39.520       113
39.540        83
39.560       107
39.580       113
39.600       133
39.620        97
39.640       107
39.660       110
39.680       103
39.700       120
39.720        90
39.740       153
39.760        93
39.780       150
39.800       117
39.820       110
39.840       147
39.860       143
39.880       123
39.900        97
39.920        80
39.940        93
39.960       133
39.980       123
40.000       107
40.020        67
40.040       100
40.060       107
40.080       113
40.100        77
40.120        73
40.140        87
40.160        77
40.180        97
40.200        83
40.220       113
40.240        63
40.260        87
40.280        87
40.300        77
40.320       113
40.340       110
40.360       113
40.380       103
40.400        77
40.420       110
40.440       123
40.460        73
40.480       117
40.500       110
40.520        63
40.540       100
40.560       110
40.580       103
40.600       117
40.620       100
40.640        73
40.660       103
40.680        77
40.700       100
40.720        77
40.740        80
40.760       100
40.780        87
40.800        90
40.820        97
40.840        90
40.860        77
40.880        67
40.900        57
40.920        83
40.940        87
40.960        70
40.980        87
41.000        90
41.020        63
41.040       103
41.060       137
41.080        83
41.100        70
41.120       100
41.140       100
41.160       103
41.180        83
41.200        73
41.220        97
41.240        93
41.260        70
41.280       117
41.300       113
41.320        87
41.340        90
41.360       123
41.380        80
41.400        67
41.420       103
41.440        70
41.460        77
41.480        73
41.500       133
41.520        90
41.540       103
41.560       113
41.580        83
41.600       147
41.620       143
41.640       120
41.660       147
41.680       183
41.700       167
41.720       177
41.740       163
41.760       177
41.780       130
41.800       120
41.820       167
41.840       160
41.860       103
41.880        83
41.900       107
41.920        93
41.940       103
41.960        60
41.980       110
42.000        73
42.020       117
42.040       113
42.060        93
42.080        87
42.100        87
42.120        67
42.140       103
42.160       100
42.180        63
42.200       127
42.220        67
42.240        97
42.260        87
42.280        77
42.300        63
42.320        60
42.340        43
42.360        53
42.380        77
42.400        53
42.420       110
42.440        67
42.460        53
42.480        87
42.500        73
42.520        93
42.540        87
42.560        67
42.580        57
42.600        83
42.620        67
42.640        57
42.660        83
42.680        57
42.700        37
42.720        77
42.740        87
42.760        90
42.780        63
42.800        70
42.820        77
42.840       117
42.860        40
42.880        63
42.900        93
42.920        83
42.940        60
42.960       107
42.980        63
43.000        87
43.020        87
43.040        80
43.060        73
43.080        73
43.100        80
43.120       147
43.140       127
43.160       103
43.180       130
43.200        97
43.220       133
43.240       113
43.260       183
43.280       220
43.300       280
43.320       363
43.340       387
43.360       486
43.380       576
43.400       523
43.420       440
43.440       407
43.460       287
43.480       293
43.500       297
43.520       277
43.540       180
43.560       147
43.580       143
43.600       120
43.620        90
43.640        83
43.660       110
43.680        80
43.700        93
43.720        80
43.740        80
43.760       117
43.780       103
43.800       100
43.820        90
43.840       113
43.860        63
43.880        57
43.900        77
43.920        63
43.940        77
43.960        93
43.980        87
44.000        67
44.020        83
44.040        57
44.060        80
44.080        83
44.100        50
44.120        57
44.140        77
44.160        87
44.180       107
44.200        87
44.220       100
44.240        93
44.260        70
44.280       100
44.300        90
44.320        87
44.340        83
44.360        93
44.380        87
44.400        73
44.420        67
44.440        97
44.460       103
44.480        80
44.500       110
44.520        70
44.540        93
44.560       120
44.580       107
44.600        97
44.620        77
44.640        93
44.660       123
44.680        87
44.700       100
44.720       160
44.740       203
44.760       207
44.780       203
44.800       213
44.820       273
44.840       313
44.860       377
44.880       496
44.900       693
44.920       833
44.940      1016
44.960      1313
44.980      1423
45.000      1543
45.020      1583
45.040      1539
45.060      1389
45.080      1349
45.100      1196
45.120      1130
45.140       993
45.160       793
45.180       713
45.200       503
45.220       436
45.240       357
45.260       253
45.280       187
45.300       220
45.320       133
45.340       150
45.360       117
45.380       160
45.400       123
45.420       113
45.440        93
45.460        97
45.480       137
45.500        83
45.520        70
45.540        67
45.560        97
45.580       120
45.600       107
45.620        77
45.640       103
45.660        77
45.680        77
45.700        67
45.720        87
45.740        83
45.760       127
45.780       107
45.800        87
45.820        83
45.840        83
45.860        67
45.880        87
45.900        87
45.920        93
45.940        80
45.960        70
45.980        87
46.000        77
46.020        80
46.040        67
46.060        53
46.080        63
46.100        93
46.120        53
46.140       117
46.160       100
46.180        93
46.200       110
46.220        93
46.240        70
46.260        83
46.280        70
46.300       113
46.320        60
46.340        90
46.360        97
46.380        60
46.400        70
46.420        40
46.440       107
46.460       113
46.480        93
46.500        67
46.520        43
46.540        60
46.560        43
46.580        63
46.600        57
46.620        53
46.640        57
46.660        90
46.680        67
46.700        83
46.720        87
46.740        93
46.760        73
46.780        87
46.800        90
46.820        80
46.840        63
46.860       110
46.880        50
46.900        73
46.920        77
46.940        43
46.960        53
46.980        50
47.000        70
47.020        60
47.040        97
47.060        57
47.080        63
47.100        80
47.120        67
47.140        73
47.160        77
47.180        73
47.200        93
47.220        63
47.240       103
47.260        70
47.280        80
47.300        73
47.320        53
47.340        63
47.360        57
47.380        73
47.400        60
47.420        60
47.440        83
47.460        67
47.480        63
47.500        60
47.520        73
47.540        83
47.560       103
47.580        63
47.600        77
47.620        70
47.640        70
47.660        73
47.680        70
47.700        57
47.720        67
47.740        70
47.760        73
47.780        43
47.800        57
47.820        73
47.840        63
47.860        53
47.880        87
47.900        53
47.920        83
47.940        50
47.960        77
47.980        60
48.000        73
48.020        53
48.040        43
48.060        67
48.080        73
48.100        57
48.120        67
48.140        77
48.160        77
48.180        47
48.200        80
48.220        70
48.240        50
48.260        60
48.280        43
48.300        63
48.320        53
48.340        93
48.360        63
48.380        57
48.400        83
48.420        70
48.440        53
48.460        70
48.480        60
48.500        77
48.520        77
48.540        80
48.560        70
48.580        80
48.600        60
48.620        63
48.640        93
48.660        77
48.680        87
48.700        57
48.720       127
48.740        67
48.760       100
48.780        83
48.800        80
48.820        83
48.840        87
48.860       100
48.880       100
48.900       123
48.920        83
48.940       100
48.960       107
48.980        53
49.000        97
49.020        57
49.040        57
49.060        67
49.080        87
49.100        67
49.120        60
49.140        77
49.160        57
49.180        70
49.200        90
49.220        90
49.240        93
49.260        93
49.280        93
49.300        53
49.320       103
49.340        63
49.360        87
49.380        47
49.400        73
49.420        57
49.440        83
49.460        57
49.480        63
49.500        53
49.520        43
49.540        87
49.560        77
49.580        93
49.600        80
49.620        97
49.640        70
49.660       110
49.680        80
49.700       147
49.720        70
49.740        90
49.760        80
49.780        70
49.800        60
49.820        60
49.840        53
49.860        60
49.880        83
49.900        87
49.920        60
49.940        63
49.960        90
49.980        83
50.000        73
50.020        73
50.040        73
50.060        83
50.080        70
50.100       103
50.120        40
50.140        77
50.160        47
50.180       100
50.200        60
50.220        63
50.240        73
50.260        80
50.280        90
50.300        67
50.320        63
50.340        50
50.360        53
50.380        83
50.400        87
50.420        67
50.440        53
50.460        90
50.480        70
50.500        60
50.520        83
50.540        63
50.560        83
50.580        93
50.600        60
50.620        67
50.640        50
50.660        47
50.680        63
50.700        63
50.720       103
50.740        97
50.760        97
50.780        57
50.800        60
50.820        77
50.840        53
50.860        63
50.880        67
50.900        80
50.920        43
50.940        70
50.960        77
50.980        63
51.000        63
51.020        67
51.040        73
51.060        77
51.080        57
51.100        73
51.120        53
51.140        67
51.160        80
51.180        67
51.200        80
51.220        77
51.240        77
51.260        77
51.280        63
51.300        53
51.320        40
51.340        77
51.360        70
51.380        63
51.400        70
51.420        63
51.440        90
51.460        90
51.480        77
51.500        57
51.520        77
51.540        83
51.560        70
51.580        67
51.600        80
51.620        93
51.640        73
51.660        77
51.680        50
51.700        63
51.720        70
51.740        83
51.760        70
51.780        73
51.800        57
51.820        63
51.840        90
51.860        73
51.880        83
51.900        60
51.920        80
51.940        47
51.960        80
51.980        50
52.000        53
52.020       127
52.040        77
52.060        87
52.080        80
52.100        93
52.120        53
52.140        83
52.160        93
52.180        50
52.200        93
52.220        60
52.240        53
52.260        47
52.280        80
52.300        73
52.320        80
52.340        73
52.360        63
52.380        90
52.400        63
52.420        80
52.440        63
52.460       107
52.480        87
52.500       123
52.520       190
52.540       227
52.560       280
52.580       220
52.600       287
52.620       190
52.640       200
52.660       127
52.680       167
52.700       160
52.720       150
52.740       137
52.760       137
52.780        80
52.800        80
52.820       113
52.840        70
52.860        77
52.880       113
52.900        90
52.920        67
52.940        50
52.960        47
52.980        80
53.000        57
53.020        87
53.040        77
53.060        67
53.080        53
53.100        40
53.120        67
53.140        80
53.160        73
53.180        63
53.200        60
53.220        70
53.240        70
53.260        83
53.280        73
53.300        40
53.320       103
53.340        70
53.360        83
53.380        63
53.400        63
53.420        60
53.440        60
53.460        67
53.480        40
53.500       110
53.520        63
53.540        63
53.560        50
53.580        80
53.600        67
53.620        67
53.640        63
53.660        53
53.680        63
53.700        57
53.720        70
53.740        90
53.760        80
53.780        90
53.800        67
53.820        63
53.840        73
53.860        93
53.880        60
53.900        63
53.920        47
53.940        93
53.960        73
53.980        47
54.000        67
54.020        77
54.040       100
54.060        83
54.080        80
54.100        43
54.120        77
54.140        73
54.160        57
54.180        53
54.200        87
54.220        80
54.240        70
54.260        67
54.280        77
54.300        87
54.320        83
54.340        63
54.360        77
54.380        67
54.400        67
54.420        57
54.440        97
54.460        83
54.480        80
54.500        70
54.520        70
54.540        90
54.560        77
54.580        67
54.600        93
54.620        80
54.640        63
54.660        70
54.680       110
54.700        67
54.720        87
54.740        60
54.760        67
54.780        63
54.800        60
54.820        70
54.840        87
54.860        70
54.880        83
54.900        80
54.920       117
54.940        83
54.960        67
54.980        90
55.000        70
55.020       103
55.040        63
55.060        77
55.080        67
55.100        77
55.120       100
55.140        73
55.160        90
55.180        83
55.200        77
55.220        83
55.240        20
55.260        90
55.280        83
55.300       100
55.320        93
55.340        97
55.360        90
55.380        97
55.400       100
55.420       103
55.440        97
55.460       143
55.480       110
55.500       120
55.520       110
55.540       140
55.560       160
55.580       240
55.600       213
55.620       207
55.640       297
55.660       307
55.680       357
55.700       380
55.720       500
55.740       596
55.760       773
55.780       773
55.800       970
55.820      1146
55.840      1256
55.860      1373
55.880      1396
55.900      1479
55.920      1259
55.940      1203
55.960      1173
55.980      1100
56.000      1023
56.020      1036
56.040       860
56.060       803
56.080       806
56.100       613
56.120       520
56.140       453
56.160       400
56.180       277
56.200       280
56.220       320
56.240       203
56.260       170
56.280       137
56.300       160
56.320       133
56.340       133
56.360       110
56.380       130
56.400        97
56.420       123
56.440       120
56.460       117
56.480        87
56.500       100
56.520       103
56.540       120
56.560       100
56.580       107
56.600        97
56.620       123
56.640       100
56.660       103
56.680        87
56.700        87
56.720        80
56.740       103
56.760       110
56.780       117
56.800        97
56.820        87
56.840        63
56.860       107
56.880       110
56.900        70
56.920       103
56.940       133
56.960       113
56.980        77
57.000        93
57.020        90
57.040        90
57.060        53
57.080        83
57.100       100
57.120        63
57.140        97
57.160        90
57.180        83
57.200        97
57.220       113
57.240       113
57.260       137
57.280       107
57.300       120
57.320       107
57.340       150
57.360       163
57.380       167
57.400       207
57.420       333
57.440       430
57.460       700
57.480      1010
57.500      1313
57.520      1383
57.540      1553
57.560      1266
57.580      1053
57.600       693
57.620       536
57.640       560
57.660       690
57.680       726
57.700       776
57.720       686
57.740       463
57.760       250
57.780       153
57.800       143
57.820       127
57.840        73
57.860        77
57.880        73
57.900        67
57.920        90
57.940       100
57.960        77
57.980        80
58.000        90
58.020        57
58.040        60
58.060        80
58.080        67
58.100        87
58.120        80
58.140        50
58.160        40
58.180        60
58.200        60
58.220        73
58.240        67
58.260        70
58.280       103
58.300        60
58.320        67
58.340        87
58.360        90
58.380       103
58.400       100
58.420        47
58.440        80
58.460        43
58.480        83
58.500       100
58.520        50
58.540        63
58.560        53
58.580        67
58.600        87
58.620        70
58.640        67
58.660        80
58.680        87
58.700        47
58.720        63
58.740        80
58.760        90
58.780        80
58.800        57
58.820        53
58.840        67
58.860        63
58.880        67
58.900        57
58.920        67
58.940        83
58.960        47
58.980        57
59.000        70
59.020        80
59.040        57
59.060        67
59.080        53
59.100        63
59.120        53
59.140        80
59.160        77
59.180        50
59.200        33
59.220        53
59.240        83
59.260        67
59.280        80
59.300        50
59.320        77
59.340        53
59.360        73
59.380        93
59.400        70
59.420        87
59.440        63
59.460        53
59.480        53
59.500        80
59.520        80
59.540        77
59.560        60
59.580        73
59.600        77
59.620        73
59.640        57
59.660        73
59.680        83
59.700        83
59.720        80
59.740        60
59.760        90
59.780       100
59.800       120
59.820       100
59.840        90
59.860        77
59.880        83
59.900        87
59.920        90
59.940        70
59.960        37
59.980        63
60.000        93
