20.000       240
20.020       250
20.040       253
20.060       237
20.080       280
20.100       253
20.120       257
20.140       203
20.160       233
20.180       270
20.200       237
20.220       243
20.240       287
20.260       257
20.280       217
20.300       237
20.320       263
20.340       257
20.360       237
20.380       203
20.400       240
20.420       193
20.440       243
20.460       280
20.480       223
20.500       210
20.520       270
20.540       223
20.560       240
20.580       207
20.600       283
20.620       210
20.640       247
20.660       170
20.680       223
20.700       250
20.720       250
20.740       223
20.760       260
20.780       193
20.800       220
20.820       207
20.840       237
20.860       203
20.880       187
20.900       223
20.920       203
20.940       217
20.960       213
20.980       277
21.000       223
21.020       223
21.040       233
21.060       240
21.080       237
21.100       210
21.120       203
21.140       210
21.160       207
21.180       227
21.200       200
21.220       230
21.240       223
21.260       233
21.280       243
21.300       237
21.320       210
21.340       183
21.360       250
21.380       243
21.400       183
21.420       253
21.440       157
21.460       197
21.480       247
21.500       203
21.520       180
21.540       230
21.560       193
21.580       213
21.600       170
21.620       210
21.640       223
21.660       247
21.680       233
21.700       197
21.720       220
21.740       253
21.760       243
21.780       283
21.800       230
21.820       173
21.840       210
21.860       210
21.880       217
21.900       190
21.920       217
21.940       210
21.960       200
21.980       227
22.000       210
22.020       210
22.040       200
22.060       173
22.080       207
22.100       220
22.120       250
22.140       193
22.160       213
22.180       207
22.200       240
22.220       177
22.240       177
22.260       173
22.280       203
22.300       200
22.320       200
22.340       157
22.360       243
22.380       223
22.400       220
22.420       203
22.440       217
22.460       177
22.480       210
22.500       187
22.520       187
22.540       237
22.560       197
22.580       187
22.600       193
22.620       213
22.640       220
22.660       210
22.680       153
22.700       193
22.720       207
22.740       197
22.760       223
22.780       193
22.800       190
22.820       210
22.840       180
22.860       180
22.880       220
22.900       180
22.920       233
22.940       203
22.960       223
22.980       173
23.000       190
23.020       180
23.040       230
23.060       157
23.080       183
23.100       233
23.120       223
23.140       197
23.160       210
23.180       190
23.200       153
23.220       227
23.240       197
23.260       240
23.280       217
23.300       220
23.320       173
23.340       200
23.360       247
23.380       203
23.400       217
23.420       200
23.440       153
23.460       193
23.480       167
23.500       173
23.520       190
23.540       203
23.560       197
23.580       157
23.600       220
23.620       210
23.640       153
23.660       163
23.680       150
23.700       183
23.720       220
23.740       197
23.760       207
23.780       200
23.800       190
23.820       193
23.840       200
23.860       180
23.880       160
23.900       170
23.920       213
23.940       170
23.960       143
23.980       160
24.000       233
24.020       190
24.040       203
24.060       170
24.080       163
24.100       160
24.120       183
24.140       227
24.160       170
24.180       180
24.200       140
24.220       187
24.240       173
24.260       213
24.280       160
24.300       167
24.320       203
24.340       180
24.360       193
24.380       180
24.400       170
24.420       160
24.440       150
24.460       170
24.480       207
24.500       143
24.520       180
24.540       210
24.560       157
24.580       153
24.600       177
24.620       167
24.640       177
24.660       210
24.680       143
24.700       153
24.720       170
24.740       197
24.760       173
24.780       180
24.800       130
24.820       147
24.840       190
24.860       150
24.880       193
24.900       173
24.920       173
24.940       197
24.960       213
24.980       150
25.000       190
25.020       143
25.040       200
25.060       150
25.080       170
25.100       163
25.120       150
25.140       180
25.160       143
25.180       177
25.200       157
25.220       143
25.240       170
25.260       200
25.280       193
25.300       213
25.320       170
25.340       187
25.360       200
25.380       207
25.400       223
25.420       210
25.440       170
25.460       180
25.480       223
25.500       200
25.520       180
25.540       180
25.560       147
25.580       180
25.600       180
25.620       153
25.640       123
25.660       173
25.680       160
25.700       210
25.720       160
25.740       193
25.760       183
25.780       177
25.800       160
25.820       170
25.840       180
25.860       150
25.880       173
25.900       153
25.920       140
25.940       167
25.960       160
25.980       170
26.000       183
26.020       237
26.040       183
26.060       157
26.080       177
26.100       180
26.120       163
26.140       123
26.160       180
26.180       187
26.200       150
26.220       147
26.240       167
26.260       147
26.280       180
26.300       180
26.320       180
26.340       117
26.360       137
26.380       157
26.400       180
26.420       120
26.440       157
26.460       143
26.480       133
26.500       170
26.520       123
26.540       187
26.560       143
26.580       143
26.600       147
26.620       127
26.640       167
26.660       117
26.680       123
26.700       110
26.720       163
26.740       137
26.760       123
26.780       137
26.800       157
26.820       200
26.840       160
26.860       153
26.880       150
26.900       187
26.920       150
26.940       183
26.960       157
26.980       193
27.000       167
27.020       133
27.040       197
27.060       177
27.080       143
27.100       170
27.120       123
27.140       147
27.160       120
27.180       157
27.200       170
27.220       160
27.240       153
27.260       167
27.280       133
27.300       130
27.320       190
27.340       137
27.360       170
27.380       160
27.400       150
27.420       180
27.440       163
27.460       167
27.480       110
27.500       143
27.520       177
27.540       130
27.560       137
27.580       163
27.600       133
27.620       180
27.640       173
27.660       163
27.680       130
27.700       157
27.720       137
27.740       147
27.760       153
27.780       167
27.800       187
27.820       110
27.840       143
27.860       127
27.880       217
27.900       160
27.920       147
27.940       167
27.960       200
27.980       163
28.000       143
28.020       190
28.040       157
28.060       143
28.080       157
28.100       160
28.120       133
28.140       167
28.160       170
28.180       160
28.200       137
28.220       163
28.240       157
28.260       170
28.280       120
28.300        93
28.320       160
28.340       130
28.360       157
28.380       167
28.400       150
28.420       143
28.440       150
28.460       133
28.480       147
28.500       157
28.520       140
28.540       137
28.560       130
28.580       143
28.600       160
28.620       130
28.640       147
28.660       173
28.680       173
28.700       170
28.720       110
28.740       190
28.760       187
28.780       173
28.800       147
28.820       153
28.840       120
28.860       130
28.880       133
28.900       127
28.920       163
28.940       180
28.960       127
28.980       127
29.000       183
29.020       127
29.040       117
29.060       140
29.080       147
29.100       150
29.120       103
29.140       133
29.160       117
29.180       150
29.200       150
29.220       153
29.240       110
29.260       127
29.280       157
29.300       160
29.320       127
29.340       147
29.360       180
29.380        90
29.400       120
29.420       147
29.440       150
29.460       140
29.480       113
29.500       190
29.520       113
29.540        90
29.560       157
29.580       140
29.600       127
29.620       137
29.640       150
29.660       123
29.680       147
29.700       127
29.720       197
29.740       130
29.760       140
29.780       130
29.800       107
29.820       127
29.840       190
29.860       130
29.880        93
29.900       137
29.920       173
29.940       183
29.960       173
29.980       153
30.000       180
30.020       183
30.040       143
30.060       140
30.080       213
30.100       150
30.120       170
30.140       160
30.160       210
30.180       127
30.200       117
30.220       153
30.240       140
30.260       130
30.280       180
30.300       143
30.320       163
30.340       157
30.360       137
30.380       140
30.400       203
30.420       197
30.440       167
30.460       177
30.480       203
30.500       183
30.520       227
30.540       193
30.560       180
30.580       197
30.600       230
30.620       233
30.640       210
30.660       300
30.680       397
30.700       333
30.720       430
30.740       486
30.760       556
30.780       703
30.800       923
30.820      1126
30.840      1256
30.860      1566
30.880      2206
30.900      2742
30.920      3412
30.940      4392
30.960      5085
30.980      5694
31.000      5918
31.020      6111
31.040      5581
31.060      4901
31.080      3982
31.100      3265
31.120      2372
31.140      1833
31.160      1266
31.180       830
31.200       693
31.220       563
31.240       503
31.260       436
31.280       320
31.300       243
31.320       330
31.340       257
31.360       310
31.380       200
31.400       257
31.420       217
31.440       240
31.460       257
31.480       227
31.500       193
31.520       210
31.540       200
31.560       227
31.580       167
31.600       190
31.620       170
31.640       160
31.660       143
31.680       143
31.700       190
31.720       210
31.740       180
31.760       200
31.780       137
31.800       170
31.820       163
31.840       113
31.860       110
31.880       150
31.900       153
31.920       117
31.940       137
31.960       140
31.980       123
32.000        83
32.020       123
32.040       107
32.060       153
32.080       157
32.100       170
32.120       137
32.140       160
32.160       160
32.180       147
32.200       177
32.220       163
32.240       163
32.260       120
32.280       163
32.300       177
32.320       150
32.340       140
32.360        93
32.380       150
32.400       120
32.420       170
32.440       157
32.460       133
32.480       150
32.500       140
32.520       160
32.540       177
32.560       120
32.580       107
32.600       133
32.620        93
32.640        90
32.660       123
32.680        97
32.700       107
32.720       147
32.740       123
32.760       100
32.780       153
32.800       127
32.820        97
32.840       117
32.860       173
32.880       127
32.900       147
32.920        90
32.940       153
32.960       107
32.980       133
33.000       160
33.020       137
33.040       137
33.060       137
33.080       110
33.100       137
33.120       110
33.140       123
33.160       127
33.180       137
33.200       123
33.220       120
33.240       103
33.260       110
33.280       143
33.300       110
33.320        87
33.340       130
33.360       107
33.380       123
33.400       100
33.420       110
33.440       137
33.460       113
33.480       120
33.500       127
33.520       123
33.540       120
33.560       143
33.580       157
33.600       123
33.620       110
33.640       153
33.660        90
33.680       127
33.700       117
33.720        93
33.740       110
33.760       110
33.780       110
33.800       143
33.820       127
33.840       100
33.860       110
33.880        97
33.900        97
33.920       137
33.940       130
33.960        93
33.980       100
34.000       143
34.020        90
34.040       100
34.060        87
34.080       147
34.100       103
34.120       123
34.140       120
34.160        87
34.180        83
34.200       110
34.220       137
34.240        83
34.260       103
34.280       123
34.300       153
34.320        93
34.340       113
34.360       103
34.380        97
34.400       117
34.420        83
34.440       100
34.460       157
34.480       110
34.500       117
34.520       120
34.540       147
34.560        97
34.580       117
34.600       107
34.620       100
34.640       120
34.660       107
34.680        73
34.700       100
34.720       100
34.740        67
34.760       110
34.780       140
34.800       107
34.820       110
34.840        93
34.860       163
34.880       120
34.900       117
34.920        97
34.940       103
34.960       150
34.980       133
35.000       183
35.020       163
35.040       173
35.060       200
35.080       200
35.100       267
35.120       247
35.140       340
35.160       473
35.180       463
35.200       277
35.220       230
35.240       290
35.260       273
35.280       200
35.300       160
35.320       140
35.340       133
35.360       127
35.380       117
35.400       117
35.420        97
35.440        90
35.460       100
35.480        97
35.500       103
35.520       140
35.540        83
35.560        70
35.580        93
35.600       107
35.620       130
35.640        70
35.660       107
35.680       137
35.700       107
35.720       113
35.740       107
35.760       100
35.780        73
35.800        83
35.820       113
35.840       140
35.860        97
35.880        77
35.900        73
35.920       120
35.940       100
35.960        87
35.980       123
36.000        90
36.020       100
36.040       110
36.060       120
36.080        90
36.100       113
36.120       143
36.140        87
36.160        87
36.180       107
36.200       113
36.220        80
36.240       117
36.260       127
36.280       130
36.300       103
36.320       127
36.340       117
36.360       147
36.380        93
36.400        83
36.420        60
36.440       137
36.460       117
36.480       130
36.500       110
36.520       117
36.540        90
36.560       113
36.580        93
36.600        73
36.620       127
36.640       130
36.660       100
36.680        53
36.700        97
36.720       123
36.740        77
36.760        93
36.780        73
36.800        83
36.820       120
36.840       143
36.860        73
36.880       107
36.900        97
36.920       123
36.940       140
36.960       123
36.980        93
37.000       103
37.020       117
37.040        93
37.060        90
37.080       107
37.100        73
37.120        97
37.140       113
37.160       130
37.180       113
37.200        57
37.220        97
37.240        57
37.260       127
37.280        83
37.300       107
37.320       107
37.340        97
37.360       100
37.380        57
37.400       100
37.420        90
37.440       103
37.460        80
37.480       117
37.500        90
37.520        73
37.540        83
37.560        87
37.580        77
37.600       120
37.620       113
37.640       123
37.660       103
37.680        77
37.700       117
37.720       143
37.740       107
37.760       243
37.780       237
37.800       220
37.820       270
37.840       147
37.860       213
37.880       227
37.900       257
37.920       170
37.940       107
37.960       103
37.980        77
38.000        77
38.020       110
38.040       137
38.060       117
38.080       113
38.100       127
38.120       130
38.140       180
38.160       183
38.180       173
38.200       237
38.220       203
38.240       207
38.260       217
38.280       193
38.300       190
38.320       133
38.340       153
38.360       183
38.380       207
38.400       143
38.420       113
38.440       140
38.460       150
38.480       137
38.500        97
38.520       120
38.540       100
38.560       100
38.580       113
38.600        87
38.620       100
38.640        80
38.660        90
38.680        87
38.700        73
38.720       107
38.740        73
38.760        83
38.780        77
38.800        67
38.820        70
38.840        47
38.860        47
38.880        77
38.900        93
38.920       100
38.940        87
38.960        93
38.980       103
39.000       117
39.020        93
39.040        83
39.060       100
39.080        93
39.100        70
39.120        60
39.140        87
39.160        77
39.180        73
39.200        90
39.220        93
39.240        83
39.260        90
39.280       103
39.300       103
39.320        70
39.340       100
39.360        57
39.380        83
39.400        73
39.420        93
39.440       100
39.460        63
39.480        57
39.500        67
39.520        77
39.540        87
39.560        97
39.580        93
39.600        67
39.620       110
39.640        70
39.660        90
39.680        53
39.700       103
39.720        63
39.740        93
39.760        50
39.780        73
39.800        53
39.820        80
39.840        87
39.860        73
39.880        83
39.900        97
39.920       113
39.940        73
39.960        53
39.980       107
40.000       107
40.020        67
40.040        97
40.060       103
40.080        87
40.100        93
40.120        83
40.140        77
40.160        73
40.180        77
40.200        90
40.220       107
40.240       103
40.260        47
40.280        60
40.300        93
40.320        80
40.340        73
40.360        90
40.380       153
40.400       110
40.420        93
40.440        80
40.460        83
40.480        57
40.500        93
40.520       107
40.540        57
40.560       107
40.580        70
40.600        70
40.620       100
40.640        60
40.660        83
40.680       107
40.700        67
40.720        77
40.740       117
40.760        70
40.780        67
40.800        57
40.820        63
40.840        43
40.860        80
40.880        50
40.900        77
40.920        90
40.940        83
40.960        40
40.980        80
41.000        80
41.020        57
41.040        97
41.060        90
41.080        70
41.100        70
41.120        77
41.140        97
41.160        80
41.180        97
41.200        60
41.220        73
41.240        73
41.260        80
41.280        87
41.300        63
41.320        67
41.340       120
41.360        70
41.380        50
41.400        93
41.420        63
41.440        53
41.460        70
41.480        70
41.500        80
41.520        87
41.540        83
41.560        87
41.580        73
41.600       130
41.620       103
41.640       140
41.660       160
41.680       137
41.700       200
41.720       140
41.740       110
41.760        97
41.780       110
41.800       147
41.820       140
41.840       103
41.860       103
41.880        87
41.900       117
41.920        53
41.940        80
41.960        60
41.980        60
42.000        67
42.020        77
42.040        90
42.060        73
42.080        87
42.100        67
42.120        77
42.140        73
42.160        73
42.180        87
42.200        90
42.220        87
42.240        37
42.260        80
42.280       100
42.300        93
42.320        60
42.340        97
42.360        83
42.380        70
42.400        73
42.420        63
42.440        73
42.460        87
42.480        97
42.500       103
42.520        90
42.540        60
42.560        80
42.580        57
42.600        73
42.620        53
42.640        80
42.660        90
42.680        90
42.700       103
42.720        97
42.740        63
42.760        63
42.780        90
42.800        87
42.820        60
42.840        80
42.860        83
42.880        93
42.900        80
42.920        87
42.940        60
42.960        80
42.980        63
43.000        63
43.020        83
43.040        83
43.060        87
43.080       100
43.100        37
43.120       103
43.140        73
43.160       103
43.180        97
43.200        97
43.220       120
43.240        97
43.260       137
43.280       180
43.300       170
43.320       217
43.340       393
43.360       520
43.380       493
43.400       473
43.420       320
43.440       213
43.460       290
43.480       343
43.500       277
43.520       223
43.540       163
43.560       110
43.580        97
43.600        83
43.620       113
43.640       107
43.660        90
43.680        90
43.700        77
43.720        60
43.740        70
43.760        80
43.780       113
43.800        90
43.820        77
43.840        53
43.860        67
43.880        80
43.900        70
43.920        63
43.940        73
43.960        73
43.980        80
44.000        60
44.020        60
44.040        93
44.060        73
44.080        80
44.100        87
44.120       107
44.140        93
44.160        90
44.180        70
44.200        90
44.220       117
44.240       103
44.260        67
44.280       107
44.300        90
44.320        83
44.340       103
44.360        97
44.380       137
44.400       107
44.420       100
44.440       133
44.460       110
44.480       133
44.500       153
44.520       113
44.540        97
44.560        93
44.580       117
44.600       117
44.620       133
44.640       103
44.660        93
44.680       123
44.700        73
44.720        73
44.740        87
44.760        60
44.780       100
44.800        63
44.820        70
44.840        97
44.860        83
44.880        73
44.900        87
44.920        93
44.940       100
44.960        70
44.980        63
45.000        87
45.020        97
45.040        70
45.060        77
45.080        53
45.100        63
45.120        93
45.140        80
45.160        77
45.180        83
45.200        80
45.220        63
45.240        57
45.260        77
45.280        53
45.300        87
45.320        77
45.340        93
45.360        67
45.380        77
45.400        73
45.420        83
45.440       100
45.460        67
45.480        53
45.500        47
45.520        60
45.540        80
45.560        87
45.580        60
45.600       100
45.620        63
45.640        87
45.660        83
45.680        60
45.700        63
45.720        60
45.740        87
45.760        67
45.780        60
45.800        63
45.820        63
45.840        97
45.860        97
45.880        70
45.900        53
45.920        77
45.940        63
45.960        90
45.980        73
46.000        53
46.020        90
46.040        57
46.060        77
46.080        67
46.100        83
46.120        97
46.140       103
46.160        77
46.180        80
46.200        83
46.220        73
46.240        53
46.260        90
46.280        90
46.300        80
46.320       103
46.340        90
46.360        77
46.380        97
46.400        70
46.420        57
46.440        93
46.460        80
46.480        87
46.500        80
46.520       100
46.540        53
46.560        57
46.580        67
46.600       120
46.620        77
46.640        50
46.660        90
46.680        60
46.700        60
46.720        73
46.740        47
46.760        50
46.780       107
46.800        57
46.820        60
46.840        77
46.860        73
46.880        80
46.900        70
46.920        57
46.940        87
46.960        90
46.980        63
47.000        80
47.020        60
47.040        60
47.060        60
47.080        70
47.100        93
47.120        80
47.140        83
47.160        60
47.180        63
47.200        73
47.220        57
47.240        53
47.260        73
47.280        73
47.300        63
47.320        63
47.340        83
47.360        60
47.380        77
47.400        60
47.420        40
47.440        27
47.460        57
47.480        83
47.500        83
47.520        97
47.540        77
47.560        47
47.580        73
47.600        47
47.620        73
47.640        73
47.660        87
47.680        53
47.700        73
47.720        53
47.740        73
47.760        90
47.780        43
47.800        43
47.820        60
47.840       100
47.860        57
47.880        47
47.900        50
47.920        77
47.940        50
47.960        63
47.980        47
48.000        73
48.020        70
48.040        73
48.060       107
48.080        53
48.100        73
48.120        73
48.140        83
48.160        60
48.180        73
48.200        83
48.220        93
48.240        87
48.260        67
48.280        43
48.300        77
48.320        90
48.340        83
48.360        80
48.380        77
48.400        53
48.420        90
48.440        83
48.460        73
48.480        50
48.500        50
48.520        63
48.540        57
48.560        93
48.580        53
48.600        87
48.620        93
48.640        87
48.660        53
48.680        83
48.700        70
48.720        70
48.740        47
48.760        57
48.780        53
48.800        63
48.820        77
48.840        77
48.860        43
48.880        53
48.900        80
48.920        97
48.940        67
48.960        77
48.980        73
49.000        97
49.020        60
49.040        70
49.060        63
49.080        77
49.100        67
49.120        63
49.140        77
49.160        73
49.180        83
49.200        63
49.220        97
49.240        70
49.260        77
49.280        90
49.300       107
49.320        87
49.340        67
49.360        73
49.380        63
49.400       103
49.420       100
49.440        73
49.460        83
49.480        63
49.500        97
49.520        83
49.540        70
49.560        97
49.580        67
49.600        50
49.620        73
49.640        77
49.660        57
49.680        63
49.700        67
49.720        77
49.740        57
49.760        50
49.780        93
49.800        57
49.820        57
49.840        87
49.860        87
49.880        63
49.900        80
49.920        80
49.940        77
49.960        80
49.980       100
50.000        67
50.020        87
50.040        87
50.060        60
50.080        80
50.100        77
50.120        53
50.140        77
50.160        83
50.180        73
50.200        70
50.220       107
50.240        63
50.260        67
50.280        63
50.300        70
50.320        63
50.340        87
50.360        80
50.380        87
50.400        87
50.420        73
50.440        73
50.460        60
50.480        83
50.500        73
50.520        93
50.540        63
50.560        83
50.580        73
50.600        70
50.620        63
50.640        50
50.660        60
50.680        57
50.700        73
50.720        83
50.740        70
50.760        97
50.780        70
50.800       103
50.820        87
50.840        60
50.860        70
50.880        67
50.900        73
50.920        60
50.940        57
50.960        60
50.980        63
51.000        50
51.020        63
51.040        73
51.060        57
51.080        67
51.100        87
51.120        67
51.140        70
51.160        70
51.180        80
51.200        63
51.220       103
51.240        77
51.260        80
51.280        60
51.300        73
51.320        73
51.340        57
51.360        43
51.380       107
51.400        57
51.420        87
51.440        77
51.460        73
51.480        90
51.500        67
51.520        93
51.540        67
51.560        87
51.580        63
51.600        67
51.620        93
51.640        63
51.660        83
51.680        37
51.700        73
51.720        97
51.740        53
51.760        60
51.780        70
51.800        57
51.820        73
51.840        63
51.860        77
51.880        60
51.900        97
51.920       100
51.940        77
51.960        67
51.980        40
52.000        77
52.020        53
52.040        63
52.060        73
52.080        63
52.100        90
52.120        73
52.140        73
52.160        90
52.180        73
52.200        67
52.220        73
52.240        80
52.260        77
52.280        73
52.300        60
52.320        70
52.340        63
52.360        60
52.380       100
52.400        90
52.420        70
52.440        67
52.460        87
52.480        87
52.500       100
52.520       123
52.540       190
52.560       240
52.580       207
52.600       143
52.620       150
52.640       117
52.660       107
52.680       120
52.700       137
52.720       140
52.740       137
52.760       103
52.780        97
52.800        47
52.820        53
52.840        93
52.860        70
52.880        73
52.900        67
52.920        67
52.940        80
52.960        43
52.980        83
53.000        90
53.020        97
53.040        77
53.060        73
53.080        73
53.100        67
53.120        50
53.140        70
53.160        57
53.180        70
53.200        80
53.220        60
53.240        77
53.260        70
53.280        73
53.300        97
53.320        77
53.340        73
53.360        90
53.380        87
53.400        50
53.420        73
53.440       103
53.460        90
53.480        83
53.500       107
53.520       100
53.540        67
53.560        57
53.580        63
53.600        93
53.620       100
53.640        80
53.660       107
53.680        77
53.700        53
53.720        70
53.740        97
53.760        73
53.780        77
53.800        83
53.820        70
53.840        97
53.860       103
53.880       100
53.900        90
53.920       103
53.940       147
53.960        77
53.980        50
54.000        63
54.020        80
54.040        83
54.060        93
54.080        67
54.100       107
54.120       110
54.140        70
54.160        93
54.180        83
54.200        87
54.220        73
54.240        83
54.260        97
54.280        67
54.300       103
54.320        63
54.340       110
54.360        93
54.380        67
54.400        87
54.420        77
54.440       103
54.460       130
54.480       130
54.500        93
54.520       110
54.540       113
54.560        93
54.580        87
54.600       107
54.620       100
54.640       127
54.660       107
54.680       107
54.700       107
54.720       173
54.740       140
54.760       173
54.780       217
54.800       223
54.820       227
54.840       277
54.860       333
54.880       400
54.900       420
54.920       496
54.940       613
54.960       713
54.980      1033
55.000      1273
55.020      1349
55.040      1709
55.060      2023
55.080      2063
55.100      2492
55.120      2482
55.140      2472
55.160      2419
55.180      2502
55.200      2389
55.220      2182
55.240      1909
55.260      1833
55.280      1716
55.300      1569
55.320      1203
55.340      1126
55.360       996
55.380       776
55.400       596
55.420       566
55.440       460
55.460       290
55.480       223
55.500       267
55.520       180
55.540       150
55.560       217
55.580       160
55.600       107
55.620       150
55.640       117
55.660       110
55.680       120
55.700       123
55.720       137
55.740       133
55.760       117
55.780       120
55.800        77
55.820       113
55.840       103
55.860       113
55.880        97
55.900       103
55.920       110
55.940       130
55.960        93
55.980        90
56.000        87
56.020        73
56.040       133
56.060       107
56.080       113
56.100        63
56.120       100
56.140       100
56.160        93
56.180       110
56.200        93
56.220        70
56.240       107
56.260       130
56.280        73
56.300        90
56.320        67
56.340        90
56.360       103
56.380        63
56.400        63
56.420       100
56.440       107
56.460       107
56.480       100
56.500       107
56.520       117
56.540       110
56.560       110
56.580       100
56.600       107
56.620       103
56.640       107
56.660        60
56.680        93
56.700        80
56.720        97
56.740        77
56.760       103
56.780        67
56.800        97
56.820       107
56.840        90
56.860        60
56.880        73
56.900       100
56.920        97
56.940        93
56.960        77
56.980       130
57.000        67
57.020        83
57.040        53
57.060        90
57.080        77
57.100        90
57.120        97
57.140        87
57.160        80
57.180        97
57.200       127
57.220       120
57.240       103
57.260        83
57.280       120
57.300       137
57.320       147
57.340       123
57.360       153
57.380       143
57.400       147
57.420       293
57.440       260
57.460       407
57.480       576
57.500       843
57.520       780
57.540       700
57.560       493
57.580       360
57.600       253
57.620       300
57.640       347
57.660       450
57.680       433
57.700       300
57.720       317
57.740       200
57.760       160
57.780        90
57.800        93
57.820        83
57.840        77
57.860        93
57.880       127
57.900        87
57.920       107
57.940        90
57.960        90
57.980        73
58.000        73
58.020        77
58.040        73
58.060        90
58.080        40
58.100        93
58.120        90
58.140        67
58.160        73
58.180        63
58.200        77
58.220        57
58.240        73
58.260        80
58.280        93
58.300       100
58.320        73
58.340        80
58.360       103
58.380        80
58.400        90
58.420        63
58.440        73
58.460        87
58.480        77
58.500        70
58.520        53
58.540        87
58.560        73
58.580        67
58.600        83
58.620        70
58.640        67
58.660        83
58.680        53
58.700        63
58.720        77
58.740        83
58.760        67
58.780        77
58.800       123
58.820        63
58.840        87
58.860        73
58.880        73
58.900        87
58.920        80
58.940        87
58.960        73
58.980        90
59.000        97
59.020        67
59.040        40
59.060        63
59.080        83
59.100        93
59.120        47
59.140        63
59.160        80
59.180        90
59.200        77
59.220        90
59.240        70
59.260        63
59.280        80
59.300        57
59.320        87
59.340        93
59.360       100
59.380        80
59.400        57
59.420        47
59.440        77
59.460        87
59.480        73
59.500        63
59.520        83
59.540        73
59.560        77
59.580        77
59.600        67
59.620        83
59.640        77
59.660        60
59.680       100
59.700        80
59.720        70
59.740        70
59.760        63
59.780        83
59.800       110
59.820        10
59.840         0
59.860         3
59.880         0
59.900         0
59.920         0
59.940         0
59.960         0
59.980         0
60.000         0
