20.000       223
20.020       257
20.040       237
20.060       247
20.080       233
20.100       213
20.120       247
20.140       263
20.160       230
20.180       203
20.200       243
20.220       190
20.240       253
20.260       253
20.280       220
20.300       227
20.320       210
20.340       197
20.360       253
20.380       260
20.400       217
20.420       247
20.440       203
20.460       193
20.480       227
20.500       257
20.520       213
20.540       213
20.560       243
20.580       247
20.600       237
20.620       237
20.640       237
20.660       230
20.680       197
20.700       217
20.720       230
20.740       253
20.760       227
20.780       240
20.800       217
20.820       200
20.840       170
20.860       260
20.880       227
20.900       223
20.920       250
20.940       200
20.960       187
20.980       260
21.000       190
21.020       243
21.040       197
21.060       200
21.080       270
21.100       247
21.120       203
21.140       213
21.160       237
21.180       187
21.200       183
21.220       233
21.240       183
21.260       193
21.280       223
21.300       210
21.320       237
21.340       243
21.360       237
21.380       223
21.400       203
21.420       207
21.440       270
21.460       200
21.480       193
21.500       237
21.520       207
21.540       213
21.560       200
21.580       187
21.600       233
21.620       207
21.640       220
21.660       203
21.680       183
21.700       160
21.720       223
21.740       243
21.760       167
21.780       200
21.800       210
21.820       180
21.840       233
21.860       207
21.880       240
21.900       200
21.920       200
21.940       197
21.960       233
21.980       173
22.000       227
22.020       220
22.040       193
22.060       207
22.080       210
22.100       220
22.120       233
22.140       210
22.160       210
22.180       213
22.200       233
22.220       217
22.240       210
22.260       247
22.280       243
22.300       250
22.320       210
22.340       190
22.360       260
22.380       260
22.400       270
22.420       263
22.440       307
22.460       273
22.480       243
22.500       273
22.520       310
22.540       230
22.560       200
22.580       270
22.600       187
22.620       203
22.640       247
22.660       210
22.680       230
22.700       197
22.720       193
22.740       213
22.760       220
22.780       233
22.800       247
22.820       167
22.840       193
22.860       210
22.880       173
22.900       187
22.920       177
22.940       180
22.960       163
22.980       217
23.000       220
23.020       210
23.040       150
23.060       197
23.080       157
23.100       207
23.120       173
23.140       210
23.160       207
23.180       193
23.200       193
23.220       203
23.240       193
23.260       160
23.280       230
23.300       200
23.320       177
23.340       170
23.360       183
23.380       217
23.400       247
23.420       163
23.440       183
23.460       217
23.480       150
23.500       147
23.520       233
23.540       133
23.560       170
23.580       173
23.600       167
23.620       143
23.640       120
23.660       170
23.680       137
23.700       197
23.720       143
23.740       173
23.760       160
23.780       183
23.800       153
23.820       130
23.840       170
23.860       183
23.880       193
23.900       157
23.920       140
23.940       177
23.960       193
23.980       130
24.000       133
24.020       203
24.040       140
24.060       187
24.080       203
24.100       157
24.120       170
24.140       180
24.160       150
24.180       167
24.200       177
24.220       193
24.240       143
24.260       173
24.280       207
24.300       220
24.320       197
24.340       130
24.360       160
24.380       137
24.400       140
24.420       163
24.440       170
24.460       213
24.480       160
24.500       150
24.520       133
24.540       193
24.560       177
24.580       200
24.600       130
24.620       153
24.640       133
24.660       150
24.680       147
24.700       210
24.720       197
24.740       140
24.760       130
24.780       147
24.800       137
24.820       120
24.840       190
24.860       157
24.880       150
24.900       190
24.920       130
24.940       173
24.960       173
24.980       153
25.000       150
25.020       140
25.040       160
25.060       163
25.080       170
25.100       140
25.120       147
25.140       187
25.160       137
25.180       137
25.200       197
25.220       127
25.240       167
25.260       147
25.280       160
25.300       153
25.320       167
25.340       143
25.360       137
25.380       197
25.400       150
25.420       167
25.440       160
25.460       153
25.480       140
25.500       123
25.520       143
25.540       153
25.560       173
25.580       180
25.600       113
25.620       123
25.640       137
25.660       130
25.680       183
25.700       113
25.720       173
25.740       147
25.760       123
25.780       160
25.800       143
25.820       147
25.840       150
25.860       167
25.880       137
25.900       127
25.920       100
25.940       187
25.960       133
25.980       153
26.000       117
26.020       163
26.040       153
26.060       167
26.080       120
26.100       113
26.120       150
26.140       113
26.160       167
26.180       143
26.200       153
26.220       157
26.240       147
26.260       133
26.280       117
26.300       130
26.320       130
26.340       130
26.360       147
26.380       207
26.400       130
26.420       140
26.440       120
26.460       137
26.480       157
26.500       177
26.520       160
26.540       183
26.560       110
26.580       167
26.600       147
26.620       173
26.640       163
26.660       147
26.680       123
26.700       143
26.720       137
26.740       140
26.760       143
26.780       163
26.800       170
26.820       137
26.840       120
26.860       100
26.880       113
26.900       133
26.920       133
26.940       130
26.960       160
26.980       167
27.000       140
27.020       130
27.040       160
27.060       123
27.080       150
27.100       133
27.120       133
27.140       113
27.160       110
27.180       150
27.200       140
27.220        90
27.240       110
27.260       163
27.280        87
27.300       143
27.320       133
27.340       123
27.360       100
27.380       117
27.400       163
27.420       110
27.440       133
27.460       157
27.480       133
27.500       127
27.520       143
27.540       143
27.560        97
27.580       147
27.600       137
27.620       130
27.640       140
27.660       113
27.680       157
27.700       177
27.720       183
27.740       120
27.760       107
27.780       130
27.800       133
27.820       147
27.840       137
27.860       110
27.880       137
27.900       133
27.920       100
27.940        97
27.960       147
27.980       103
28.000        97
28.020       140
28.040       117
28.060       130
28.080       130
28.100       110
28.120       113
28.140       100
28.160       147
28.180        73
28.200       103
28.220       127
28.240       120
28.260       137
28.280       147
28.300       130
28.320        93
28.340       117
28.360       133
28.380       100
28.400       140
28.420       150
28.440       107
28.460       100
28.480       123
28.500        90
28.520       113
28.540       110
28.560       133
28.580       137
28.600       137
28.620       127
28.640       140
28.660       130
28.680       150
28.700       123
28.720       117
28.740        87
28.760       123
28.780       137
28.800       110
28.820        77
28.840       110
28.860       120
28.880       127
28.900       123
28.920       117
28.940       130
28.960       140
28.980       107
29.000       117
29.020       113
29.040       127
29.060       137
29.080       123
29.100       133
29.120       107
29.140        87
29.160       107
29.180       103
29.200       153
29.220       103
29.240       100
29.260       117
29.280       117
29.300       123
29.320       127
29.340       117
29.360       123
29.380       117
29.400       110
29.420       110
29.440       120
29.460       140
29.480        60
29.500       130
29.520       120
29.540       117
29.560       120
29.580        97
29.600       100
29.620       127
29.640       107
29.660       123
29.680        80
29.700        97
29.720       130
29.740       120
29.760       110
29.780       170
29.800        97
29.820       113
29.840       143
29.860       127
29.880        90
29.900       103
29.920       113
29.940        90
29.960       113
29.980       120
30.000       127
30.020       120
30.040       123
30.060       107
30.080       100
30.100        93
30.120       113
30.140       117
30.160       120
30.180       123
30.200       147
30.220        93
30.240        90
30.260       127
30.280       113
30.300        83
30.320       120
30.340       133
30.360       120
30.380       133
30.400        97
30.420        90
30.440       107
30.460       127
30.480       140
30.500        93
30.520        87
30.540       113
30.560        97
30.580        87
30.600       107
30.620       120
30.640       120
30.660       123
30.680       133
30.700       107
30.720       117
30.740       123
30.760       123
30.780       123
30.800       163
30.820       127
30.840       140
30.860       157
30.880       143
30.900       137
30.920       147
30.940       197
30.960       133
30.980       137
31.000       123
31.020       133
31.040       160
31.060       173
31.080       173
31.100       147
31.120       140
31.140       157
31.160       107
31.180       123
31.200       170
31.220       163
31.240       123
31.260        93
31.280       130
31.300       147
31.320       117
31.340       127
31.360       150
31.380       150
31.400       163
31.420       147
31.440       140
31.460       147
31.480       147
31.500       170
31.520       163
31.540       157
31.560       220
31.580       170
31.600       213
31.620       253
31.640       270
31.660       233
31.680       297
31.700       323
31.720       357
31.740       347
31.760       436
31.780       460
31.800       546
31.820       560
31.840       646
31.860       840
31.880       956
31.900      1053
31.920      1253
31.940      1309
31.960      1359
31.980      1466
32.000      1269
32.020      1266
32.040      1130
32.060       966
32.080       813
32.100       610
32.120       453
32.140       347
32.160       290
32.180       207
32.200       173
32.220       173
32.240       140
32.260       163
32.280       127
32.300       113
32.320       120
32.340       123
32.360       183
32.380       180
32.400       113
32.420       160
32.440       150
32.460       110
32.480       107
32.500       120
32.520       130
32.540       120
32.560       113
32.580       123
32.600       130
32.620       117
32.640       117
32.660       100
32.680       113
32.700       123
32.720       140
32.740       117
32.760       113
32.780       117
32.800        93
32.820       117
32.840       103
32.860        83
32.880        97
32.900       187
32.920       107
32.940       117
32.960        93
32.980       130
33.000       147
33.020       163
33.040       140
33.060       113
33.080       120
33.100       150
33.120       117
33.140       183
33.160       140
33.180       163
33.200       163
33.220       160
33.240       193
33.260       173
33.280       153
33.300       180
33.320       180
33.340       143
33.360       207
33.380       167
33.400       187
33.420       173
33.440       183
33.460       177
33.480       207
33.500       247
33.520       163
33.540       213
33.560       197
33.580       273
33.600       210
33.620       210
33.640       257
33.660       260
33.680       233
33.700       263
33.720       253
33.740       283
33.760       263
33.780       280
33.800       327
33.820       323
33.840       360
33.860       363
33.880       440
33.900       400
33.920       550
33.940       550
33.960       656
33.980       836
34.000      1043
34.020      1309
34.040      1336
34.060      1693
34.080      2053
34.100      2539
34.120      3009
34.140      3552
34.160      3952
34.180      4681
34.200      5148
34.220      6224
34.240      7014
34.260      7720
34.280      8333
34.300      8413
34.320      8820
34.340      8976
34.360      8863
34.380      9123
34.400      8860
34.420      8577
34.440      8007
34.460      7154
34.480      6567
34.500      6294
34.520      5345
34.540      4675
34.560      4068
34.580      3549
34.600      2829
34.620      2536
34.640      2063
34.660      1803
34.680      1593
34.700      1216
34.720      1366
34.740      1053
34.760       916
34.780       750
34.800       736
34.820       600
34.840       513
34.860       553
34.880       463
34.900       483
34.920       387
34.940       390
34.960       353
34.980       327
35.000       343
35.020       340
35.040       303
35.060       313
35.080       270
35.100       263
35.120       227
35.140       230
35.160       267
35.180       193
35.200       200
35.220       307
35.240       253
35.260       213
35.280       277
35.300       283
35.320       227
35.340       200
35.360       263
35.380       200
35.400       190
35.420       217
35.440       213
35.460       200
35.480       177
35.500       210
35.520       183
35.540       147
35.560       183
35.580       197
35.600       147
35.620       183
35.640       183
35.660       167
35.680       157
35.700       160
35.720       217
35.740       113
35.760       187
35.780       210
35.800       217
35.820       223
35.840       200
35.860       253
35.880       253
35.900       300
35.920       300
35.940       323
35.960       373
35.980       350
36.000       380
36.020       403
36.040       360
36.060       453
36.080       436
36.100       483
36.120       570
36.140       570
36.160       576
36.180       520
36.200       530
36.220       383
36.240       540
36.260       446
36.280       453
36.300       490
36.320       397
36.340       370
36.360       373
36.380       330
36.400       403
36.420       317
36.440       327
36.460       297
36.480       317
36.500       220
36.520       203
36.540       240
36.560       180
36.580       203
36.600       177
36.620       187
36.640       183
36.660       217
36.680       173
36.700       183
36.720       150
36.740       113
36.760       143
36.780       127
36.800       173
36.820       147
36.840       153
36.860       153
36.880       170
36.900       113
36.920       140
36.940       117
36.960       177
36.980       167
37.000       163
37.020       157
37.040       117
37.060       143
37.080       127
37.100       160
37.120       150
37.140        97
37.160       137
37.180       167
37.200       140
37.220       123
37.240       147
37.260       123
37.280       110
37.300       107
37.320       107
37.340       123
37.360       123
37.380       117
37.400       113
37.420        97
37.440       110
37.460       153
37.480       150
37.500       127
37.520        83
37.540       123
37.560       130
37.580       133
37.600        87
37.620       137
37.640        90
37.660       123
37.680       107
37.700       143
37.720       113
37.740       137
37.760       140
37.780       110
37.800       130
37.820        93
37.840       117
37.860       113
37.880       113
37.900       127
37.920        97
37.940        90
37.960       167
37.980       123
38.000       110
38.020       107
38.040       107
38.060        97
38.080       127
38.100       130
38.120       100
38.140       117
38.160       107
38.180       140
38.200       100
38.220       170
38.240       130
38.260       107
38.280       110
38.300       140
38.320       153
38.340       103
38.360       113
38.380       123
38.400        97
38.420        93
38.440       120
38.460       103
38.480       140
38.500        77
38.520       107
38.540       133
38.560       103
38.580       137
38.600        80
38.620       110
38.640       153
38.660       100
38.680       127
38.700       123
38.720       113
38.740       117
38.760       103
38.780       127
38.800       110
38.820       117
38.840        90
38.860       107
38.880       123
38.900       133
38.920        83
38.940       100
38.960       130
38.980       107
39.000       113
39.020        67
39.040       117
39.060       183
39.080       110
39.100       133
39.120       173
39.140       160
39.160       157
39.180       170
39.200       130
39.220       143
39.240       230
39.260       233
39.280       237
39.300       303
39.320       307
39.340       383
39.360       337
39.380       513
39.400       546
39.420       520
39.440       630
39.460       630
39.480       400
39.500       460
39.520       383
39.540       357
39.560       300
39.580       283
39.600       237
39.620       203
39.640       170
39.660       140
39.680       130
39.700       120
39.720       127
39.740       107
39.760       113
39.780       137
39.800       133
39.820        77
39.840       110
39.860       117
39.880       127
39.900        83
39.920       103
39.940       123
39.960        80
39.980       100
40.000        97
40.020        93
40.040       110
40.060       157
40.080       113
40.100       123
40.120       123
40.140       103
40.160        97
40.180       127
40.200       100
40.220        80
40.240       110
40.260        97
40.280       113
40.300       100
40.320       137
40.340       127
40.360       107
40.380        93
40.400        77
40.420       117
40.440       130
40.460        77
40.480       113
40.500       100
40.520        87
40.540       120
40.560        63
40.580       103
40.600        87
40.620        83
40.640        90
40.660        67
40.680        53
40.700       130
40.720        77
40.740       127
40.760       120
40.780       103
40.800        87
40.820       107
40.840       103
40.860       110
40.880       117
40.900        90
40.920       100
40.940       123
40.960        87
40.980       100
41.000       123
41.020       110
41.040       123
41.060       127
41.080        87
41.100        90
41.120       100
41.140       103
41.160       103
41.180       130
41.200       103
41.220        90
41.240        87
41.260        93
41.280        70
41.300       127
41.320       117
41.340        63
41.360        93
41.380        70
41.400       133
41.420       110
41.440        73
41.460       107
41.480       107
41.500        87
41.520        90
41.540       117
41.560       107
41.580       110
41.600       137
41.620        80
41.640        90
41.660       110
41.680        97
41.700       103
41.720        73
41.740        90
41.760        90
41.780        77
41.800        73
41.820       103
41.840        90
41.860       130
41.880        77
41.900        67
41.920       117
41.940        80
41.960        90
41.980       107
42.000        60
42.020       103
42.040        87
42.060       103
42.080       107
42.100        90
42.120       127
42.140        90
42.160       107
42.180       137
42.200        87
42.220        80
42.240        93
42.260       110
42.280        93
42.300       127
42.320        87
42.340       117
42.360       107
42.380       110
42.400       117
42.420       110
42.440       117
42.460       127
42.480       100
42.500       127
42.520       120
42.540       113
42.560       103
42.580        80
42.600       117
42.620       183
42.640       150
42.660       147
42.680       150
42.700       163
42.720       173
42.740       197
42.760       190
42.780       203
42.800       237
42.820       273
42.840       323
42.860       343
42.880       393
42.900       456
42.920       410
42.940       430
42.960       410
42.980       320
43.000       337
43.020       293
43.040       257
43.060       237
43.080       190
43.100       173
43.120       170
43.140       120
43.160       157
43.180       153
43.200       137
43.220        93
43.240       130
43.260        90
43.280       113
43.300       147
43.320       100
43.340       130
43.360        73
43.380        80
43.400       133
43.420       117
43.440        67
43.460       100
43.480        77
43.500       173
43.520        93
43.540       113
43.560       130
43.580        97
43.600        93
43.620       113
43.640       117
43.660        87
43.680       140
43.700       117
43.720        80
43.740        73
43.760       117
43.780        93
43.800       100
43.820        70
43.840        67
43.860        83
43.880       107
43.900        77
43.920       123
43.940        73
43.960       110
43.980       110
44.000        90
44.020        87
44.040       100
44.060       120
44.080        93
44.100        70
44.120        80
44.140       133
44.160       110
44.180        90
44.200        73
44.220        70
44.240       100
44.260       117
44.280        60
44.300        83
44.320       107
44.340        87
44.360        80
44.380       113
44.400       113
44.420       103
44.440        93
44.460        87
44.480        90
44.500        77
44.520        97
44.540        90
44.560        83
44.580       117
44.600        87
44.620        87
44.640       100
44.660        93
44.680       113
44.700       113
44.720        93
44.740       143
44.760        97
44.780        83
44.800        90
44.820        90
44.840        90
44.860        97
44.880       103
44.900       133
44.920       113
44.940       110
44.960       107
44.980       103
45.000       110
45.020       103
45.040       117
45.060        87
45.080        60
45.100       100
45.120       113
45.140       100
45.160       107
45.180       117
45.200       110
45.220        60
45.240       103
45.260       153
45.280       160
45.300        87
45.320        90
45.340       113
45.360       163
45.380       177
45.400       140
45.420       147
45.440       207
45.460       197
45.480       137
45.500       150
45.520       173
45.540       210
45.560       240
45.580       280
45.600       287
45.620       233
45.640       300
45.660       300
45.680       363
45.700       383
45.720       460
45.740       523
45.760       566
45.780       670
45.800       600
45.820       706
45.840       720
45.860       643
45.880       646
45.900       633
45.920       503
45.940       533
45.960       516
45.980       413
46.000       350
46.020       347
46.040       303
46.060       237
46.080       190
46.100       223
46.120       163
46.140       100
46.160       123
46.180       130
46.200       110
46.220       143
46.240       130
46.260       110
46.280       120
46.300       117
46.320       133
46.340       103
46.360        97
46.380       147
46.400       103
46.420       113
46.440        77
46.460       127
46.480       103
46.500       127
46.520       107
46.540        97
46.560       110
46.580        97
46.600       117
46.620       117
46.640       130
46.660        93
46.680        97
46.700       140
46.720       140
46.740       123
46.760       117
46.780       103
46.800       123
46.820       127
46.840       117
46.860       100
46.880       150
46.900       117
46.920       157
46.940       163
46.960       147
46.980       170
47.000       173
47.020       153
47.040       167
47.060       187
47.080       210
47.100       207
47.120       220
47.140       253
47.160       297
47.180       307
47.200       273
47.220       337
47.240       287
47.260       377
47.280       453
47.300       390
47.320       417
47.340       403
47.360       363
47.380       426
47.400       393
47.420       420
47.440       433
47.460       426
47.480       426
47.500       393
47.520       433
47.540       377
47.560       417
47.580       357
47.600       363
47.620       297
47.640       307
47.660       280
47.680       277
47.700       203
47.720       220
47.740       247
47.760       200
47.780       167
47.800       207
47.820       187
47.840       183
47.860       170
47.880       167
47.900       130
47.920       130
47.940       157
47.960       113
47.980       113
48.000       160
48.020       117
48.040       140
48.060       123
48.080       130
48.100       130
48.120       157
48.140       107
48.160       100
48.180       123
48.200       100
48.220       100
48.240       113
48.260       113
48.280       117
48.300        67
48.320        97
48.340        87
48.360       100
48.380        90
48.400        83
48.420        63
48.440       117
48.460       107
48.480        83
48.500       130
48.520        73
48.540       103
48.560       103
48.580        80
48.600        97
48.620       113
48.640        87
48.660        83
48.680        83
48.700        57
48.720        97
48.740        73
48.760        83
48.780       123
48.800        93
48.820       117
48.840        63
48.860        97
48.880        57
48.900        97
48.920        90
48.940       123
48.960        77
48.980       107
49.000        60
49.020        97
49.040        87
49.060        73
49.080        83
49.100        83
49.120        63
49.140        73
49.160        87
49.180       113
49.200       107
49.220       100
49.240       120
49.260        97
49.280       107
49.300        80
49.320        77
49.340        83
49.360       120
49.380        77
49.400        93
49.420        73
49.440        97
49.460       120
49.480        73
49.500       100
49.520       100
49.540        73
49.560       107
49.580        87
49.600       117
49.620       107
49.640       113
49.660       100
49.680       113
49.700       123
49.720        70
49.740        67
49.760       113
49.780        90
49.800       107
49.820        57
49.840        87
49.860       110
49.880        70
49.900        97
49.920       103
49.940        87
49.960       100
49.980        90
50.000       100
50.020       107
50.040        77
50.060        87
50.080        97
50.100       110
50.120        93
50.140        77
50.160        77
50.180       120
50.200        47
50.220        87
50.240        57
50.260        87
50.280        97
50.300        63
50.320        80
50.340        73
50.360        43
50.380       117
50.400       140
50.420        60
50.440        93
50.460       107
50.480        80
50.500        93
50.520        97
50.540       113
50.560       100
50.580       113
50.600        80
50.620        93
50.640       103
50.660        93
50.680       103
50.700        97
50.720        87
50.740        83
50.760        97
50.780        80
50.800       110
50.820        80
50.840        90
50.860        60
50.880        73
50.900        93
50.920       117
50.940       100
50.960        90
50.980       120
51.000        97
51.020       113
51.040       113
51.060        97
51.080        97
51.100       113
51.120        87
51.140       113
51.160       103
51.180        97
51.200        83
51.220       103
51.240        93
51.260        90
51.280       113
51.300       100
51.320       100
51.340       123
51.360        97
51.380       117
51.400       113
51.420       120
51.440       123
51.460       113
51.480       123
51.500       197
51.520       147
51.540       207
51.560       197
51.580       180
51.600       280
51.620       217
51.640       213
51.660       227
51.680       213
51.700       163
51.720       220
51.740       137
51.760       133
51.780       173
51.800        87
51.820       133
51.840       133
51.860       120
51.880       147
51.900       127
51.920        73
51.940        83
51.960       123
51.980       103
52.000       123
52.020        53
52.040        77
52.060        83
52.080       110
52.100        93
52.120        87
52.140       100
52.160       107
52.180        57
52.200       140
52.220        67
52.240       127
52.260       113
52.280        80
52.300       127
52.320        90
52.340        83
52.360        90
52.380        63
52.400        90
52.420        83
52.440        93
52.460       120
52.480        90
52.500        90
52.520        93
52.540        67
52.560       100
52.580        90
52.600        97
52.620       113
52.640        67
52.660       120
52.680        97
52.700       100
52.720       100
52.740        90
52.760       123
52.780       113
52.800        97
52.820       110
52.840       120
52.860        80
52.880        97
52.900        93
52.920       110
52.940       117
52.960        80
52.980        73
53.000        80
53.020        87
53.040       110
53.060        73
53.080        97
53.100        63
53.120       100
53.140       103
53.160       100
53.180       103
53.200        80
53.220        80
53.240        93
53.260        97
53.280       100
53.300        70
53.320       120
53.340        90
53.360       123
53.380        53
53.400       107
53.420        83
53.440       100
53.460        67
53.480        63
53.500        80
53.520        63
53.540        97
53.560        73
53.580       100
53.600        63
53.620       103
53.640        97
53.660       113
53.680       100
53.700        87
53.720        57
53.740       103
53.760        80
53.780        87
53.800        97
53.820        97
53.840        73
53.860        90
53.880        87
53.900       103
53.920       107
53.940        90
53.960        93
53.980        93
54.000       117
54.020       113
54.040        97
54.060       130
54.080        77
54.100       103
54.120        87
54.140       113
54.160       113
54.180        67
54.200        90
54.220        67
54.240        57
54.260       137
54.280       133
54.300        90
54.320        97
54.340        93
54.360       107
54.380       110
54.400       107
54.420        67
54.440       107
54.460       113
54.480       120
54.500        83
54.520       100
54.540        90
54.560       100
54.580        83
54.600       107
54.620        60
54.640        67
54.660        43
54.680       100
54.700        83
54.720       137
54.740        80
54.760       117
54.780       133
54.800        83
54.820       110
54.840        93
54.860       137
54.880       100
54.900       103
54.920        97
54.940       103
54.960        87
54.980       110
55.000       100
55.020       117
55.040        97
55.060        97
55.080       117
55.100        93
55.120       103
55.140        87
55.160       107
55.180        67
55.200        77
55.220        87
55.240        77
55.260       107
55.280       117
55.300        97
55.320        77
55.340       123
55.360        73
55.380       120
55.400        80
55.420        63
55.440       103
55.460        97
55.480        77
55.500        90
55.520        90
55.540       117
55.560        97
55.580        87
55.600       103
55.620       100
55.640        90
55.660       117
55.680       113
55.700        97
55.720        73
55.740       127
55.760        73
55.780       123
55.800       133
55.820        90
55.840       113
55.860       123
55.880       120
55.900       100
55.920       110
55.940       100
55.960       147
55.980       113
56.000       113
56.020       120
56.040       123
56.060       120
56.080       113
56.100       163
56.120       140
56.140       140
56.160       100
56.180       103
56.200       173
56.220        97
56.240       127
56.260       137
56.280       173
56.300       133
56.320       147
56.340       170
56.360       163
56.380       140
56.400       167
56.420       170
56.440       160
56.460       153
56.480       130
56.500       187
56.520       200
56.540       170
56.560       190
56.580       260
56.600       270
56.620       230
56.640       263
56.660       230
56.680       247
56.700       267
56.720       240
56.740       280
56.760       370
56.780       293
56.800       350
56.820       373
56.840       486
56.860       536
56.880       573
56.900       720
56.920       783
56.940       916
56.960       956
56.980      1023
57.000       896
57.020       763
57.040       766
57.060       673
57.080       673
57.100       586
57.120       556
57.140       536
57.160       490
57.180       490
57.200       410
57.220       303
57.240       283
57.260       233
57.280       203
57.300       207
57.320       220
57.340       163
57.360       117
57.380       130
57.400       123
57.420       137
57.440       180
57.460       123
57.480       130
57.500       120
57.520       113
57.540       140
57.560       137
57.580        90
57.600       113
57.620       140
57.640        83
57.660       107
57.680       100
57.700       107
57.720        87
57.740       130
57.760       100
57.780       120
57.800        93
57.820       133
57.840        90
57.860        77
57.880       107
57.900        70
57.920        77
57.940        80
57.960        80
57.980       103
58.000        87
58.020        83
58.040        97
58.060       100
58.080       100
58.100       103
58.120       100
58.140        90
58.160       107
58.180       123
58.200       123
58.220       110
58.240       133
58.260        83
58.280        90
58.300       117
58.320       113
58.340       103
58.360        93
58.380       100
58.400       103
58.420       117
58.440       100
58.460        77
58.480        93
58.500        90
58.520       123
58.540        60
58.560       103
58.580       110
58.600        93
58.620       100
58.640       110
58.660       110
58.680        83
58.700       113
58.720       110
58.740       117
58.760        97
58.780        73
58.800       113
58.820       133
58.840       100
58.860        83
58.880        80
58.900        70
58.920       100
58.940        63
58.960       103
58.980       150
59.000        90
59.020       120
59.040        97
59.060       120
59.080        77
59.100       113
59.120       113
59.140       110
59.160        97
59.180       117
59.200        80
59.220        87
59.240        87
59.260       113
59.280        93
59.300        80
59.320        63
59.340        77
59.360       107
59.380        87
59.400        80
59.420       110
59.440       113
59.460       110
59.480        83
59.500        83
59.520       113
59.540       107
59.560       113
59.580       137
59.600       107
59.620        73
59.640       110
59.660       120
59.680       107
59.700       127
59.720        70
59.740        83
59.760       123
59.780       110
59.800        53
59.820         0
59.840         0
59.860         0
59.880         0
59.900         0
59.920         0
59.940         0
59.960         0
59.980         0
60.000         0
