20.000       217
20.020       210
20.040       203
20.060       250
20.080       207
20.100       210
20.120       220
20.140       220
20.160       240
20.180       237
20.200       260
20.220       210
20.240       273
20.260       217
20.280       257
20.300       250
20.320       230
20.340       247
20.360       207
20.380       253
20.400       243
20.420       210
20.440       233
20.460       240
20.480       223
20.500       190
20.520       193
20.540       233
20.560       227
20.580       223
20.600       183
20.620       230
20.640       233
20.660       220
20.680       213
20.700       187
20.720       207
20.740       233
20.760       207
20.780       250
20.800       233
20.820       207
20.840       220
20.860       250
20.880       250
20.900       187
20.920       177
20.940       190
20.960       190
20.980       213
21.000       193
21.020       183
21.040       223
21.060       237
21.080       167
21.100       233
21.120       193
21.140       217
21.160       170
21.180       220
21.200       190
21.220       233
21.240       280
21.260       213
21.280       237
21.300       257
21.320       190
21.340       230
21.360       230
21.380       243
21.400       267
21.420       210
21.440       247
21.460       247
21.480       173
21.500       200
21.520       193
21.540       243
21.560       213
21.580       223
21.600       227
21.620       190
21.640       183
21.660       230
21.680       207
21.700       253
21.720       247
21.740       180
21.760       223
21.780       183
21.800       283
21.820       287
21.840       250
21.860       240
21.880       193
21.900       187
21.920       167
21.940       227
21.960       170
21.980       177
22.000       177
22.020       197
22.040       217
22.060       190
22.080       160
22.100       203
22.120       213
22.140       177
22.160       173
22.180       197
22.200       183
22.220       193
22.240       153
22.260       200
22.280       230
22.300       173
22.320       160
22.340       187
22.360       170
22.380       217
22.400       160
22.420       217
22.440       240
22.460       177
22.480       167
22.500       190
22.520       207
22.540       163
22.560       157
22.580       190
22.600       210
22.620       197
22.640       217
22.660       217
22.680       203
22.700       213
22.720       223
22.740       217
22.760       167
22.780       190
22.800       207
22.820       197
22.840       230
22.860       193
22.880       217
22.900       187
22.920       187
22.940       193
22.960       173
22.980       153
23.000       233
23.020       183
23.040       200
23.060       240
23.080       180
23.100       153
23.120       180
23.140       187
23.160       233
23.180       223
23.200       183
23.220       187
23.240       207
23.260       160
23.280       173
23.300       197
23.320       170
23.340       177
23.360       233
23.380       180
23.400       183
23.420       210
23.440       200
23.460       193
23.480       250
23.500       170
23.520       187
23.540       180
23.560       163
23.580       157
23.600       167
23.620       193
23.640       170
23.660       160
23.680       193
23.700       160
23.720       193
23.740       180
23.760       227
23.780       210
23.800       123
23.820       143
23.840       163
23.860       190
23.880       160
23.900       167
23.920       190
23.940       127
23.960       180
23.980       167
24.000       133
24.020       200
24.040       187
24.060       157
24.080       157
24.100       147
24.120       143
24.140       213
24.160       200
24.180       163
24.200       203
24.220       140
24.240       163
24.260       180
24.280       200
24.300       193
24.320       163
24.340       160
24.360       180
24.380       200
24.400       180
24.420       167
24.440       137
24.460       147
24.480       183
24.500       170
24.520       143
24.540       210
24.560       157
24.580       140
24.600       167
24.620       183
24.640       197
24.660       177
24.680       167
24.700       203
24.720       153
24.740       120
24.760       153
24.780       180
24.800       160
24.820       177
24.840       153
24.860       177
24.880       153
24.900       147
24.920       120
24.940       157
24.960       153
24.980       163
25.000       130
25.020       187
25.040       150
25.060       153
25.080       157
25.100       183
25.120       123
25.140       173
25.160       113
25.180       173
25.200       177
25.220       130
25.240       170
25.260       177
25.280       140
25.300       127
25.320       183
25.340       157
25.360       157
25.380       163
25.400       173
25.420       127
25.440       167
25.460       163
25.480       167
25.500       137
25.520       217
25.540       213
25.560       160
25.580       267
25.600       223
25.620       210
25.640       177
25.660       153
25.680       157
25.700       167
25.720       130
25.740       150
25.760       147
25.780       163
25.800       157
25.820       167
25.840       127
25.860       150
25.880       177
25.900       140
25.920       140
25.940       170
25.960       110
25.980       183
26.000       140
26.020       153
26.040       150
26.060       150
26.080       107
26.100       113
26.120       137
26.140       113
26.160       157
26.180       130
26.200       133
26.220       140
26.240       123
26.260       137
26.280       140
26.300       113
26.320       133
26.340       140
26.360       130
26.380       113
26.400       140
26.420       160
26.440       127
26.460       123
26.480        90
26.500       157
26.520       190
26.540       133
26.560       167
26.580       133
26.600       113
26.620       127
26.640       163
26.660       130
26.680       130
26.700        83
26.720       123
26.740       103
26.760       110
26.780       110
26.800       110
26.820       150
26.840       147
26.860       110
26.880       180
26.900       103
26.920       147
26.940       150
26.960       133
26.980       113
27.000       130
27.020       113
27.040        97
27.060       117
27.080       133
27.100       117
27.120       137
27.140       147
27.160       137
27.180       133
27.200       143
27.220       147
27.240       163
27.260       120
27.280       100
27.300       143
27.320       100
27.340       123
27.360       160
27.380       157
27.400       120
27.420       117
27.440       153
27.460       103
27.480       127
27.500       133
27.520       150
27.540       137
27.560        97
27.580       120
27.600        93
27.620       177
27.640       130
27.660       130
27.680       147
27.700        90
27.720       120
27.740       117
27.760       140
27.780       130
27.800       120
27.820       137
27.840        93
27.860       113
27.880       150
27.900       120
27.920       137
27.940       130
27.960       143
27.980       130
28.000       130
28.020       113
28.040       123
28.060       127
28.080       147
28.100       127
28.120       103
28.140       140
28.160        90
28.180       120
28.200        87
28.220       100
28.240       113
28.260       133
28.280       113
28.300       103
28.320       113
28.340       123
28.360       107
28.380       123
28.400       127
28.420       130
28.440       163
28.460       110
28.480       130
28.500       123
28.520       130
28.540       117
28.560       113
28.580        77
28.600       103
28.620       120
28.640       117
28.660        93
28.680        83
28.700       127
28.720       113
28.740        97
28.760       103
28.780        83
28.800       113
28.820        90
28.840       147
28.860       127
28.880        90
28.900       107
28.920        83
28.940       123
28.960        93
28.980       137
29.000       107
29.020       110
29.040        90
29.060        97
29.080       120
29.100       140
29.120       140
29.140       110
29.160       103
29.180        83
29.200       110
29.220       143
29.240       137
29.260       103
29.280       100
29.300        73
29.320        97
29.340        90
29.360       130
29.380       153
29.400        77
29.420        87
29.440        97
29.460        83
29.480        97
29.500        93
29.520        97
29.540       110
29.560       100
29.580       110
29.600        87
29.620        93
29.640       107
29.660        93
29.680       133
29.700       117
29.720        93
29.740       150
29.760       117
29.780        97
29.800        90
29.820       123
29.840       117
29.860       123
29.880       103
29.900       110
29.920       103
29.940        83
29.960        77
29.980       110
30.000       103
30.020        97
30.040       107
30.060        93
30.080       100
30.100        93
30.120       100
30.140        90
30.160       113
30.180       117
30.200       120
30.220        77
30.240        90
30.260       120
30.280       120
30.300       120
30.320       103
30.340       127
30.360       147
30.380       103
30.400       113
30.420       100
30.440        90
30.460       107
30.480       113
30.500       130
30.520        90
30.540       100
30.560       107
30.580        63
30.600       120
30.620       133
30.640       107
30.660        97
30.680       110
30.700        87
30.720       123
30.740       117
30.760       100
30.780       127
30.800        97
30.820       100
30.840       143
30.860       120
30.880       150
30.900       110
30.920       157
30.940       117
30.960       100
30.980       133
31.000       107
31.020       147
31.040        93
31.060       150
31.080       143
31.100       103
31.120       117
31.140       113
31.160       113
31.180       107
31.200        87
31.220        90
31.240       123
31.260       133
31.280       117
31.300       120
31.320       120
31.340       140
31.360       127
31.380       137
31.400       113
31.420       123
31.440       137
31.460       170
31.480       127
31.500       123
31.520       173
31.540       180
31.560       153
31.580       163
31.600       120
31.620       153
31.640       167
31.660       180
31.680       160
31.700       150
31.720       193
31.740       177
31.760       180
31.780       173
31.800       160
31.820       163
31.840       140
31.860       143
31.880       197
31.900       130
31.920       150
31.940       107
31.960        90
31.980       120
32.000       137
32.020       117
32.040        90
32.060       120
32.080       113
32.100       100
32.120       130
32.140       103
32.160       127
32.180       110
32.200       117
32.220       117
32.240       113
32.260       140
32.280       107
32.300       147
32.320       140
32.340       123
32.360       103
32.380       137
32.400       137
32.420        87
32.440        93
32.460       100
32.480        97
32.500        73
32.520        83
32.540       107
32.560       117
32.580        93
32.600        77
32.620        93
32.640       110
32.660       127
32.680        77
32.700       127
32.720        97
32.740       103
32.760        97
32.780       123
32.800        67
32.820       110
32.840       110
32.860       117
32.880       140
32.900       117
32.920       130
32.940       107
32.960       120
32.980       127
33.000        67
33.020       120
33.040       113
33.060       127
33.080       113
33.100       113
33.120       130
33.140       120
33.160       130
33.180       100
33.200       117
33.220       120
33.240       180
33.260       160
33.280       167
33.300       167
33.320       223
33.340       163
33.360       143
33.380       117
33.400       153
33.420       147
33.440       140
33.460       173
33.480       153
33.500       180
33.520       223
33.540       180
33.560       197
33.580       217
33.600       217
33.620       197
33.640       217
33.660       227
33.680       267
33.700       203
33.720       263
33.740       263
33.760       273
33.780       273
33.800       317
33.820       317
33.840       360
33.860       387
33.880       486
33.900       480
33.920       520
33.940       556
33.960       603
33.980       653
34.000       890
34.020       903
34.040      1046
34.060      1250
34.080      1429
34.100      1556
34.120      1743
34.140      2252
34.160      2536
34.180      2972
34.200      3309
34.220      3702
34.240      4225
34.260      4492
34.280      5151
34.300      5644
34.320      5958
34.340      6331
34.360      6551
34.380      6874
34.400      6701
34.420      6814
34.440      6621
34.460      6347
34.480      5701
34.500      5608
34.520      4931
34.540      4611
34.560      4222
34.580      3745
34.600      3445
34.620      2916
34.640      2592
34.660      2282
34.680      1853
34.700      1713
34.720      1543
34.740      1309
34.760      1246
34.780      1050
34.800       940
34.820       840
34.840       843
34.860       780
34.880       736
34.900       660
34.920       570
34.940       590
34.960       610
34.980       676
35.000       540
35.020       586
35.040       506
35.060       683
35.080       883
35.100      1130
35.120      1336
35.140      1329
35.160      1123
35.180       963
35.200       723
35.220       696
35.240       670
35.260       550
35.280       367
35.300       220
35.320       237
35.340       180
35.360       237
35.380       233
35.400       170
35.420       190
35.440       173
35.460       180
35.480       227
35.500       213
35.520       170
35.540       167
35.560       203
35.580       187
35.600       183
35.620       200
35.640       197
35.660       220
35.680       230
35.700       223
35.720       240
35.740       300
35.760       223
35.780       287
35.800       313
35.820       293
35.840       303
35.860       377
35.880       407
35.900       357
35.920       423
35.940       353
35.960       540
35.980       463
36.000       446
36.020       576
36.040       543
36.060       516
36.080       563
36.100       653
36.120       616
36.140       613
36.160       616
36.180       560
36.200       653
36.220       543
36.240       593
36.260       470
36.280       550
36.300       496
36.320       476
36.340       486
36.360       476
36.380       476
36.400       530
36.420       357
36.440       387
36.460       436
36.480       323
36.500       327
36.520       277
36.540       313
36.560       297
36.580       257
36.600       277
36.620       193
36.640       260
36.660       210
36.680       240
36.700       233
36.720       180
36.740       200
36.760       157
36.780       203
36.800       147
36.820       153
36.840       187
36.860       140
36.880       160
36.900       143
36.920       147
36.940       113
36.960       123
36.980       153
37.000       163
37.020       137
37.040       137
37.060       120
37.080       170
37.100       103
37.120       123
37.140        97
37.160       103
37.180       110
37.200       117
37.220       113
37.240        97
37.260       140
37.280       113
37.300       127
37.320        80
37.340       110
37.360       123
37.380       127
37.400       107
37.420       130
37.440       130
37.460       130
37.480        93
37.500       100
37.520       110
37.540       103
37.560       113
37.580       127
37.600       147
37.620        93
37.640       117
37.660       163
37.680       233
37.700       217
37.720       187
37.740       197
37.760       237
37.780       307
37.800       340
37.820       243
37.840       167
37.860       173
37.880       213
37.900       120
37.920       223
37.940       123
37.960       130
37.980       110
38.000       103
38.020       117
38.040       100
38.060        63
38.080       100
38.100       127
38.120        87
38.140        93
38.160        90
38.180       110
38.200        90
38.220        90
38.240       110
38.260        97
38.280       113
38.300       130
38.320        87
38.340       113
38.360       103
38.380        83
38.400       130
38.420        83
38.440       113
38.460       100
38.480        97
38.500        93
38.520        87
38.540        93
38.560        77
38.580        90
38.600       100
38.620       100
38.640        80
38.660       110
38.680       110
38.700       113
38.720        83
38.740        77
38.760        67
38.780       100
38.800        77
38.820       123
38.840       100
38.860        83
38.880        80
38.900       107
38.920        80
38.940        90
38.960        83
38.980        97
39.000       123
39.020       127
39.040       120
39.060       123
39.080       110
39.100        70
39.120       113
39.140        77
39.160        93
39.180       103
39.200        77
39.220        97
39.240        77
39.260        87
39.280        63
39.300        90
39.320        90
39.340        80
39.360       100
39.380       103
39.400       100
39.420        93
39.440        73
39.460        63
39.480        87
39.500        90
39.520       110
39.540       113
39.560       113
39.580        83
39.600        97
39.620        97
39.640       133
39.660        77
39.680        83
39.700       113
39.720       103
39.740       103
39.760        97
39.780       113
39.800       100
39.820       120
39.840       103
39.860        70
39.880        90
39.900       107
39.920        83
39.940       100
39.960       100
39.980        80
40.000        87
40.020       107
40.040        97
40.060        60
40.080        73
40.100        77
40.120        83
40.140        90
40.160        70
40.180        67
40.200        77
40.220        93
40.240        90
40.260        70
40.280        77
40.300       103
40.320        70
40.340        67
40.360        73
40.380        83
40.400       117
40.420        80
40.440        90
40.460        73
40.480        60
40.500        83
40.520        80
40.540        70
40.560        67
40.580        60
40.600        77
40.620        47
40.640        67
40.660       100
40.680        90
40.700        77
40.720        73
40.740        80
40.760        53
40.780        67
40.800        67
40.820        63
40.840        67
40.860        70
40.880        80
40.900        70
40.920        73
40.940        70
40.960        53
40.980        73
41.000       107
41.020        80
41.040        87
41.060        87
41.080        97
41.100        63
41.120       100
41.140        60
41.160        83
41.180        77
41.200        67
41.220        87
41.240        80
41.260        67
41.280        90
41.300        73
41.320        50
41.340        70
41.360        97
41.380       110
41.400        93
41.420        63
41.440        90
41.460        70
41.480       113
41.500        83
41.520        87
41.540       127
41.560       100
41.580       113
41.600       153
41.620       163
41.640       297
41.660       313
41.680       360
41.700       293
41.720       213
41.740       220
41.760       180
41.780       193
41.800       140
41.820       170
41.840       123
41.860        63
41.880        73
41.900        73
41.920        70
41.940        90
41.960       100
41.980        97
42.000        80
42.020        60
42.040        93
42.060        53
42.080        90
42.100        63
42.120        83
42.140        77
42.160        97
42.180        77
42.200        67
42.220        40
42.240        80
42.260        73
42.280        77
42.300       113
42.320        80
42.340        67
42.360        57
42.380        77
42.400        77
42.420        97
42.440        83
42.460        97
42.480        90
42.500        90
42.520        97
42.540        70
42.560       100
42.580        93
42.600        87
42.620        40
42.640        93
42.660        53
42.680        87
42.700        90
42.720        90
42.740       113
42.760        93
42.780        73
42.800        87
42.820        90
42.840        77
42.860        83
42.880        67
42.900        73
42.920        60
42.940       120
42.960        70
42.980        93
43.000        83
43.020        73
43.040        73
43.060        80
43.080       117
43.100        70
43.120        83
43.140       107
43.160       143
43.180       150
43.200        83
43.220       153
43.240       160
43.260       183
43.280       323
43.300       420
43.320       500
43.340       696
43.360       580
43.380       530
43.400       463
43.420       313
43.440       327
43.460       417
43.480       367
43.500       253
43.520       183
43.540       150
43.560       110
43.580        80
43.600        93
43.620        53
43.640       133
43.660        83
43.680        73
43.700        93
43.720        57
43.740        57
43.760        90
43.780       100
43.800        60
43.820        80
43.840        67
43.860        73
43.880        67
43.900        63
43.920        93
43.940        77
43.960       100
43.980        83
44.000        73
44.020        60
44.040        70
44.060        83
44.080        87
44.100        40
44.120        60
44.140       107
44.160        60
44.180        87
44.200        67
44.220        70
44.240        80
44.260        80
44.280        73
44.300        93
44.320        50
44.340        97
44.360        57
44.380        67
44.400        63
44.420        80
44.440        40
44.460        47
44.480        53
44.500        37
44.520        83
44.540        53
44.560        73
44.580        93
44.600        63
44.620        83
44.640        50
44.660        70
44.680        90
44.700        70
44.720        67
44.740        67
44.760        50
44.780        77
44.800        87
44.820        83
44.840        77
44.860        70
44.880        67
44.900        67
44.920       100
44.940        83
44.960        83
44.980        77
45.000        83
45.020        87
45.040        77
45.060        60
45.080        63
45.100        60
45.120        53
45.140        43
45.160        83
45.180        67
45.200        77
45.220        73
45.240        57
45.260        80
45.280        67
45.300        67
45.320        97
45.340        70
45.360        90
45.380        83
45.400        73
45.420        53
45.440        87
45.460        53
45.480        60
45.500        47
45.520        73
45.540        67
45.560       103
45.580        53
45.600        77
45.620        80
45.640        50
45.660        70
45.680        93
45.700        80
45.720        77
45.740        70
45.760        73
45.780        50
45.800        60
45.820        73
45.840        50
45.860        60
45.880        67
45.900        67
45.920        53
45.940        60
45.960        60
45.980        70
46.000        73
46.020        53
46.040        60
46.060        60
46.080        67
46.100        77
46.120        80
46.140       100
46.160        70
46.180        47
46.200        77
46.220        77
46.240        90
46.260        57
46.280        67
46.300        77
46.320        90
46.340        80
46.360        83
46.380        60
46.400        97
46.420        60
46.440        70
46.460       100
46.480        77
46.500        73
46.520        67
46.540        83
46.560        63
46.580        80
46.600        67
46.620        90
46.640        57
46.660        80
46.680        77
46.700        87
46.720        87
46.740       107
46.760       117
46.780        80
46.800       110
46.820        83
46.840        90
46.860       123
46.880        90
46.900       120
46.920       137
46.940       140
46.960       143
46.980       130
47.000       147
47.020       113
47.040       163
47.060       170
47.080       133
47.100       193
47.120       200
47.140       210
47.160       150
47.180       160
47.200       167
47.220       210
47.240       143
47.260       197
47.280       203
47.300       190
47.320       173
47.340       237
47.360       230
47.380       247
47.400       247
47.420       203
47.440       237
47.460       247
47.480       257
47.500       233
47.520       240
47.540       220
47.560       223
47.580       237
47.600       247
47.620       203
47.640       187
47.660       180
47.680       200
47.700       130
47.720       193
47.740       143
47.760       200
47.780       167
47.800       200
47.820       160
47.840       157
47.860       167
47.880       140
47.900       127
47.920       150
47.940       150
47.960       113
47.980       123
48.000       117
48.020       100
48.040       103
48.060       100
48.080        90
48.100       120
48.120       127
48.140        93
48.160        97
48.180       113
48.200        63
48.220        83
48.240        80
48.260        67
48.280        83
48.300        70
48.320        93
48.340        90
48.360        67
48.380       113
48.400        73
48.420        67
48.440        77
48.460        70
48.480        57
48.500        53
48.520        77
48.540        50
48.560        60
48.580        97
48.600        67
48.620        73
48.640        90
48.660        63
48.680        77
48.700        70
48.720        70
48.740        63
48.760        63
48.780        47
48.800        63
48.820        70
48.840        77
48.860        80
48.880        83
48.900        63
48.920        53
48.940        63
48.960        67
48.980        57
49.000        90
49.020        67
49.040        30
49.060        77
49.080        57
49.100        80
49.120        60
49.140        73
49.160        43
49.180        57
49.200        70
49.220        37
49.240        47
49.260        63
49.280        63
49.300        83
49.320        63
49.340        50
49.360        83
49.380        80
49.400        77
49.420        50
49.440        80
49.460        53
49.480        60
49.500        93
49.520        40
49.540        70
49.560        70
49.580        73
49.600        60
49.620        60
49.640        87
49.660        50
49.680        43
49.700        90
49.720        50
49.740        60
49.760        70
49.780        67
49.800        63
49.820        47
49.840        47
49.860        43
49.880        77
49.900        40
49.920        67
49.940        50
49.960        70
49.980        37
50.000        50
50.020        43
50.040        63
50.060        70
50.080        50
50.100        73
50.120        53
50.140        53
50.160        80
50.180        87
50.200        63
50.220        43
50.240        57
50.260        33
50.280        70
50.300        53
50.320        47
50.340        57
50.360        57
50.380        60
50.400        40
50.420        73
50.440        60
50.460        47
50.480        63
50.500        57
50.520        87
50.540        80
50.560        50
50.580        40
50.600        53
50.620        43
50.640        67
50.660        67
50.680        63
50.700        47
50.720        90
50.740        73
50.760        73
50.780        77
50.800        90
50.820        60
50.840        73
50.860        47
50.880        57
50.900        57
50.920        47
50.940        57
50.960        47
50.980        73
51.000        70
51.020        50
51.040        67
51.060        40
51.080        60
51.100        50
51.120        43
51.140        40
51.160        60
51.180        50
51.200        40
51.220        93
51.240        53
51.260        63
51.280        67
51.300        60
51.320        63
51.340        70
51.360        70
51.380        37
51.400        80
51.420        53
51.440        43
51.460        67
51.480        83
51.500        80
51.520        57
51.540        80
51.560        70
51.580        67
51.600        63
51.620        73
51.640        63
51.660        67
51.680        90
51.700        70
51.720        37
51.740        50
51.760        73
51.780        73
51.800        90
51.820        67
51.840        77
51.860        77
51.880        47
51.900        73
51.920        93
51.940        87
51.960        53
51.980        80
52.000        60
52.020        30
52.040        77
52.060        67
52.080        53
52.100        73
52.120        53
52.140        57
52.160        63
52.180        50
52.200        63
52.220        60
52.240        83
52.260        70
52.280        73
52.300        73
52.320        70
52.340        90
52.360        80
52.380        87
52.400        83
52.420       117
52.440       117
52.460       120
52.480       183
52.500       283
52.520       536
52.540       936
52.560       970
52.580       883
52.600       476
52.620       280
52.640       237
52.660       353
52.680       520
52.700       503
52.720       443
52.740       353
52.760       207
52.780       103
52.800        93
52.820       100
52.840        70
52.860        90
52.880        53
52.900        73
52.920        50
52.940        63
52.960        83
52.980        43
53.000        50
53.020        53
53.040        63
53.060        37
53.080        53
53.100        57
53.120        53
53.140        70
53.160        47
53.180        63
53.200        70
53.220        57
53.240        57
53.260        63
53.280        77
53.300        83
53.320        83
53.340        57
53.360        80
53.380        57
53.400        67
53.420        60
53.440        63
53.460        30
53.480        83
53.500        60
53.520        73
53.540        73
53.560        40
53.580        70
53.600        63
53.620        43
53.640        40
53.660        57
53.680        40
53.700        40
53.720        43
53.740        60
53.760        80
53.780        57
53.800        67
53.820        73
53.840        60
53.860        77
53.880        40
53.900        53
53.920        80
53.940        53
53.960        50
53.980        83
54.000        63
54.020        43
54.040        63
54.060        67
54.080        53
54.100        47
54.120        47
54.140        73
54.160        80
54.180        50
54.200        50
54.220        67
54.240        73
54.260        67
54.280        60
54.300        47
54.320        37
54.340        63
54.360        87
54.380        70
54.400        63
54.420        70
54.440        30
54.460        67
54.480        50
54.500        67
54.520        70
54.540        50
54.560        63
54.580        77
54.600        67
54.620        67
54.640        50
54.660        47
54.680        40
54.700        80
54.720        77
54.740        53
54.760        73
54.780        57
54.800        80
54.820        53
54.840        90
54.860        60
54.880        97
54.900        60
54.920        60
54.940        73
54.960        60
54.980        47
55.000        67
55.020        47
55.040        53
55.060        67
55.080        57
55.100        77
55.120        40
55.140        40
55.160        47
55.180        60
55.200        47
55.220        57
55.240        27
55.260        77
55.280        77
55.300        50
55.320        47
55.340        47
55.360        50
55.380        60
55.400        57
55.420        37
55.440        57
55.460        53
55.480        57
55.500        87
55.520        60
55.540        47
55.560       100
55.580        63
55.600        60
55.620        90
55.640        50
55.660        53
55.680        60
55.700        80
55.720        63
55.740        87
55.760        87
55.780        87
55.800        53
55.820        87
55.840        73
55.860        53
55.880        97
55.900        93
55.920       110
55.940       110
55.960        90
55.980        87
56.000       120
56.020        97
56.040       107
56.060        70
56.080        80
56.100        77
56.120        73
56.140        77
56.160        63
56.180        90
56.200        93
56.220       130
56.240       120
56.260        80
56.280       117
56.300        97
56.320        83
56.340        60
56.360       117
56.380        93
56.400        80
56.420       133
56.440        90
56.460       137
56.480       117
56.500       117
56.520        73
56.540       120
56.560       120
56.580        83
56.600       110
56.620       127
56.640        90
56.660       130
56.680       100
56.700        93
56.720        87
56.740       103
56.760        93
56.780        83
56.800        73
56.820        80
56.840        70
56.860        87
56.880        73
56.900        80
56.920        87
56.940       110
56.960        47
56.980       103
57.000        80
57.020        73
57.040        93
57.060        73
57.080        83
57.100       110
57.120       123
57.140       110
57.160       100
57.180       100
57.200       120
57.220        90
57.240       127
57.260       117
57.280       123
57.300       120
57.320       127
57.340       107
57.360       177
57.380       253
57.400       300
57.420       417
57.440       616
57.460       866
57.480      1536
57.500      1916
57.520      2026
57.540      1419
57.560      1136
57.580       646
57.600       476
57.620       676
57.640       893
57.660      1153
57.680      1000
57.700       736
57.720       520
57.740       263
57.760       153
57.780       150
57.800       140
57.820       107
57.840        87
57.860       107
57.880        73
57.900        73
57.920        53
57.940        77
57.960        50
57.980        43
58.000        40
58.020        87
58.040        70
58.060        80
58.080        83
58.100        90
58.120        67
58.140        57
58.160        63
58.180        77
58.200        47
58.220        53
58.240        63
58.260        63
58.280        40
58.300        73
58.320        97
58.340        63
58.360        83
58.380        50
58.400        60
58.420        70
58.440        70
58.460        47
58.480        87
58.500        67
58.520        57
58.540        70
58.560        77
58.580        53
58.600       103
58.620        83
58.640        57
58.660        73
58.680        83
58.700        30
58.720        63
58.740        50
58.760        77
58.780        73
58.800        43
58.820        50
58.840        60
58.860        97
58.880        93
58.900        60
58.920        47
58.940        80
58.960        83
58.980        93
59.000        80
59.020        57
59.040        53
59.060        47
59.080        67
59.100        60
59.120        37
59.140        57
59.160        73
59.180       100
59.200        60
59.220        73
59.240        37
59.260        47
59.280        53
59.300        43
59.320        47
59.340        47
59.360        90
59.380        57
59.400        80
59.420        43
59.440        57
59.460        73
59.480        77
59.500       103
59.520        90
59.540        70
59.560        87
59.580        73
59.600        60
59.620        77
59.640        53
59.660        67
59.680        80
59.700       113
59.720       110
59.740       123
59.760       100
59.780       143
59.800       117
59.820        73
59.840        67
59.860       103
59.880       103
59.900       100
59.920        87
59.940       107
59.960        60
59.980         0
60.000         0
