20.000       270
20.020       197
20.040       267
20.060       223
20.080       247
20.100       270
20.120       220
20.140       243
20.160       230
20.180       227
20.200       257
20.220       223
20.240       227
20.260       273
20.280       250
20.300       273
20.320       260
20.340       247
20.360       190
20.380       243
20.400       240
20.420       237
20.440       243
20.460       233
20.480       260
20.500       287
20.520       230
20.540       323
20.560       207
20.580       220
20.600       230
20.620       357
20.640       257
20.660       260
20.680       263
20.700       247
20.720       253
20.740       270
20.760       300
20.780       267
20.800       233
20.820       260
20.840       263
20.860       250
20.880       227
20.900       187
20.920       277
20.940       273
20.960       217
20.980       203
21.000       223
21.020       270
21.040       220
21.060       220
21.080       233
21.100       233
21.120       220
21.140       217
21.160       250
21.180       197
21.200       250
21.220       257
21.240       207
21.260       247
21.280       223
21.300       217
21.320       290
21.340       277
21.360       267
21.380       197
21.400       247
21.420       243
21.440       217
21.460       227
21.480       280
21.500       223
21.520       267
21.540       250
21.560       227
21.580       263
21.600       293
21.620       250
21.640       247
21.660       240
21.680       227
21.700       220
21.720       207
21.740       257
21.760       267
21.780       213
21.800       253
21.820       247
21.840       173
21.860       203
21.880       247
21.900       247
21.920       200
21.940       223
21.960       267
21.980       250
22.000       193
22.020       227
22.040       240
22.060       253
22.080       303
22.100       197
22.120       210
22.140       227
22.160       230
22.180       180
22.200       207
22.220       230
22.240       200
22.260       180
22.280       203
22.300       210
22.320       273
22.340       227
22.360       203
22.380       210
22.400       217
22.420       220
22.440       213
22.460       243
22.480       233
22.500       210
22.520       210
22.540       240
22.560       207
22.580       233
22.600       200
22.620       240
22.640       183
22.660       230
22.680       203
22.700       227
22.720       200
22.740       210
22.760       207
22.780       190
22.800       217
22.820       230
22.840       207
22.860       197
22.880       223
22.900       223
22.920       213
22.940       263
22.960       207
22.980       203
23.000       217
23.020       187
23.040       200
23.060       180
23.080       167
23.100       200
23.120       210
23.140       163
23.160       193
23.180       187
23.200       170
23.220       217
23.240       187
23.260       210
23.280       190
23.300       240
23.320       223
23.340       163
23.360       260
23.380       233
23.400       233
23.420       177
23.440       193
23.460       193
23.480       167
23.500       180
23.520       200
23.540       223
23.560       230
23.580       170
23.600       240
23.620       180
23.640       187
23.660       200
23.680       210
23.700       140
23.720       193
23.740       247
23.760       193
23.780       207
23.800       177
23.820       203
23.840       227
23.860       187
23.880       157
23.900       210
23.920       193
23.940       173
23.960       200
23.980       180
24.000       200
24.020       213
24.040       203
24.060       170
24.080       180
24.100       187
24.120       147
24.140       223
24.160       177
24.180       203
24.200       193
24.220       187
24.240       207
24.260       163
24.280       147
24.300       267
24.320       183
24.340       170
24.360       213
24.380       170
24.400       190
24.420       190
24.440       183
24.460       203
24.480       187
24.500       220
24.520       210
24.540       223
24.560       193
24.580       193
24.600       173
24.620       193
24.640       147
24.660       157
24.680       147
24.700       177
24.720       170
24.740       160
24.760       207
24.780       153
24.800       217
24.820       183
24.840       237
24.860       167
24.880       197
24.900       197
24.920       193
24.940       183
24.960       213
24.980       217
25.000       213
25.020       193
25.040       247
25.060       180
25.080       133
25.100       203
25.120       173
25.140       140
25.160       160
25.180       167
25.200       220
25.220       213
25.240       207
25.260       153
25.280       233
25.300       187
25.320       157
25.340       230
25.360       227
25.380       183
25.400       160
25.420       163
25.440       197
25.460       210
25.480       177
25.500       163
25.520       260
25.540       207
25.560       197
25.580       220
25.600       230
25.620       310
25.640       227
25.660       167
25.680       230
25.700       170
25.720       203
25.740       163
25.760       140
25.780       187
25.800       167
25.820       163
25.840       147
25.860       217
25.880       200
25.900       117
25.920       197
25.940       167
25.960       177
25.980       143
26.000       190
26.020       157
26.040       200
26.060       180
26.080       147
26.100       177
26.120       160
26.140       163
26.160       167
26.180       153
26.200       177
26.220       187
26.240       117
26.260       187
26.280       147
26.300       193
26.320       143
26.340       247
26.360       133
26.380       143
26.400       153
26.420       167
26.440       173
26.460       190
26.480       190
26.500       163
26.520       143
26.540       173
26.560       197
26.580       170
26.600       170
26.620       120
26.640       233
26.660       177
26.680       143
26.700       207
26.720       190
26.740       177
26.760       173
26.780       160
26.800       130
26.820       153
26.840       187
26.860       107
26.880       153
26.900       183
26.920       150
26.940       137
26.960       170
26.980       177
27.000       123
27.020       170
27.040       143
27.060       133
27.080       190
27.100       167
27.120       200
27.140       153
27.160       173
27.180       143
27.200       177
27.220       163
27.240       170
27.260       113
27.280       153
27.300       133
27.320       160
27.340       173
27.360       177
27.380       150
27.400       163
27.420       200
27.440       207
27.460       153
27.480       137
27.500       173
27.520       160
27.540       203
27.560       120
27.580       210
27.600       177
27.620       180
27.640       170
27.660       190
27.680       203
27.700       160
27.720       180
27.740       200
27.760       170
27.780       133
27.800       150
27.820       167
27.840       220
27.860       173
27.880       160
27.900       153
27.920       197
27.940       130
27.960       197
27.980       177
28.000       233
28.020       177
28.040       197
28.060       170
28.080       183
28.100       160
28.120       193
28.140       150
28.160       183
28.180       177
28.200       187
28.220       160
28.240       233
28.260       183
28.280       137
28.300       183
28.320       150
28.340       200
28.360       130
28.380       147
28.400       130
28.420       133
28.440       147
28.460       170
28.480       143
28.500       207
28.520       127
28.540       160
28.560       170
28.580       173
28.600       117
28.620       187
28.640       150
28.660       163
28.680       140
28.700       120
28.720       147
28.740       110
28.760       120
28.780       137
28.800       170
28.820       157
28.840       150
28.860       163
28.880       157
28.900       173
28.920       150
28.940       163
28.960       167
28.980       137
29.000       143
29.020       130
29.040       183
29.060       130
29.080       133
29.100       163
29.120       117
29.140       160
29.160       193
29.180       123
29.200       183
29.220       163
29.240       160
29.260       160
29.280       107
29.300       147
29.320       150
29.340       170
29.360       137
29.380       133
29.400       140
29.420       123
29.440       137
29.460       143
29.480       220
29.500       137
29.520       150
29.540       173
29.560       160
29.580       153
29.600       133
29.620       200
29.640       157
29.660       137
29.680       167
29.700       127
29.720       163
29.740       143
29.760       143
29.780       177
29.800       143
29.820       197
29.840       173
29.860       153
29.880       140
29.900       160
29.920       140
29.940       143
29.960       160
29.980       140
30.000       177
30.020       130
30.040       137
30.060       120
30.080       157
30.100       113
30.120       143
30.140       150
30.160       130
30.180       157
30.200       143
30.220       147
30.240        93
30.260       140
30.280       110
30.300       133
30.320       133
30.340       120
30.360       127
30.380       150
30.400       167
30.420       163
30.440       137
30.460       130
30.480       143
30.500       150
30.520       157
30.540       133
30.560       157
30.580       170
30.600       183
30.620       157
30.640       130
30.660       167
30.680       120
30.700       207
30.720       190
30.740       153
30.760       150
30.780       177
30.800       183
30.820       173
30.840       193
30.860       217
30.880       133
30.900       203
30.920       193
30.940       203
30.960       177
30.980       140
31.000       157
31.020       163
31.040       153
31.060       153
31.080       127
31.100       137
31.120       170
31.140       150
31.160       160
31.180       137
31.200       137
31.220       113
31.240       170
31.260       103
31.280       133
31.300       130
31.320       100
31.340       133
31.360       143
31.380       113
31.400       130
31.420       157
31.440       173
31.460       160
31.480       120
31.500       167
31.520       123
31.540       120
31.560       127
31.580       110
31.600       167
31.620       153
31.640       140
31.660       120
31.680       133
31.700       150
31.720       153
31.740       100
31.760       130
31.780       140
31.800       110
31.820       127
31.840       157
31.860       107
31.880       110
31.900       193
31.920       110
31.940       170
31.960       120
31.980       137
32.000        90
32.020       137
32.040       127
32.060       137
32.080       120
32.100       130
32.120        90
32.140       120
32.160       127
32.180       140
32.200       150
32.220       133
32.240       110
32.260       123
32.280       163
32.300       100
32.320       163
32.340        90
32.360       103
32.380       113
32.400       107
32.420       117
32.440       120
32.460       100
32.480        97
32.500       113
32.520       157
32.540       113
32.560       103
32.580       123
32.600        87
32.620        80
32.640       160
32.660       113
32.680        87
32.700       137
32.720       133
32.740       113
32.760       113
32.780       123
32.800       123
32.820       127
32.840       127
32.860       113
32.880       147
32.900       140
32.920       140
32.940       103
32.960       127
32.980       143
33.000       110
33.020        83
33.040       157
33.060       113
33.080       107
33.100       110
33.120       113
33.140       120
33.160        93
33.180       100
33.200       100
33.220       127
33.240       140
33.260       107
33.280       123
33.300       100
33.320       103
33.340        93
33.360       117
33.380        97
33.400        70
33.420        90
33.440        93
33.460       123
33.480       107
33.500       107
33.520       123
33.540       103
33.560       117
33.580       107
33.600       140
33.620       120
33.640       130
33.660        90
33.680       143
33.700       120
33.720        87
33.740       140
33.760        93
33.780        93
33.800        90
33.820       137
33.840       110
33.860       127
33.880       120
33.900       110
33.920       123
33.940       127
33.960       123
33.980       123
34.000       103
34.020       113
34.040        77
34.060        87
34.080       120
34.100       120
34.120       120
34.140       120
34.160        97
34.180       123
34.200       110
34.220        77
34.240        87
34.260       120
34.280        93
34.300        70
34.320       117
34.340       137
34.360       107
34.380       103
34.400       133
34.420       127
34.440       100
34.460       100
34.480       103
34.500       150
34.520       103
34.540        67
34.560       137
34.580        93
34.600       113
34.620       110
34.640        90
34.660       117
34.680       100
34.700       100
34.720       110
34.740       130
34.760       163
34.780        97
34.800       117
34.820       137
34.840        97
34.860       140
34.880       123
34.900       153
34.920       110
34.940       117
34.960       133
34.980       147
35.000       153
35.020       170
35.040       160
35.060       237
35.080       317
35.100       367
35.120       463
35.140       543
35.160       656
35.180       526
35.200       540
35.220       463
35.240       350
35.260       360
35.280       350
35.300       190
35.320       153
35.340       127
35.360       137
35.380       130
35.400        90
35.420       107
35.440       103
35.460        60
35.480       123
35.500        77
35.520        87
35.540        90
35.560       117
35.580        77
35.600        53
35.620        83
35.640        70
35.660        93
35.680       123
35.700       107
35.720       100
35.740        73
35.760       120
35.780        87
35.800       103
35.820        77
35.840        97
35.860       127
35.880        90
35.900       143
35.920       150
35.940        60
35.960       120
35.980        97
36.000       103
36.020       103
36.040        83
36.060       130
36.080        73
36.100       113
36.120        87
36.140        90
36.160        93
36.180       110
36.200       113
36.220        80
36.240        80
36.260       100
36.280        80
36.300        93
36.320       110
36.340       123
36.360       110
36.380       123
36.400        77
36.420       120
36.440       120
36.460        97
36.480       113
36.500       107
36.520        87
36.540       127
36.560       110
36.580       103
36.600        87
36.620       110
36.640        93
36.660       127
36.680        97
36.700        83
36.720       103
36.740        90
36.760       137
36.780        97
36.800        97
36.820       123
36.840       110
36.860       103
36.880        83
36.900        90
36.920        83
36.940       140
36.960       140
36.980        97
37.000       100
37.020        93
37.040        97
37.060       113
37.080        83
37.100       123
37.120       107
37.140       110
37.160        97
37.180        83
37.200       123
37.220        93
37.240       153
37.260       127
37.280       123
37.300       103
37.320       113
37.340       100
37.360       103
37.380        57
37.400        90
37.420       130
37.440       117
37.460       137
37.480       133
37.500       153
37.520       143
37.540       120
37.560        93
37.580       140
37.600       130
37.620       143
37.640       137
37.660       140
37.680       137
37.700       147
37.720       170
37.740       187
37.760       220
37.780       240
37.800       293
37.820       213
37.840       217
37.860       243
37.880       197
37.900       227
37.920       260
37.940       293
37.960       293
37.980       243
38.000       380
38.020       436
38.040       593
38.060       723
38.080       810
38.100      1043
38.120      1116
38.140      1259
38.160      1313
38.180      1353
38.200      1133
38.220       916
38.240       923
38.260       820
38.280       626
38.300       540
38.320       460
38.340       380
38.360       253
38.380       190
38.400       220
38.420       170
38.440       200
38.460       153
38.480       170
38.500       140
38.520        93
38.540       143
38.560       167
38.580       113
38.600       133
38.620       110
38.640       100
38.660       137
38.680       103
38.700        87
38.720       153
38.740        90
38.760       140
38.780       107
38.800        83
38.820        73
38.840        67
38.860       110
38.880        63
38.900        90
38.920       117
38.940       100
38.960        97
38.980       100
39.000       103
39.020       130
39.040       110
39.060        97
39.080        97
39.100        83
39.120        87
39.140        83
39.160        77
39.180       123
39.200        90
39.220        97
39.240       100
39.260        90
39.280       153
39.300        90
39.320       113
39.340       103
39.360       140
39.380       120
39.400       117
39.420       127
39.440       113
39.460        93
39.480        83
39.500       103
39.520        80
39.540        93
39.560       110
39.580       110
39.600       127
39.620        80
39.640       103
39.660       100
39.680        57
39.700        73
39.720        83
39.740       133
39.760        97
39.780       120
39.800       127
39.820       110
39.840        97
39.860        83
39.880       107
39.900       113
39.920        93
39.940       107
39.960        83
39.980        60
40.000       117
40.020        90
40.040       120
40.060        97
40.080        73
40.100        67
40.120       113
40.140        83
40.160       100
40.180       117
40.200       127
40.220        93
40.240       113
40.260        93
40.280       107
40.300        80
40.320        83
40.340        73
40.360        70
40.380        97
40.400        93
40.420       127
40.440        47
40.460        83
40.480        93
40.500       110
40.520        73
40.540        77
40.560       103
40.580        83
40.600        77
40.620        87
40.640        83
40.660       107
40.680       130
40.700        80
40.720       100
40.740        67
40.760        73
40.780       123
40.800        97
40.820        77
40.840        83
40.860       107
40.880        93
40.900        87
40.920       110
40.940       120
40.960       107
40.980        80
41.000       113
41.020        63
41.040       103
41.060       110
41.080       107
41.100        77
41.120        87
41.140       130
41.160        83
41.180        67
41.200        93
41.220       110
41.240        80
41.260        97
41.280        83
41.300       100
41.320        83
41.340       100
41.360        77
41.380        80
41.400        90
41.420        93
41.440        87
41.460        93
41.480        97
41.500        87
41.520        93
41.540       110
41.560        87
41.580        83
41.600       140
41.620       117
41.640       213
41.660       180
41.680       170
41.700       153
41.720       120
41.740        70
41.760       163
41.780       107
41.800       113
41.820       130
41.840       143
41.860       100
41.880       103
41.900        93
41.920        83
41.940        73
41.960        43
41.980       100
42.000       123
42.020        93
42.040        77
42.060        90
42.080       103
42.100        87
42.120        80
42.140        73
42.160        80
42.180       140
42.200       120
42.220        90
42.240        90
42.260        87
42.280       127
42.300        93
42.320        83
42.340        73
42.360        87
42.380        83
42.400        83
42.420        60
42.440        87
42.460       110
42.480        67
42.500        77
42.520       107
42.540        83
42.560        97
42.580        67
42.600        60
42.620        90
42.640        97
42.660        50
42.680       107
42.700        80
42.720       130
42.740        67
42.760        90
42.780        70
42.800       110
42.820        70
42.840        93
42.860        80
42.880       127
42.900       110
42.920        60
42.940       113
42.960       110
42.980        83
43.000        83
43.020        80
43.040       100
43.060        60
43.080        93
43.100        97
43.120       133
43.140       103
43.160       130
43.180        97
43.200       137
43.220       147
43.240       153
43.260       190
43.280       187
43.300       247
43.320       367
43.340       450
43.360       503
43.380       483
43.400       493
43.420       433
43.440       313
43.460       333
43.480       267
43.500       273
43.520       243
43.540       147
43.560       127
43.580       150
43.600        87
43.620       117
43.640       110
43.660        70
43.680       100
43.700       100
43.720       103
43.740        40
43.760        63
43.780        90
43.800        80
43.820        87
43.840       107
43.860       120
43.880       103
43.900        90
43.920        90
43.940        93
43.960       107
43.980       117
44.000       103
44.020        93
44.040       100
44.060       170
44.080       107
44.100        97
44.120        73
44.140       123
44.160       117
44.180       120
44.200       103
44.220       100
44.240       140
44.260       143
44.280       117
44.300       147
44.320       147
44.340       143
44.360       123
44.380       120
44.400       173
44.420       123
44.440       133
44.460       113
44.480       183
44.500        70
44.520       120
44.540        90
44.560       107
44.580       107
44.600       117
44.620        53
44.640        80
44.660        73
44.680        97
44.700       100
44.720        90
44.740        93
44.760        83
44.780        73
44.800        97
44.820        97
44.840        73
44.860       107
44.880       113
44.900        70
44.920        83
44.940       130
44.960        63
44.980        93
45.000        83
45.020       107
45.040        60
45.060        83
45.080        80
45.100        53
45.120        83
45.140        73
45.160        83
45.180       103
45.200       120
45.220        77
45.240        77
45.260        77
45.280        60
45.300        80
45.320        70
45.340        73
45.360        70
45.380        70
45.400        73
45.420        60
45.440        83
45.460        77
45.480       100
45.500        97
45.520        87
45.540       113
45.560        73
45.580       100
45.600       117
45.620        83
45.640        67
45.660        97
45.680       113
45.700        73
45.720        93
45.740        77
45.760        97
45.780        73
45.800       107
45.820       103
45.840        73
45.860       100
45.880        77
45.900        60
45.920        90
45.940        87
45.960        77
45.980       100
46.000       100
46.020        83
46.040       103
46.060        73
46.080       100
46.100        43
46.120        90
46.140        97
46.160       117
46.180        40
46.200        73
46.220        73
46.240        93
46.260        90
46.280        77
46.300       123
46.320       107
46.340        87
46.360        63
46.380        93
46.400        77
46.420        83
46.440        80
46.460        60
46.480       107
46.500        67
46.520       107
46.540       100
46.560        90
46.580        70
46.600        70
46.620        90
46.640        83
46.660       113
46.680        53
46.700        73
46.720        80
46.740        87
46.760        80
46.780       107
46.800        77
46.820        97
46.840        97
46.860        77
46.880       103
46.900        87
46.920        60
46.940        83
46.960        73
46.980        60
47.000        80
47.020        93
47.040        87
47.060       123
47.080       100
47.100        43
47.120        73
47.140       120
47.160        73
47.180        80
47.200        97
47.220        70
47.240        57
47.260        67
47.280        67
47.300        97
47.320        90
47.340        63
47.360        57
47.380        67
47.400        83
47.420        70
47.440       107
47.460        60
47.480        90
47.500       110
47.520        63
47.540        70
47.560        63
47.580        50
47.600       100
47.620        70
47.640        67
47.660        73
47.680        90
47.700        70
47.720        77
47.740        77
47.760        87
47.780        63
47.800        90
47.820        67
47.840        80
47.860       113
47.880        60
47.900        90
47.920       110
47.940        67
47.960        70
47.980        57
48.000        77
48.020        87
48.040        90
48.060        93
48.080        77
48.100        67
48.120        80
48.140        83
48.160        93
48.180        70
48.200        77
48.220        77
48.240        70
48.260        73
48.280        70
48.300       110
48.320        67
48.340        70
48.360       103
48.380        87
48.400        73
48.420        87
48.440        63
48.460        83
48.480        87
48.500        90
48.520        90
48.540       120
48.560        73
48.580        67
48.600        90
48.620        93
48.640        73
48.660        53
48.680        93
48.700        90
48.720       107
48.740        93
48.760        63
48.780        77
48.800       103
48.820        80
48.840        73
48.860       110
48.880        97
48.900       100
48.920        80
48.940        90
48.960        83
48.980        80
49.000        87
49.020        70
49.040        87
49.060        77
49.080        47
49.100       117
49.120        77
49.140        90
49.160        77
49.180        73
49.200        93
49.220        73
49.240        93
49.260        60
49.280        93
49.300       123
49.320       120
49.340       117
49.360        93
49.380        73
49.400        57
49.420       100
49.440        57
49.460        70
49.480        67
49.500       103
49.520        77
49.540       110
49.560        93
49.580       110
49.600        87
49.620        87
49.640        80
49.660        80
49.680        63
49.700        53
49.720        73
49.740        93
49.760       103
49.780        90
49.800       110
49.820        70
49.840       107
49.860        83
49.880        63
49.900        60
49.920        97
49.940        97
49.960        83
49.980        70
50.000       110
50.020        80
50.040        50
50.060        60
50.080        60
50.100        87
50.120       103
50.140        70
50.160       110
50.180        60
50.200       107
50.220        93
50.240        80
50.260        87
50.280       100
50.300        77
50.320        77
50.340        97
50.360        60
50.380        87
50.400        63
50.420        90
50.440        93
50.460        97
50.480        73
50.500        93
50.520        83
50.540        60
50.560        73
50.580        70
50.600       110
50.620        77
50.640       123
50.660        93
50.680        87
50.700       103
50.720        87
50.740        83
50.760        87
50.780        90
50.800        87
50.820       113
50.840       100
50.860       100
50.880       107
50.900        77
50.920        60
50.940        80
50.960        80
50.980       107
51.000        80
51.020        80
51.040        73
51.060       100
51.080        77
51.100        87
51.120        77
51.140        83
51.160        47
51.180       100
51.200       110
51.220        93
51.240        70
51.260        73
51.280        90
51.300       117
51.320       103
51.340       103
51.360        70
51.380        87
51.400       107
51.420        57
51.440        87
51.460        67
51.480       107
51.500        83
51.520        93
51.540        97
51.560        77
51.580       127
51.600        53
51.620       113
51.640        90
51.660        73
51.680       107
51.700       117
51.720        50
51.740       110
51.760        90
51.780        83
51.800        90
51.820        83
51.840        93
51.860        90
51.880        90
51.900        63
51.920       103
51.940        77
51.960       103
51.980       103
52.000        53
52.020        77
52.040        57
52.060        77
52.080        67
52.100        70
52.120        93
52.140       110
52.160        83
52.180        90
52.200        90
52.220        90
52.240        70
52.260       107
52.280        77
52.300       107
52.320       100
52.340        90
52.360       137
52.380        93
52.400        97
52.420       130
52.440       143
52.460       123
52.480       180
52.500       210
52.520       283
52.540       393
52.560       363
52.580       390
52.600       320
52.620       227
52.640       187
52.660       157
52.680       260
52.700       240
52.720       190
52.740       217
52.760       127
52.780       120
52.800       107
52.820       100
52.840       113
52.860        80
52.880       100
52.900       107
52.920       110
52.940       110
52.960       123
52.980        87
53.000        87
53.020       100
53.040       103
53.060        70
53.080       123
53.100        73
53.120       123
53.140        93
53.160       113
53.180        87
53.200        87
53.220       133
53.240        87
53.260       120
53.280       113
53.300        57
53.320       103
53.340        83
53.360       137
53.380       103
53.400        97
53.420       123
53.440        90
53.460        63
53.480        87
53.500       103
53.520       120
53.540       103
53.560        87
53.580        77
53.600       113
53.620       103
53.640        83
53.660       107
53.680       123
53.700       100
53.720        87
53.740        77
53.760       133
53.780       110
53.800       133
53.820       113
53.840        93
53.860        83
53.880        63
53.900        73
53.920       100
53.940        90
53.960        90
53.980       153
54.000        63
54.020       110
54.040       110
54.060       100
54.080       123
54.100       123
54.120        73
54.140       117
54.160       107
54.180       140
54.200       170
54.220       110
54.240       143
54.260        97
54.280       110
54.300       110
54.320        97
54.340       140
54.360       123
54.380        93
54.400       127
54.420       157
54.440       137
54.460       120
54.480       147
54.500       113
54.520       153
54.540       150
54.560       163
54.580       163
54.600       177
54.620       257
54.640       240
54.660       250
54.680       307
54.700       340
54.720       337
54.740       400
54.760       503
54.780       626
54.800       756
54.820       786
54.840      1106
54.860      1279
54.880      1539
54.900      1986
54.920      2302
54.940      2676
54.960      2859
54.980      2929
55.000      3025
55.020      2752
55.040      2596
55.060      2442
55.080      2299
55.100      1983
55.120      1999
55.140      1899
55.160      1579
55.180      1353
55.200      1106
55.220       923
55.240       770
55.260       656
55.280       506
55.300       480
55.320       436
55.340       373
55.360       350
55.380       350
55.400       290
55.420       290
55.440       190
55.460       207
55.480       220
55.500       223
55.520       197
55.540       167
55.560       190
55.580       200
55.600       133
55.620       153
55.640       153
55.660       150
55.680       147
55.700       137
55.720       167
55.740       153
55.760       150
55.780       160
55.800       133
55.820       130
55.840       163
55.860       100
55.880       120
55.900       123
55.920       130
55.940       183
55.960       123
55.980       147
56.000       147
56.020       133
56.040       137
56.060       157
56.080       100
56.100        87
56.120       123
56.140       117
56.160        97
56.180        97
56.200       113
56.220        80
56.240       123
56.260       107
56.280        90
56.300       120
56.320       137
56.340       103
56.360       120
56.380       127
56.400        80
56.420        93
56.440       103
56.460       103
56.480        90
56.500       137
56.520       117
56.540       150
56.560       150
56.580        87
56.600       110
56.620        93
56.640       113
56.660       107
56.680        93
56.700        83
56.720       107
56.740        80
56.760       130
56.780        97
56.800        87
56.820       103
56.840       103
56.860       120
56.880       113
56.900       153
56.920       143
56.940       100
56.960       123
56.980       127
57.000       107
57.020        97
57.040       120
57.060        73
57.080       130
57.100       117
57.120       130
57.140        90
57.160        90
57.180       143
57.200       157
57.220       157
57.240       157
57.260       163
57.280       153
57.300       140
57.320       197
57.340       160
57.360       200
57.380       217
57.400       267
57.420       360
57.440       500
57.460       693
57.480      1023
57.500      1273
57.520      1306
57.540      1196
57.560       873
57.580       570
57.600       413
57.620       553
57.640       633
57.660       730
57.680       726
57.700       580
57.720       397
57.740       253
57.760       227
57.780       170
57.800       153
57.820       103
57.840        97
57.860       120
57.880        97
57.900       120
57.920        93
57.940       107
57.960        87
57.980       103
58.000        77
58.020        97
58.040        67
58.060       110
58.080       123
58.100        87
58.120        93
58.140       103
58.160        90
58.180       120
58.200       127
58.220       127
58.240        80
58.260        60
58.280       103
58.300       120
58.320       100
58.340        83
58.360       113
58.380       130
58.400        90
58.420        80
58.440        67
58.460       103
58.480        97
58.500        77
58.520       100
58.540        83
58.560       107
58.580        77
58.600       100
58.620        90
58.640        83
58.660        80
58.680       110
58.700       110
58.720        77
58.740        83
58.760        90
58.780        83
58.800        77
58.820        90
58.840        80
58.860        93
58.880       110
58.900        70
58.920        93
58.940        63
58.960       120
58.980        83
59.000       107
59.020        73
59.040       113
59.060       110
59.080       110
59.100       100
59.120       113
59.140        83
59.160        80
59.180        80
59.200       127
59.220        47
59.240       100
59.260        60
59.280        67
59.300       100
59.320        80
59.340       113
59.360        73
59.380        87
59.400        90
59.420        97
59.440       127
59.460        87
59.480        83
59.500        83
59.520       110
59.540        80
59.560        70
59.580        93
59.600       103
59.620        80
59.640        80
59.660       130
59.680        90
59.700       103
59.720       110
59.740       127
59.760       120
59.780       100
59.800       117
59.820       100
59.840         0
59.860         0
59.880         0
59.900         0
59.920         0
59.940         0
59.960         0
59.980         0
60.000         0
