20.000         0
20.020         0
20.040         0
20.060         0
20.080         0
20.100         0
20.120         0
20.140         0
20.160         0
20.180         0
20.200         0
20.220       160
20.240       230
20.260       287
20.280       207
20.300       217
20.320       213
20.340       177
20.360       253
20.380       190
20.400       237
20.420       273
20.440       243
20.460       197
20.480       237
20.500       180
20.520       240
20.540       227
20.560       230
20.580       270
20.600       243
20.620       210
20.640       207
20.660       190
20.680       223
20.700       227
20.720       210
20.740       217
20.760       193
20.780       170
20.800       200
20.820       237
20.840       240
20.860       240
20.880       220
20.900       260
20.920       253
20.940       227
20.960       247
20.980       263
21.000       237
21.020       253
21.040       207
21.060       190
21.080       230
21.100       183
21.120       187
21.140       220
21.160       177
21.180       183
21.200       203
21.220       233
21.240       223
21.260       210
21.280       220
21.300       217
21.320       197
21.340       217
21.360       203
21.380       173
21.400       193
21.420       230
21.440       230
21.460       183
21.480       253
21.500       213
21.520       193
21.540       170
21.560       177
21.580       210
21.600       197
21.620       233
21.640       193
21.660       200
21.680       220
21.700       210
21.720       223
21.740       187
21.760       240
21.780       197
21.800       197
21.820       273
21.840       217
21.860       230
21.880       253
21.900       217
21.920       220
21.940       230
21.960       177
21.980       183
22.000       197
22.020       197
22.040       160
22.060       213
22.080       213
22.100       183
22.120       233
22.140       197
22.160       177
22.180       197
22.200       217
22.220       177
22.240       183
22.260       203
22.280       187
22.300       207
22.320       170
22.340       213
22.360       157
22.380       163
22.400       203
22.420       213
22.440       187
22.460       157
22.480       177
22.500       180
22.520       230
22.540       150
22.560       143
22.580       193
22.600       190
22.620       187
22.640       183
22.660       163
22.680       187
22.700       213
22.720       167
22.740       160
22.760       217
22.780       183
22.800       203
22.820       187
22.840       190
22.860       197
22.880       193
22.900       190
22.920       227
22.940       200
22.960       217
22.980       193
23.000       160
23.020       203
23.040       233
23.060       180
23.080       167
23.100       193
23.120       170
23.140       143
23.160       180
23.180       203
23.200       173
23.220       173
23.240       183
23.260       173
23.280       177
23.300       207
23.320       257
23.340       167
23.360       207
23.380       187
23.400       190
23.420       117
23.440       150
23.460       187
23.480       180
23.500       187
23.520       200
23.540       157
23.560       210
23.580       167
23.600       187
23.620       143
23.640       190
23.660       173
23.680       190
23.700       177
23.720       193
23.740       187
23.760       180
23.780       160
23.800       197
23.820       150
23.840       143
23.860       143
23.880       157
23.900       143
23.920       163
23.940       173
23.960       157
23.980       143
24.000       153
24.020       130
24.040       203
24.060       173
24.080       187
24.100       173
24.120       197
24.140       170
24.160       143
24.180       153
24.200       167
24.220       190
24.240       150
24.260       173
24.280       167
24.300       173
24.320       137
24.340       147
24.360       163
24.380       153
24.400       167
24.420       180
24.440       170
24.460       180
24.480       163
24.500       157
24.520       203
24.540       120
24.560       177
24.580       170
24.600       153
24.620       173
24.640       133
24.660       193
24.680       163
24.700       150
24.720       170
24.740       127
24.760       167
24.780       193
24.800       187
24.820       150
24.840       147
24.860       120
24.880       160
24.900       193
24.920       167
24.940       150
24.960       150
24.980       157
25.000       180
25.020       147
25.040       147
25.060       163
25.080       177
25.100       130
25.120       193
25.140       180
25.160       133
25.180       167
25.200       187
25.220       167
25.240       147
25.260       170
25.280       157
25.300       133
25.320       157
25.340       160
25.360       203
25.380       223
25.400       237
25.420       213
25.440       183
25.460       243
25.480       297
25.500       297
25.520       383
25.540       430
25.560       463
25.580       700
25.600       790
25.620       610
25.640       536
25.660       370
25.680       417
25.700       243
25.720       227
25.740       207
25.760       167
25.780       117
25.800       130
25.820       157
25.840       170
25.860       120
25.880       143
25.900       130
25.920       147
25.940       117
25.960       143
25.980       123
26.000       153
26.020       173
26.040       140
26.060       133
26.080       110
26.100       110
26.120       147
26.140       130
26.160       143
26.180       113
26.200       133
26.220       117
26.240       140
26.260       137
26.280       143
26.300       113
26.320       160
26.340       133
26.360       127
26.380       133
26.400       113
26.420       150
26.440       140
26.460       147
26.480       123
26.500       177
26.520       157
26.540       143
26.560       133
26.580       170
26.600        97
26.620       133
26.640       150
26.660       147
26.680       143
26.700       123
26.720       147
26.740       133
26.760       123
26.780       110
26.800       123
26.820       123
26.840       133
26.860       143
26.880       150
26.900       120
26.920       127
26.940       140
26.960       153
26.980       157
27.000       147
27.020       130
27.040       130
27.060       133
27.080       147
27.100       137
27.120       153
27.140       133
27.160        93
27.180       140
27.200       130
27.220       133
27.240       123
27.260       120
27.280       133
27.300       167
27.320       107
27.340       113
27.360       120
27.380       127
27.400       107
27.420       167
27.440       113
27.460       100
27.480       100
27.500       130
27.520       113
27.540       117
27.560       120
27.580       100
27.600       120
27.620       107
27.640       137
27.660       123
27.680       157
27.700       110
27.720       120
27.740       117
27.760       147
27.780       133
27.800       127
27.820        90
27.840       123
27.860       110
27.880       140
27.900        80
27.920       167
27.940       120
27.960       123
27.980       173
28.000       137
28.020       143
28.040       130
28.060        93
28.080       133
28.100       117
28.120       147
28.140       110
28.160       130
28.180       120
28.200       137
28.220       120
28.240       100
28.260       133
28.280       143
28.300       113
28.320       127
28.340       107
28.360       140
28.380       133
28.400       110
28.420       107
28.440       113
28.460       140
28.480       110
28.500       150
28.520       133
28.540       123
28.560        97
28.580       130
28.600       130
28.620       117
28.640       147
28.660       140
28.680       143
28.700       133
28.720        97
28.740       110
28.760       107
28.780       113
28.800       127
28.820       130
28.840       130
28.860        70
28.880       100
28.900       117
28.920       113
28.940        97
28.960       100
28.980       140
29.000       107
29.020       100
29.040       107
29.060       110
29.080       153
29.100       107
29.120       100
29.140       153
29.160       103
29.180        70
29.200       103
29.220       143
29.240       100
29.260       123
29.280       130
29.300       133
29.320       123
29.340       133
29.360       110
29.380        93
29.400       117
29.420       113
29.440       127
29.460       117
29.480       147
29.500       147
29.520       110
29.540       120
29.560        97
29.580       127
29.600       103
29.620        93
29.640        73
29.660       137
29.680        83
29.700       143
29.720        97
29.740       107
29.760       120
29.780        87
29.800       133
29.820       133
29.840       130
29.860        83
29.880        97
29.900        60
29.920        87
29.940        87
29.960       117
29.980       103
30.000       100
30.020       100
30.040       113
30.060       117
30.080       137
30.100       123
30.120        97
30.140        93
30.160       100
30.180        87
30.200        93
30.220       100
30.240       133
30.260        87
30.280       117
30.300       113
30.320        80
30.340       127
30.360       123
30.380       113
30.400       110
30.420       123
30.440       100
30.460       127
30.480       113
30.500       100
30.520       110
30.540        90
30.560        93
30.580       113
30.600       117
30.620       110
30.640       120
30.660       137
30.680       130
30.700       123
30.720       110
30.740       117
30.760       107
30.780       147
30.800       103
30.820        87
30.840       103
30.860       117
30.880       103
30.900       143
30.920       147
30.940       103
30.960       113
30.980       133
31.000       173
31.020       113
31.040       147
31.060       113
31.080       127
31.100       130
31.120       127
31.140       160
31.160       120
31.180       123
31.200       147
31.220       220
31.240       150
31.260       193
31.280       227
31.300       183
31.320       180
31.340       263
31.360       313
31.380       267
31.400       350
31.420       367
31.440       423
31.460       430
31.480       470
31.500       546
31.520       490
31.540       516
31.560       570
31.580       670
31.600       550
31.620       620
31.640       633
31.660       643
31.680       620
31.700       530
31.720       596
31.740       476
31.760       536
31.780       503
31.800       500
31.820       480
31.840       440
31.860       330
31.880       426
31.900       357
31.920       347
31.940       233
31.960       313
31.980       277
32.000       253
32.020       207
32.040       213
32.060       167
32.080       173
32.100       190
32.120       170
32.140       143
32.160       143
32.180       177
32.200       187
32.220       107
32.240       120
32.260       167
32.280       117
32.300       157
32.320       157
32.340       117
32.360       127
32.380       110
32.400       127
32.420       110
32.440        83
32.460       120
32.480       127
32.500        87
32.520       150
32.540       160
32.560       100
32.580        97
32.600       120
32.620       120
32.640       113
32.660       140
32.680        70
32.700       100
32.720       107
32.740        73
32.760        93
32.780       130
32.800       130
32.820       100
32.840        77
32.860       130
32.880        97
32.900       100
32.920       107
32.940       103
32.960       123
32.980       137
33.000       100
33.020       120
33.040       100
33.060        83
33.080        90
33.100       100
33.120       133
33.140       123
33.160       180
33.180       120
33.200        90
33.220       127
33.240       130
33.260       127
33.280       120
33.300       127
33.320       123
33.340        83
33.360       120
33.380       117
33.400       123
33.420       170
33.440       130
33.460       113
33.480       103
33.500       123
33.520       130
33.540       153
33.560       153
33.580       133
33.600       130
33.620       137
33.640       133
33.660       207
33.680       197
33.700       177
33.720       183
33.740       183
33.760       210
33.780       197
33.800       207
33.820       283
33.840       160
33.860       300
33.880       280
33.900       280
33.920       333
33.940       400
33.960       373
33.980       486
34.000       493
34.020       626
34.040       603
34.060       846
34.080       906
34.100       946
34.120      1046
34.140      1243
34.160      1333
34.180      1383
34.200      1686
34.220      1826
34.240      1799
34.260      1833
34.280      2246
34.300      2102
34.320      2236
34.340      2312
34.360      2412
34.380      2152
34.400      2299
34.420      2149
34.440      2099
34.460      2016
34.480      1953
34.500      1879
34.520      1586
34.540      1416
34.560      1296
34.580      1293
34.600       993
34.620       853
34.640       873
34.660       720
34.680       720
34.700       550
34.720       573
34.740       503
34.760       397
34.780       463
34.800       363
34.820       420
34.840       290
34.860       337
34.880       290
34.900       320
34.920       290
34.940       323
34.960       273
34.980       417
35.000       433
35.020       426
35.040       593
35.060       700
35.080      1023
35.100      1293
35.120      1806
35.140      2279
35.160      2372
35.180      2206
35.200      1909
35.220      1613
35.240      1353
35.260      1230
35.280      1130
35.300       723
35.320       473
35.340       257
35.360       240
35.380       197
35.400       157
35.420       197
35.440       183
35.460       227
35.480       150
35.500       210
35.520       187
35.540       150
35.560       167
35.580       230
35.600       253
35.620       223
35.640       160
35.660       237
35.680       237
35.700       313
35.720       350
35.740       287
35.760       280
35.780       333
35.800       436
35.820       480
35.840       450
35.860       407
35.880       470
35.900       570
35.920       530
35.940       606
35.960       666
35.980       656
36.000       696
36.020       683
36.040       690
36.060       773
36.080       783
36.100       790
36.120       876
36.140       843
36.160       883
36.180       863
36.200       740
36.220       810
36.240       740
36.260       823
36.280       726
36.300       710
36.320       786
36.340       666
36.360       680
36.380       590
36.400       640
36.420       586
36.440       536
36.460       480
36.480       490
36.500       513
36.520       410
36.540       476
36.560       367
36.580       337
36.600       357
36.620       297
36.640       293
36.660       337
36.680       267
36.700       287
36.720       263
36.740       237
36.760       267
36.780       223
36.800       240
36.820       273
36.840       210
36.860       160
36.880       177
36.900       100
36.920       217
36.940       203
36.960       190
36.980       173
37.000       147
37.020       153
37.040       147
37.060       163
37.080       143
37.100       210
37.120       163
37.140        93
37.160       143
37.180       147
37.200       140
37.220       110
37.240       133
37.260       113
37.280        87
37.300       140
37.320       130
37.340       113
37.360        73
37.380        90
37.400       107
37.420        87
37.440       110
37.460       140
37.480       113
37.500       100
37.520       130
37.540       107
37.560       110
37.580       110
37.600       100
37.620       137
37.640       143
37.660       137
37.680       177
37.700       237
37.720       260
37.740       293
37.760       466
37.780       543
37.800       596
37.820       603
37.840       383
37.860       373
37.880       337
37.900       347
37.920       253
37.940       270
37.960       153
37.980       143
38.000        97
38.020        83
38.040        93
38.060        77
38.080       100
38.100        93
38.120       113
38.140       107
38.160        83
38.180       100
38.200       100
38.220       100
38.240       107
38.260       117
38.280       103
38.300        93
38.320       133
38.340        73
38.360       100
38.380       117
38.400        73
38.420        97
38.440        77
38.460        97
38.480       123
38.500        97
38.520       110
38.540        83
38.560       103
38.580        77
38.600       123
38.620        97
38.640       113
38.660        67
38.680        97
38.700        87
38.720        93
38.740       110
38.760        93
38.780        83
38.800        90
38.820       113
38.840       133
38.860        97
38.880       107
38.900        83
38.920        83
38.940       110
38.960       100
38.980        83
39.000       123
39.020        80
39.040        70
39.060        77
39.080        97
39.100       100
39.120        83
39.140        67
39.160        90
39.180       100
39.200       103
39.220        73
39.240        93
39.260        97
39.280        77
39.300        87
39.320       103
39.340        67
39.360        77
39.380        77
39.400        77
39.420        90
39.440        53
39.460        67
39.480       103
39.500        87
39.520        80
39.540       103
39.560       107
39.580        87
39.600        80
39.620       120
39.640        53
39.660        47
39.680        87
39.700        97
39.720        93
39.740        97
39.760        93
39.780        80
39.800        97
39.820        83
39.840        73
39.860        67
39.880        87
39.900        93
39.920       100
39.940        93
39.960        93
39.980        77
40.000       103
40.020        70
40.040       107
40.060       100
40.080        57
40.100       127
40.120        63
40.140        93
40.160        77
40.180        63
40.200        47
40.220        70
40.240       123
40.260        83
40.280        77
40.300        83
40.320        87
40.340        93
40.360        87
40.380        93
40.400        83
40.420        77
40.440        87
40.460       107
40.480        93
40.500       107
40.520        50
40.540        77
40.560        70
40.580        47
40.600        60
40.620        77
40.640        63
40.660        93
40.680        87
40.700        77
40.720        40
40.740        90
40.760       100
40.780        77
40.800        83
40.820        90
40.840        90
40.860        67
40.880        73
40.900        53
40.920        70
40.940        87
40.960        97
40.980        70
41.000        67
41.020        73
41.040        40
41.060        83
41.080        67
41.100        63
41.120        80
41.140        70
41.160        70
41.180        73
41.200        70
41.220        67
41.240        70
41.260        73
41.280        63
41.300        60
41.320        77
41.340        93
41.360        70
41.380        67
41.400        87
41.420        83
41.440        80
41.460        70
41.480        97
41.500        67
41.520        87
41.540       120
41.560       117
41.580       117
41.600       127
41.620       140
41.640       223
41.660       223
41.680       270
41.700       340
41.720       303
41.740       183
41.760       203
41.780       153
41.800       213
41.820       170
41.840       127
41.860       137
41.880        90
41.900       113
41.920        70
41.940        93
41.960        93
41.980        70
42.000       130
42.020        77
42.040        67
42.060        83
42.080        87
42.100        57
42.120        60
42.140        83
42.160        83
42.180        67
42.200        77
42.220       103
42.240       137
42.260        63
42.280        80
42.300        87
42.320        90
42.340        67
42.360        70
42.380        87
42.400       110
42.420        67
42.440        80
42.460       123
42.480        77
42.500        53
42.520        50
42.540        90
42.560        73
42.580        60
42.600        67
42.620       120
42.640        60
42.660        53
42.680        60
42.700        83
42.720        70
42.740        50
42.760        53
42.780        63
42.800        77
42.820        77
42.840        77
42.860        53
42.880        70
42.900        70
42.920        77
42.940        67
42.960        87
42.980       100
43.000        70
43.020        60
43.040       100
43.060        73
43.080       110
43.100       117
43.120        97
43.140       140
43.160       133
43.180       120
43.200       157
43.220       117
43.240       200
43.260       307
43.280       400
43.300       570
43.320       833
43.340       920
43.360      1213
43.380      1259
43.400      1346
43.420       966
43.440       716
43.460       786
43.480       620
43.500       653
43.520       516
43.540       333
43.560       190
43.580       107
43.600       113
43.620       120
43.640        80
43.660        73
43.680        93
43.700        90
43.720        93
43.740        53
43.760        53
43.780       100
43.800        80
43.820        60
43.840        57
43.860        67
43.880        60
43.900        70
43.920        77
43.940        67
43.960        60
43.980        77
44.000        87
44.020        87
44.040        80
44.060        73
44.080        50
44.100        73
44.120        77
44.140        60
44.160        67
44.180        77
44.200        50
44.220        67
44.240        70
44.260        80
44.280        70
44.300        83
44.320        67
44.340        73
44.360        73
44.380        80
44.400        63
44.420        60
44.440        80
44.460        67
44.480        77
44.500        37
44.520        60
44.540        87
44.560        77
44.580        83
44.600        87
44.620        53
44.640        77
44.660        70
44.680       100
44.700        50
44.720        70
44.740        67
44.760        73
44.780        60
44.800        57
44.820        83
44.840        77
44.860        67
44.880        87
44.900        63
44.920        67
44.940        53
44.960        60
44.980        53
45.000        87
45.020        80
45.040        77
45.060        83
45.080        73
45.100        80
45.120        60
45.140        73
45.160        50
45.180        63
45.200        67
45.220        77
45.240        67
45.260        93
45.280        57
45.300        67
45.320        77
45.340        60
45.360        53
45.380        73
45.400        30
45.420        63
45.440        63
45.460        77
45.480        73
45.500        67
45.520        37
45.540        67
45.560        40
45.580        77
45.600        97
45.620        67
45.640        63
45.660        93
45.680        50
45.700        63
45.720        47
45.740        50
45.760        73
45.780        53
45.800        63
45.820        43
45.840        87
45.860        60
45.880        60
45.900        63
45.920        67
45.940        83
45.960        57
45.980        73
46.000        43
46.020        80
46.040        90
46.060        63
46.080        77
46.100        83
46.120        57
46.140        67
46.160        80
46.180        70
46.200        57
46.220       117
46.240       110
46.260        83
46.280        60
46.300        87
46.320        73
46.340       103
46.360        97
46.380        93
46.400        97
46.420        73
46.440        83
46.460        90
46.480        77
46.500        57
46.520        70
46.540        80
46.560        83
46.580        60
46.600        83
46.620        70
46.640        83
46.660        80
46.680        63
46.700        77
46.720       117
46.740        90
46.760        77
46.780        97
46.800        47
46.820        70
46.840       130
46.860       130
46.880       117
46.900        70
46.920        80
46.940       130
46.960       107
46.980        77
47.000       113
47.020       123
47.040       110
47.060       147
47.080       127
47.100       147
47.120       153
47.140       153
47.160       150
47.180       130
47.200       113
47.220       157
47.240       143
47.260       150
47.280       157
47.300       173
47.320       137
47.340       177
47.360       133
47.380       160
47.400       170
47.420       150
47.440       197
47.460       173
47.480       157
47.500       153
47.520       190
47.540       173
47.560       163
47.580       127
47.600       170
47.620       177
47.640       200
47.660       167
47.680       200
47.700       147
47.720       150
47.740       150
47.760       117
47.780       170
47.800       127
47.820       137
47.840       127
47.860       123
47.880       127
47.900       117
47.920       127
47.940       127
47.960        97
47.980       140
48.000       107
48.020       103
48.040       113
48.060        80
48.080       107
48.100       113
48.120       103
48.140       113
48.160        80
48.180        93
48.200        90
48.220        73
48.240        80
48.260       110
48.280        93
48.300        77
48.320        87
48.340        77
48.360        90
48.380        97
48.400        87
48.420        83
48.440        57
48.460        70
48.480        60
48.500        60
48.520        93
48.540        50
48.560        70
48.580        57
48.600        83
48.620        77
48.640        77
48.660        70
48.680        73
48.700        80
48.720        67
48.740        77
48.760        80
48.780        80
48.800        83
48.820        77
48.840        53
48.860        83
48.880        50
48.900        60
48.920        60
48.940        77
48.960        57
48.980        70
49.000        90
49.020        57
49.040        43
49.060        50
49.080        47
49.100        60
49.120        40
49.140        50
49.160        73
49.180        77
49.200        57
49.220        63
49.240        53
49.260        53
49.280        43
49.300        63
49.320        57
49.340        70
49.360        63
49.380        63
49.400        47
49.420        40
49.440        67
49.460        73
49.480        77
49.500        47
49.520        50
49.540        73
49.560        63
49.580        57
49.600        50
49.620        50
49.640        70
49.660        30
49.680        77
49.700        47
49.720        73
49.740        77
49.760        60
49.780        63
49.800        83
49.820        50
49.840        47
49.860        43
49.880        53
49.900        47
49.920        47
49.940        80
49.960        50
49.980        53
50.000        63
50.020        43
50.040        73
50.060        57
50.080        53
50.100        60
50.120        63
50.140        50
50.160        60
50.180        67
50.200        57
50.220        77
50.240        43
50.260        43
50.280        73
50.300        73
50.320        63
50.340        60
50.360        77
50.380        70
50.400        67
50.420        63
50.440        53
50.460        60
50.480        57
50.500        63
50.520        33
50.540        63
50.560        50
50.580        60
50.600        40
50.620        57
50.640        70
50.660        63
50.680        83
50.700        63
50.720        60
50.740        40
50.760        90
50.780        80
50.800        63
50.820        93
50.840        57
50.860        73
50.880        67
50.900        43
50.920        77
50.940        47
50.960        50
50.980        53
51.000        63
51.020        67
51.040        57
51.060        63
51.080        30
51.100        83
51.120        63
51.140        53
51.160        63
51.180        53
51.200        60
51.220        67
51.240        60
51.260        50
51.280        60
51.300        57
51.320        73
51.340        70
51.360        57
51.380        60
51.400        70
51.420        47
51.440        77
51.460        67
51.480        73
51.500        60
51.520        70
51.540        67
51.560        60
51.580        77
51.600        70
51.620        90
51.640        73
51.660        57
51.680        53
51.700        63
51.720        47
51.740        40
51.760        87
51.780        63
51.800        57
51.820        70
51.840        60
51.860        47
51.880        63
51.900        77
51.920        87
51.940        70
51.960        63
51.980        67
52.000        80
52.020        67
52.040        47
52.060        43
52.080        83
52.100        73
52.120        53
52.140        60
52.160        60
52.180        37
52.200        50
52.220        53
52.240        70
52.260        83
52.280        90
52.300        63
52.320        80
52.340        67
52.360        80
52.380       117
52.400        73
52.420       113
52.440       107
52.460       133
52.480       220
52.500       303
52.520       520
52.540       670
52.560       670
52.580       670
52.600       573
52.620       486
52.640       413
52.660       343
52.680       383
52.700       403
52.720       380
52.740       277
52.760       280
52.780       193
52.800       117
52.820       110
52.840        67
52.860       113
52.880        77
52.900        53
52.920        60
52.940        80
52.960        53
52.980        83
53.000        60
53.020        83
53.040        50
53.060        67
53.080        57
53.100        67
53.120       117
53.140        40
53.160        50
53.180        57
53.200        60
53.220        63
53.240        67
53.260        67
53.280        63
53.300        73
53.320        73
53.340        63
53.360        70
53.380        63
53.400        47
53.420        60
53.440        53
53.460        63
53.480        67
53.500        63
53.520        80
53.540        57
53.560        73
53.580        43
53.600        47
53.620        67
53.640        60
53.660        43
53.680        73
53.700        43
53.720        40
53.740        53
53.760        37
53.780        47
53.800        70
53.820        47
53.840        63
53.860        53
53.880        47
53.900        70
53.920        63
53.940        63
53.960        67
53.980        50
54.000        60
54.020        80
54.040        40
54.060        50
54.080        47
54.100        60
54.120        50
54.140        73
54.160        50
54.180        73
54.200        70
54.220        60
54.240        50
54.260        53
54.280        60
54.300        60
54.320        63
54.340        43
54.360        37
54.380        57
54.400        40
54.420        53
54.440        63
54.460        77
54.480        53
54.500        67
54.520        63
54.540        70
54.560        67
54.580        70
54.600        80
54.620        70
54.640        87
54.660        57
54.680        37
54.700        60
54.720        73
54.740        50
54.760        53
54.780        53
54.800        83
54.820        73
54.840        80
54.860        77
54.880        63
54.900        63
54.920        63
54.940        37
54.960        47
54.980        70
55.000        47
55.020        67
55.040        70
55.060        83
55.080        50
55.100        40
55.120        67
55.140        50
55.160        80
55.180        70
55.200        67
55.220        77
55.240        70
55.260        70
55.280        57
55.300        77
55.320        70
55.340        83
55.360        63
55.380        53
55.400        97
55.420        90
55.440        53
55.460        57
55.480        77
55.500        80
55.520        73
55.540        63
55.560        87
55.580        77
55.600        57
55.620        83
55.640       113
55.660       113
55.680        77
55.700       107
55.720       107
55.740       117
55.760       117
55.780       110
55.800       100
55.820       140
55.840       143
55.860       133
55.880       143
55.900       117
55.920       117
55.940       143
55.960       137
55.980       183
56.000       183
56.020       170
56.040       163
56.060       167
56.080       187
56.100       240
56.120       180
56.140       220
56.160       203
56.180       197
56.200       227
56.220       163
56.240       223
56.260       230
56.280       213
56.300       213
56.320       227
56.340       190
56.360       170
56.380       207
56.400       193
56.420       193
56.440       180
56.460       227
56.480       210
56.500       193
56.520       237
56.540       207
56.560       130
56.580       157
56.600       240
56.620       167
56.640       193
56.660       203
56.680       180
56.700       160
56.720       127
56.740       147
56.760       140
56.780       137
56.800       123
56.820       140
56.840       183
56.860        80
56.880        87
56.900       137
56.920       147
56.940       123
56.960       130
56.980        87
57.000       100
57.020       153
57.040        83
57.060       117
57.080       133
57.100       103
57.120       143
57.140       107
57.160       120
57.180       157
57.200       123
57.220       103
57.240       133
57.260       147
57.280       140
57.300       187
57.320       217
57.340       203
57.360       210
57.380       327
57.400       436
57.420       756
57.440      1053
57.460      1339
57.480      1756
57.500      2049
57.520      2366
57.540      2312
57.560      1946
57.580      1279
57.600       973
57.620       980
57.640      1000
57.660      1066
57.680      1210
57.700      1123
57.720       910
57.740       656
57.760       347
57.780       307
57.800       170
57.820       160
57.840       103
57.860       120
57.880        83
57.900        97
57.920        80
57.940        83
57.960        63
57.980       117
58.000        70
58.020        70
58.040        77
58.060        87
58.080        87
58.100        70
58.120        83
58.140        67
58.160        70
58.180        93
58.200        60
58.220        90
58.240        80
58.260        73
58.280        57
58.300        67
58.320        83
58.340        40
58.360       107
58.380        60
58.400        77
58.420        63
58.440        67
58.460        80
58.480        47
58.500        63
58.520        83
58.540        43
58.560        63
58.580        60
58.600        43
58.620        67
58.640        57
58.660        67
58.680        70
58.700        57
58.720        60
58.740        93
58.760        70
58.780        37
58.800        50
58.820        70
58.840        77
58.860        77
58.880        57
58.900        83
58.920        80
58.940        70
58.960        77
58.980        57
59.000        60
59.020        57
59.040        53
59.060        80
59.080        73
59.100        57
59.120        60
59.140        83
59.160        63
59.180        77
59.200        70
59.220        57
59.240       100
59.260        37
59.280        43
59.300        53
59.320        57
59.340        50
59.360        53
59.380        77
59.400        87
59.420        90
59.440       110
59.460        67
59.480        70
59.500        77
59.520        57
59.540        67
59.560        97
59.580        63
59.600        97
59.620        97
59.640        90
59.660        40
59.680       110
59.700        87
59.720        67
59.740       110
59.760        87
59.780       120
59.800        83
59.820       143
59.840       137
59.860        97
59.880        77
59.900        77
59.920        93
59.940        87
59.960        60
59.980       100
60.000       110
