20.000         0
20.020         0
20.040         0
20.060         0
20.080         0
20.100         0
20.120         3
20.140         0
20.160         0
20.180        20
20.200       220
20.220       260
20.240       223
20.260       197
20.280       250
20.300       217
20.320       163
20.340       270
20.360       230
20.380       220
20.400       250
20.420       233
20.440       257
20.460       263
20.480       230
20.500       247
20.520       240
20.540       303
20.560       217
20.580       240
20.600       210
20.620       263
20.640       257
20.660       257
20.680       203
20.700       180
20.720       217
20.740       287
20.760       237
20.780       220
20.800       227
20.820       243
20.840       227
20.860       180
20.880       237
20.900       263
20.920       253
20.940       213
20.960       193
20.980       290
21.000       223
21.020       203
21.040       180
21.060       227
21.080       227
21.100       277
21.120       183
21.140       220
21.160       263
21.180       233
21.200       200
21.220       247
21.240       223
21.260       250
21.280       183
21.300       237
21.320       217
21.340       227
21.360       190
21.380       263
21.400       233
21.420       227
21.440       230
21.460       243
21.480       187
21.500       190
21.520       237
21.540       213
21.560       197
21.580       193
21.600       203
21.620       233
21.640       210
21.660       190
21.680       210
21.700       223
21.720       193
21.740       160
21.760       217
21.780       233
21.800       237
21.820       203
21.840       190
21.860       227
21.880       223
21.900       217
21.920       170
21.940       190
21.960       197
21.980       187
22.000       257
22.020       193
22.040       197
22.060       193
22.080       193
22.100       197
22.120       223
22.140       210
22.160       213
22.180       190
22.200       233
22.220       160
22.240       207
22.260       200
22.280       210
22.300       190
22.320       190
22.340       223
22.360       167
22.380       213
22.400       160
22.420       220
22.440       213
22.460       227
22.480       180
22.500       180
22.520       207
22.540       170
22.560       207
22.580       243
22.600       163
22.620       217
22.640       190
22.660       213
22.680       260
22.700       187
22.720       207
22.740       157
22.760       223
22.780       210
22.800       177
22.820       197
22.840       207
22.860       163
22.880       197
22.900       167
22.920       177
22.940       203
22.960       183
22.980       210
23.000       220
23.020       187
23.040       197
23.060       183
23.080       187
23.100       190
23.120       190
23.140       200
23.160       203
23.180       217
23.200       217
23.220       193
23.240       200
23.260       220
23.280       203
23.300       187
23.320       207
23.340       167
23.360       200
23.380       267
23.400       187
23.420       187
23.440       203
23.460       163
23.480       223
23.500       163
23.520       173
23.540       193
23.560       147
23.580       227
23.600       167
23.620       217
23.640       193
23.660       160
23.680       143
23.700       213
23.720       200
23.740       183
23.760       183
23.780       140
23.800       147
23.820       173
23.840       123
23.860       183
23.880       193
23.900       177
23.920       143
23.940       183
23.960       153
23.980       203
24.000       203
24.020       163
24.040       163
24.060       143
24.080       153
24.100       213
24.120       193
24.140       180
24.160       213
24.180       170
24.200       153
24.220       160
24.240       170
24.260       157
24.280       203
24.300       170
24.320       157
24.340       163
24.360       197
24.380       143
24.400       157
24.420       183
24.440       200
24.460       113
24.480       193
24.500       147
24.520       167
24.540       197
24.560       160
24.580       163
24.600       160
24.620       173
24.640       197
24.660       160
24.680       177
24.700       160
24.720       227
24.740       200
24.760       220
24.780       153
24.800       200
24.820       160
24.840       147
24.860       163
24.880       183
24.900       137
24.920       163
24.940       130
24.960       167
24.980       127
25.000       110
25.020       153
25.040       167
25.060       150
25.080       190
25.100       183
25.120       193
25.140       173
25.160       137
25.180       213
25.200       163
25.220       160
25.240       217
25.260       183
25.280       150
25.300       153
25.320       150
25.340       227
25.360       207
25.380       290
25.400       250
25.420       240
25.440       263
25.460       267
25.480       270
25.500       337
25.520       283
25.540       413
25.560       516
25.580       700
25.600       856
25.620       746
25.640       740
25.660       540
25.680       413
25.700       327
25.720       237
25.740       180
25.760       180
25.780       137
25.800       153
25.820       160
25.840       130
25.860       137
25.880       150
25.900       173
25.920       113
25.940       160
25.960       117
25.980       157
26.000       163
26.020       147
26.040       117
26.060       147
26.080       117
26.100       160
26.120       123
26.140       143
26.160       153
26.180       180
26.200       120
26.220       120
26.240       123
26.260       113
26.280       160
26.300       140
26.320       147
26.340       160
26.360       123
26.380       167
26.400       137
26.420       153
26.440       153
26.460       123
26.480       107
26.500       110
26.520       103
26.540       110
26.560       143
26.580       140
26.600       140
26.620       143
26.640       123
26.660       143
26.680       173
26.700       123
26.720       157
26.740       110
26.760       117
26.780       127
26.800       113
26.820       120
26.840       120
26.860       127
26.880       150
26.900       103
26.920       123
26.940       137
26.960       120
26.980       100
27.000       113
27.020       107
27.040       113
27.060       133
27.080       137
27.100       130
27.120        93
27.140       140
27.160       103
27.180       147
27.200       150
27.220       147
27.240       140
27.260       127
27.280       117
27.300       123
27.320       100
27.340       100
27.360       120
27.380       173
27.400       100
27.420       130
27.440       117
27.460       103
27.480       100
27.500        70
27.520        77
27.540        97
27.560       107
27.580       140
27.600       137
27.620       140
27.640       140
27.660       140
27.680        97
27.700        83
27.720       140
27.740       130
27.760        97
27.780       107
27.800       103
27.820       107
27.840        80
27.860       153
27.880       127
27.900       110
27.920       123
27.940       100
27.960       140
27.980       123
28.000       113
28.020       120
28.040       123
28.060        93
28.080       110
28.100       127
28.120       127
28.140        90
28.160       143
28.180       173
28.200       133
28.220       120
28.240       153
28.260       120
28.280       133
28.300        93
28.320       130
28.340       147
28.360       110
28.380        90
28.400       137
28.420       123
28.440        80
28.460       100
28.480       100
28.500       103
28.520       103
28.540       123
28.560       130
28.580       130
28.600       170
28.620        93
28.640       130
28.660       123
28.680       107
28.700       180
28.720       173
28.740       120
28.760       107
28.780       107
28.800       160
28.820       140
28.840       120
28.860       100
28.880       110
28.900       123
28.920       107
28.940       127
28.960       110
28.980       110
29.000       123
29.020       130
29.040       100
29.060       137
29.080       150
29.100       150
29.120       137
29.140       103
29.160        93
29.180       120
29.200       143
29.220       100
29.240       107
29.260       160
29.280        93
29.300       117
29.320        90
29.340       127
29.360       117
29.380       130
29.400       120
29.420       147
29.440       147
29.460       100
29.480       110
29.500        93
29.520       117
29.540        90
29.560       123
29.580       123
29.600       153
29.620       100
29.640       113
29.660       103
29.680       120
29.700       100
29.720       140
29.740       113
29.760        97
29.780        93
29.800       110
29.820       107
29.840       113
29.860        80
29.880       120
29.900        97
29.920       137
29.940       103
29.960       100
29.980       117
30.000       103
30.020        87
30.040       130
30.060       107
30.080        87
30.100       120
30.120        97
30.140        97
30.160       120
30.180        63
30.200       123
30.220        90
30.240        93
30.260        90
30.280       107
30.300       103
30.320        93
30.340       110
30.360       127
30.380        87
30.400       110
30.420       107
30.440       127
30.460       133
30.480        90
30.500       113
30.520       130
30.540        67
30.560       107
30.580       130
30.600       150
30.620       100
30.640       100
30.660       130
30.680       100
30.700       157
30.720        97
30.740        80
30.760       123
30.780       123
30.800       110
30.820       103
30.840       117
30.860       157
30.880       123
30.900       160
30.920       143
30.940       130
30.960       223
30.980       223
31.000       217
31.020       230
31.040       230
31.060       180
31.080       200
31.100       160
31.120       167
31.140       177
31.160       153
31.180       147
31.200       113
31.220       113
31.240       147
31.260        93
31.280       123
31.300        93
31.320       103
31.340       107
31.360       113
31.380       143
31.400       147
31.420       123
31.440       127
31.460        77
31.480       123
31.500       103
31.520       113
31.540        93
31.560       123
31.580       127
31.600       130
31.620       113
31.640       117
31.660       117
31.680       107
31.700       123
31.720       177
31.740       117
31.760       110
31.780       117
31.800       147
31.820       103
31.840       100
31.860       103
31.880        97
31.900       117
31.920       103
31.940        97
31.960       110
31.980        87
32.000        90
32.020        60
32.040       107
32.060       123
32.080        77
32.100        80
32.120       127
32.140       110
32.160       110
32.180        70
32.200       127
32.220       133
32.240       130
32.260       103
32.280       133
32.300       107
32.320       103
32.340        80
32.360        87
32.380       103
32.400        90
32.420        83
32.440       107
32.460        80
32.480        97
32.500        97
32.520       113
32.540       100
32.560       113
32.580       113
32.600       107
32.620        83
32.640       103
32.660       123
32.680        60
32.700        97
32.720       113
32.740       137
32.760       100
32.780       130
32.800        97
32.820        93
32.840        70
32.860       113
32.880       107
32.900       123
32.920       100
32.940       130
32.960       117
32.980        87
33.000        90
33.020       120
33.040       120
33.060        90
33.080       127
33.100       153
33.120       133
33.140       130
33.160       140
33.180       130
33.200       163
33.220       150
33.240       260
33.260       200
33.280       203
33.300       263
33.320       213
33.340       203
33.360       257
33.380       220
33.400       223
33.420       153
33.440       240
33.460       207
33.480       207
33.500       263
33.520       260
33.540       213
33.560       217
33.580       243
33.600       267
33.620       300
33.640       267
33.660       233
33.680       217
33.700       243
33.720       273
33.740       280
33.760       267
33.780       240
33.800       223
33.820       277
33.840       313
33.860       340
33.880       380
33.900       307
33.920       383
33.940       400
33.960       373
33.980       436
34.000       480
34.020       510
34.040       696
34.060       766
34.080       763
34.100      1033
34.120      1296
34.140      1429
34.160      1773
34.180      2449
34.200      3032
34.220      3585
34.240      4625
34.260      5581
34.280      7127
34.300      8353
34.320     10246
34.340     13448
34.360     16210
34.380     19905
34.400     22758
34.420     24853
34.440     26499
34.460     25856
34.480     23890
34.500     21062
34.520     18919
34.540     16200
34.560     12961
34.580     10416
34.600      7840
34.620      6164
34.640      4595
34.660      3492
34.680      2669
34.700      1926
34.720      1556
34.740      1359
34.760      1143
34.780      1056
34.800       836
34.820       756
34.840       640
34.860       510
34.880       520
34.900       483
34.920       536
34.940       580
34.960       513
34.980       516
35.000       523
35.020       620
35.040       593
35.060       646
35.080       890
35.100      1176
35.120      1693
35.140      2172
35.160      2609
35.180      2356
35.200      2242
35.220      1736
35.240      1496
35.260      1303
35.280      1253
35.300       896
35.320       523
35.340       340
35.360       283
35.380       300
35.400       297
35.420       237
35.440       257
35.460       250
35.480       217
35.500       210
35.520       207
35.540       197
35.560       200
35.580       220
35.600       230
35.620       220
35.640       220
35.660       133
35.680       203
35.700       213
35.720       157
35.740       197
35.760       220
35.780       183
35.800       177
35.820       187
35.840       143
35.860       203
35.880       190
35.900       160
35.920       170
35.940       197
35.960       160
35.980       187
36.000       140
36.020       140
36.040       160
36.060       207
36.080       163
36.100       123
36.120       190
36.140       167
36.160       150
36.180       147
36.200       150
36.220       137
36.240       200
36.260       193
36.280       203
36.300       157
36.320       220
36.340       197
36.360       170
36.380       197
36.400       177
36.420       147
36.440       173
36.460       180
36.480       200
36.500       177
36.520       150
36.540       170
36.560       173
36.580       173
36.600       210
36.620       157
36.640       153
36.660       163
36.680       133
36.700       183
36.720       177
36.740       160
36.760       130
36.780       163
36.800       153
36.820       197
36.840       147
36.860       180
36.880       130
36.900       160
36.920       130
36.940       147
36.960       110
36.980       160
37.000       187
37.020       193
37.040       137
37.060       153
37.080       157
37.100       163
37.120       217
37.140       170
37.160       163
37.180       127
37.200       167
37.220       140
37.240       120
37.260       143
37.280       170
37.300       143
37.320        97
37.340       120
37.360       140
37.380       167
37.400       127
37.420       160
37.440       130
37.460       133
37.480       163
37.500       137
37.520       133
37.540       107
37.560       173
37.580       190
37.600       127
37.620       143
37.640       157
37.660       223
37.680       160
37.700       250
37.720       277
37.740       307
37.760       353
37.780       436
37.800       460
37.820       440
37.840       320
37.860       270
37.880       290
37.900       267
37.920       230
37.940       163
37.960       147
37.980       123
38.000       177
38.020       127
38.040       133
38.060       103
38.080       130
38.100       143
38.120       157
38.140       127
38.160       113
38.180       177
38.200       123
38.220       123
38.240       107
38.260       117
38.280       137
38.300       133
38.320       127
38.340       130
38.360        90
38.380       133
38.400       137
38.420       103
38.440       140
38.460       133
38.480       100
38.500       113
38.520       107
38.540       113
38.560       110
38.580        77
38.600       100
38.620        93
38.640       107
38.660       113
38.680       120
38.700       103
38.720       130
38.740       147
38.760       100
38.780       103
38.800       127
38.820       103
38.840       113
38.860       123
38.880        93
38.900       133
38.920       150
38.940       127
38.960       157
38.980       127
39.000       107
39.020       167
39.040        87
39.060       120
39.080       147
39.100       157
39.120       103
39.140        97
39.160       113
39.180       110
39.200       103
39.220       120
39.240       103
39.260        90
39.280        90
39.300       117
39.320       130
39.340       120
39.360        97
39.380       103
39.400       143
39.420       123
39.440       100
39.460       127
39.480       110
39.500       100
39.520       113
39.540       123
39.560        83
39.580       100
39.600       123
39.620       107
39.640       127
39.660        90
39.680       110
39.700       100
39.720       110
39.740       113
39.760       147
39.780       123
39.800       110
39.820       107
39.840       107
39.860       157
39.880       103
39.900       110
39.920        83
39.940        87
39.960       103
39.980       103
40.000       113
40.020        73
40.040       117
40.060        77
40.080       100
40.100        93
40.120       110
40.140        60
40.160        77
40.180       100
40.200       117
40.220        87
40.240       123
40.260       133
40.280       110
40.300        97
40.320        60
40.340       103
40.360       107
40.380       110
40.400       107
40.420        67
40.440        73
40.460       113
40.480        97
40.500        97
40.520       110
40.540        87
40.560        90
40.580        87
40.600       127
40.620        90
40.640        97
40.660        63
40.680        77
40.700       110
40.720        77
40.740        80
40.760       113
40.780        77
40.800        83
40.820       107
40.840        87
40.860        93
40.880        90
40.900       117
40.920       100
40.940        83
40.960       103
40.980       103
41.000       103
41.020        77
41.040       123
41.060        77
41.080       100
41.100        97
41.120        70
41.140       100
41.160        73
41.180        90
41.200        93
41.220        87
41.240       123
41.260        67
41.280       143
41.300        87
41.320        83
41.340       103
41.360       113
41.380       140
41.400        83
41.420        97
41.440       100
41.460        73
41.480       123
41.500       113
41.520       133
41.540        97
41.560       130
41.580        97
41.600       137
41.620       143
41.640       163
41.660       277
41.680       253
41.700       267
41.720       237
41.740       213
41.760       187
41.780       177
41.800       170
41.820       207
41.840       150
41.860        87
41.880       107
41.900       100
41.920       127
41.940       117
41.960       100
41.980        97
42.000       107
42.020       103
42.040        67
42.060        93
42.080       107
42.100       110
42.120       110
42.140       100
42.160        97
42.180        83
42.200        73
42.220       110
42.240        93
42.260       120
42.280        87
42.300        87
42.320        97
42.340        80
42.360        60
42.380        80
42.400        87
42.420        77
42.440        87
42.460        87
42.480        87
42.500        83
42.520       103
42.540       113
42.560       103
42.580        83
42.600        83
42.620       100
42.640        83
42.660        70
42.680        67
42.700        83
42.720        70
42.740        80
42.760        80
42.780        83
42.800        77
42.820        97
42.840       103
42.860        73
42.880        87
42.900       103
42.920        83
42.940        90
42.960        77
42.980       127
43.000       130
43.020        83
43.040       107
43.060       117
43.080       113
43.100       100
43.120       107
43.140       117
43.160       173
43.180       163
43.200       123
43.220       180
43.240       233
43.260       360
43.280       290
43.300       373
43.320       590
43.340       940
43.360      1279
43.380      1413
43.400      1273
43.420      1140
43.440       856
43.460       646
43.480       733
43.500       790
43.520       660
43.540       513
43.560       250
43.580       160
43.600       133
43.620       120
43.640       117
43.660       100
43.680        73
43.700        90
43.720       110
43.740        87
43.760        67
43.780        83
43.800       103
43.820       110
43.840        90
43.860        90
43.880        67
43.900        83
43.920        80
43.940        73
43.960        93
43.980        67
44.000        63
44.020        73
44.040       103
44.060        50
44.080        53
44.100        93
44.120        70
44.140        67
44.160        70
44.180       117
44.200        77
44.220        57
44.240        70
44.260        73
44.280        80
44.300        57
44.320        63
44.340        83
44.360        63
44.380        63
44.400       100
44.420        43
44.440        97
44.460        53
44.480        77
44.500        67
44.520        67
44.540        73
44.560       110
44.580        73
44.600        63
44.620       100
44.640        67
44.660        63
44.680        77
44.700        83
44.720        83
44.740        60
44.760        70
44.780        87
44.800        77
44.820        50
44.840        63
44.860        70
44.880        63
44.900        57
44.920        83
44.940        93
44.960        50
44.980        63
45.000        87
45.020        73
45.040        73
45.060       100
45.080        83
45.100       103
45.120        87
45.140        97
45.160        43
45.180        70
45.200        87
45.220        87
45.240       110
45.260       103
45.280        73
45.300        67
45.320        57
45.340        47
45.360        57
45.380        80
45.400        87
45.420        83
45.440        50
45.460        80
45.480        53
45.500        43
45.520        83
45.540        70
45.560        87
45.580        77
45.600        63
45.620        73
45.640        67
45.660        90
45.680       100
45.700        50
45.720        60
45.740        53
45.760        83
45.780        73
45.800        80
45.820        77
45.840        73
45.860        93
45.880        67
45.900        73
45.920        87
45.940        73
45.960        87
45.980        73
46.000        60
46.020        87
46.040        60
46.060        63
46.080        67
46.100        57
46.120        90
46.140        77
46.160       100
46.180        70
46.200        90
46.220       133
46.240       120
46.260        63
46.280        97
46.300        53
46.320        90
46.340        80
46.360        73
46.380       100
46.400        80
46.420        73
46.440        73
46.460        83
46.480        50
46.500        73
46.520        47
46.540        90
46.560        33
46.580        70
46.600        67
46.620        73
46.640        47
46.660        57
46.680        93
46.700        53
46.720        73
46.740        60
46.760        77
46.780        47
46.800        67
46.820        80
46.840        53
46.860        80
46.880        60
46.900        77
46.920        60
46.940        67
46.960        67
46.980        77
47.000        73
47.020        60
47.040        50
47.060        53
47.080        50
47.100        77
47.120        87
47.140        43
47.160        80
47.180        83
47.200        53
47.220        53
47.240        47
47.260        70
47.280        83
47.300        93
47.320        80
47.340        80
47.360        73
47.380        57
47.400        80
47.420        97
47.440        77
47.460        57
47.480        50
47.500        60
47.520        43
47.540        67
47.560        90
47.580        63
47.600        43
47.620        53
47.640        97
47.660        63
47.680        50
47.700        93
47.720        87
47.740        63
47.760        70
47.780        80
47.800        57
47.820        70
47.840        50
47.860        73
47.880        93
47.900        60
47.920        50
47.940        60
47.960       100
47.980        77
48.000        67
48.020        73
48.040        57
48.060        60
48.080        70
48.100        57
48.120        50
48.140        63
48.160        70
48.180        67
48.200        60
48.220        43
48.240        60
48.260        57
48.280        67
48.300        87
48.320        80
48.340        47
48.360        57
48.380        53
48.400        60
48.420        80
48.440        63
48.460        60
48.480        40
48.500        87
48.520        57
48.540        50
48.560        80
48.580        63
48.600        60
48.620        43
48.640        47
48.660        63
48.680        87
48.700        60
48.720        60
48.740        50
48.760        60
48.780        63
48.800        70
48.820        73
48.840        50
48.860        80
48.880        47
48.900        80
48.920        93
48.940        37
48.960        67
48.980        47
49.000        87
49.020        57
49.040        80
49.060        37
49.080        63
49.100        47
49.120        63
49.140        57
49.160        67
49.180        47
49.200        60
49.220        57
49.240        50
49.260        83
49.280        47
49.300        77
49.320        57
49.340        80
49.360        60
49.380        60
49.400        80
49.420        77
49.440        63
49.460        47
49.480        67
49.500        73
49.520        60
49.540        80
49.560        53
49.580        90
49.600        50
49.620        90
49.640        63
49.660        53
49.680        87
49.700        47
49.720        60
49.740        60
49.760        87
49.780        73
49.800        43
49.820        63
49.840        60
49.860        50
49.880        67
49.900        63
49.920        47
49.940        57
49.960        60
49.980        57
50.000        70
50.020        60
50.040        67
50.060        80
50.080        50
50.100        47
50.120        93
50.140        50
50.160        67
50.180        67
50.200        53
50.220        53
50.240        63
50.260        63
50.280        40
50.300        40
50.320        67
50.340        57
50.360        60
50.380        33
50.400        90
50.420        67
50.440        47
50.460        60
50.480        77
50.500        60
50.520        50
50.540        67
50.560        30
50.580        77
50.600        67
50.620        63
50.640        50
50.660        70
50.680        70
50.700        57
50.720        77
50.740        50
50.760        80
50.780        60
50.800        43
50.820        60
50.840        87
50.860        70
50.880        50
50.900        73
50.920        53
50.940        73
50.960        70
50.980        57
51.000        43
51.020        47
51.040        60
51.060        57
51.080        53
51.100        60
51.120        50
51.140        80
51.160        50
51.180        73
51.200        57
51.220        77
51.240        63
51.260        80
51.280        43
51.300        73
51.320        77
51.340        77
51.360        43
51.380        63
51.400        70
51.420        73
51.440        77
51.460        70
51.480        97
51.500        87
51.520        80
51.540        87
51.560        90
51.580        63
51.600        97
51.620        67
51.640        83
51.660       113
51.680        40
51.700        73
51.720        53
51.740        70
51.760        73
51.780        63
51.800        57
51.820        77
51.840        77
51.860        47
51.880        87
51.900        83
51.920        87
51.940        73
51.960        93
51.980        37
52.000        67
52.020        70
52.040        77
52.060        43
52.080        50
52.100        60
52.120        63
52.140        80
52.160        67
52.180        73
52.200        50
52.220        80
52.240        67
52.260        60
52.280        80
52.300        77
52.320       100
52.340        83
52.360        97
52.380        77
52.400        87
52.420       113
52.440       140
52.460       163
52.480       203
52.500       253
52.520       357
52.540       596
52.560       913
52.580      1156
52.600      1186
52.620      1083
52.640       753
52.660       413
52.680       400
52.700       513
52.720       593
52.740       606
52.760       516
52.780       426
52.800       223
52.820       130
52.840       107
52.860        83
52.880        87
52.900        70
52.920        67
52.940        73
52.960        57
52.980       113
53.000        83
53.020        63
53.040        53
53.060        67
53.080        73
53.100        70
53.120        57
53.140        63
53.160       100
53.180        60
53.200        47
53.220        47
53.240        50
53.260        70
53.280        53
53.300        53
53.320        67
53.340        70
53.360        67
53.380        60
53.400        97
53.420        37
53.440        67
53.460        83
53.480        73
53.500        63
53.520        70
53.540        77
53.560        63
53.580        87
53.600        67
53.620        77
53.640        77
53.660        63
53.680        80
53.700        80
53.720        57
53.740        50
53.760        63
53.780        60
53.800        53
53.820        53
53.840        70
53.860        63
53.880        83
53.900        50
53.920        57
53.940        50
53.960        60
53.980        53
54.000        73
54.020        80
54.040        43
54.060        40
54.080        57
54.100        60
54.120        77
54.140        70
54.160        67
54.180        57
54.200        33
54.220        43
54.240        53
54.260        60
54.280        67
54.300        70
54.320        63
54.340        60
54.360        57
54.380        60
54.400        50
54.420        67
54.440        60
54.460        97
54.480        53
54.500        67
54.520        53
54.540        73
54.560        50
54.580        47
54.600        33
54.620        67
54.640        87
54.660        90
54.680        90
54.700        43
54.720        60
54.740        43
54.760        77
54.780        60
54.800        60
54.820        63
54.840        47
54.860        57
54.880        77
54.900        57
54.920        73
54.940        43
54.960        67
54.980        50
55.000        60
55.020        57
55.040        57
55.060        57
55.080        63
55.100        73
55.120        67
55.140        90
55.160        40
55.180        60
55.200        67
55.220        87
55.240        57
55.260        47
55.280        53
55.300        87
55.320        70
55.340        47
55.360        37
55.380        73
55.400        57
55.420        63
55.440        73
55.460        80
55.480        73
55.500        83
55.520        73
55.540        93
55.560        93
55.580        50
55.600        53
55.620        63
55.640       107
55.660        77
55.680        60
55.700       103
55.720        77
55.740        87
55.760        70
55.780        43
55.800        43
55.820        67
55.840        57
55.860        80
55.880        63
55.900        83
55.920        63
55.940        67
55.960        77
55.980        53
56.000        83
56.020        77
56.040        80
56.060        77
56.080        63
56.100        73
56.120        77
56.140        57
56.160        87
56.180        60
56.200        53
56.220        60
56.240        87
56.260        63
56.280        77
56.300       100
56.320        50
56.340        43
56.360        90
56.380        87
56.400        77
56.420        67
56.440        87
56.460        30
56.480        60
56.500        77
56.520        97
56.540        63
56.560        60
56.580        70
56.600        67
56.620        80
56.640        83
56.660        67
56.680        77
56.700        73
56.720        83
56.740        73
56.760        90
56.780        70
56.800        67
56.820        70
56.840        93
56.860        83
56.880        57
56.900        83
56.920        80
56.940        80
56.960        60
56.980        97
57.000        97
57.020        93
57.040        87
57.060        70
57.080        53
57.100       100
57.120       130
57.140        73
57.160       123
57.180        87
57.200       113
57.220       100
57.240       117
57.260       150
57.280       133
57.300       180
57.320       217
57.340       203
57.360       243
57.380       307
57.400       320
57.420       540
57.440       776
57.460      1173
57.480      1666
57.500      2362
57.520      2849
57.540      3075
57.560      2979
57.580      1896
57.600      1306
57.620       946
57.640      1116
57.660      1343
57.680      1526
57.700      1596
57.720      1356
57.740       910
57.760       433
57.780       243
57.800       167
57.820       173
57.840       140
57.860       117
57.880       113
57.900        83
57.920        97
57.940       100
57.960        50
57.980       103
58.000        73
58.020        93
58.040        67
58.060        60
58.080        73
58.100        77
58.120        83
58.140        67
58.160        77
58.180       100
58.200        77
58.220        67
58.240        47
58.260        73
58.280        80
58.300        93
58.320        53
58.340        70
58.360        87
58.380        63
58.400       100
58.420        57
58.440        67
58.460        97
58.480        83
58.500        77
58.520       107
58.540        63
58.560        47
58.580        73
58.600        67
58.620        80
58.640        57
58.660        53
58.680        67
58.700        73
58.720        77
58.740        73
58.760        47
58.780        73
58.800        53
58.820        73
58.840        93
58.860        70
58.880        67
58.900        77
58.920        77
58.940        70
58.960        97
58.980        80
59.000        97
59.020        73
59.040        70
59.060        47
59.080        90
59.100        67
59.120        67
59.140        60
59.160        67
59.180        80
59.200        50
59.220        90
59.240        87
59.260        40
59.280        97
59.300        67
59.320        70
59.340        70
59.360        63
59.380        70
59.400        63
59.420        50
59.440       113
59.460        80
59.480        80
59.500        57
59.520        40
59.540        63
59.560        70
59.580        50
59.600        60
59.620        53
59.640        63
59.660        77
59.680        87
59.700        63
59.720       137
59.740       120
59.760       113
59.780       123
59.800       120
59.820       120
59.840        87
59.860        77
59.880       100
59.900        93
59.920       117
59.940       103
59.960       147
59.980        93
60.000        80
