20.000         3
20.020         3
20.040         0
20.060         0
20.080         0
20.100         0
20.120         0
20.140         0
20.160         0
20.180         0
20.200         0
20.220        23
20.240        27
20.260        67
20.280        47
20.300        57
20.320        50
20.340        37
20.360        57
20.380        43
20.400        37
20.420        47
20.440        30
20.460        43
20.480        63
20.500        57
20.520        60
20.540        47
20.560        40
20.580        43
20.600        53
20.620        43
20.640        73
20.660        53
20.680        43
20.700        37
20.720        27
20.740        40
20.760        70
20.780        63
20.800        47
20.820        30
20.840        47
20.860        23
20.880        43
20.900        10
20.920        50
20.940        23
20.960        73
20.980        37
21.000        57
21.020        27
21.040        40
21.060        47
21.080        30
21.100        40
21.120        43
21.140        33
21.160        30
21.180        23
21.200        57
21.220        43
21.240        47
21.260        20
21.280        27
21.300        30
21.320        47
21.340        23
21.360        27
21.380        43
21.400        53
21.420        40
21.440        50
21.460        20
21.480        43
21.500        43
21.520        57
21.540        37
21.560        17
21.580        47
21.600        17
21.620        47
21.640        47
21.660        50
21.680        50
21.700        37
21.720        53
21.740        37
21.760        40
21.780        20
21.800        47
21.820        43
21.840        40
21.860        23
21.880        47
21.900        40
21.920        47
21.940        47
21.960        63
21.980        47
22.000        63
22.020        50
22.040        50
22.060        43
22.080        47
22.100        33
22.120        47
22.140        43
22.160        50
22.180        60
22.200        40
22.220        43
22.240        43
22.260        33
22.280        53
22.300        43
22.320        40
22.340        47
22.360        37
22.380        50
22.400        73
22.420        37
22.440        33
22.460        43
22.480        50
22.500        37
22.520        27
22.540        27
22.560        23
22.580        50
22.600        43
22.620        43
22.640        33
22.660        40
22.680        53
22.700        27
22.720        27
22.740        33
22.760        40
22.780        27
22.800        20
22.820        30
22.840        27
22.860        53
22.880        23
22.900        53
22.920        30
22.940        37
22.960        30
22.980        53
23.000        47
23.020        47
23.040        30
23.060        30
23.080        40
23.100        33
23.120        33
23.140        33
23.160        43
23.180        43
23.200        40
23.220        37
23.240        30
23.260        30
23.280        53
23.300        27
23.320        40
23.340        20
23.360        40
23.380        27
23.400        27
23.420        50
23.440        33
23.460        27
23.480        37
23.500        30
23.520        37
23.540        37
23.560        30
23.580        37
23.600        40
23.620        53
23.640        40
23.660        57
23.680        43
23.700        53
23.720        27
23.740        30
23.760        23
23.780        40
23.800        37
23.820        27
23.840        27
23.860        27
23.880        30
23.900        43
23.920        43
23.940        27
23.960        37
23.980        30
24.000        43
24.020        30
24.040        30
24.060        23
24.080        40
24.100        47
24.120        47
24.140        30
24.160        47
24.180        37
24.200        37
24.220        30
24.240        30
24.260        53
24.280        20
24.300        57
24.320        23
24.340        23
24.360        37
24.380        53
24.400        30
24.420        33
24.440        27
24.460        40
24.480        33
24.500        43
24.520        40
24.540        43
24.560        57
24.580        20
24.600        40
24.620        30
24.640        30
24.660        30
24.680        23
24.700        27
24.720        23
24.740        57
24.760        30
24.780        23
24.800        30
24.820        47
24.840        37
24.860        63
24.880        47
24.900        30
24.920        53
24.940        27
24.960        43
24.980        57
25.000        37
25.020        33
25.040        23
25.060        23
25.080        23
25.100        47
25.120        20
25.140        27
25.160        20
25.180        40
25.200        43
25.220        23
25.240        33
25.260        20
25.280        33
25.300        40
25.320        57
25.340        50
25.360        33
25.380        30
25.400        40
25.420        17
25.440        43
25.460        43
25.480        50
25.500        27
25.520        50
25.540        57
25.560        43
25.580        93
25.600        70
25.620        63
25.640        50
25.660        63
25.680        43
25.700        47
25.720        53
25.740        43
25.760        47
25.780        43
25.800        43
25.820        13
25.840        53
25.860        23
25.880        23
25.900        33
25.920        40
25.940        27
25.960        40
25.980        33
26.000        27
26.020        37
26.040         7
26.060        47
26.080        33
26.100        20
26.120        40
26.140        33
26.160        33
26.180        43
26.200        37
26.220        43
26.240        40
26.260        50
26.280        33
26.300        50
26.320        53
26.340        60
26.360        77
26.380        47
26.400        60
26.420        77
26.440        97
26.460        97
26.480        80
26.500        57
26.520        83
26.540        90
26.560       127
26.580       123
26.600       173
26.620       140
26.640        97
26.660       153
26.680       137
26.700       120
26.720       137
26.740       113
26.760       127
26.780        83
26.800        63
26.820        73
26.840        70
26.860        80
26.880        50
26.900        67
26.920        23
26.940        50
26.960        77
26.980        50
27.000        27
27.020        53
27.040        53
27.060        20
27.080        30
27.100        37
27.120        23
27.140        40
27.160        23
27.180        27
27.200        37
27.220        47
27.240        47
27.260        43
27.280        40
27.300        30
27.320        27
27.340        20
27.360        30
27.380        30
27.400        23
27.420        20
27.440        30
27.460        37
27.480        27
27.500        43
27.520        27
27.540        40
27.560        53
27.580        23
27.600        50
27.620        37
27.640        20
27.660        33
27.680        33
27.700        33
27.720        30
27.740        40
27.760        30
27.780        20
27.800        50
27.820        23
27.840        53
27.860        33
27.880        20
27.900        20
27.920        23
27.940        33
27.960        37
27.980        50
28.000        20
28.020        17
28.040        27
28.060        47
28.080        33
28.100        63
28.120        30
28.140        37
28.160        30
28.180        30
28.200        27
28.220        60
28.240        37
28.260        47
28.280        47
28.300        47
28.320        53
28.340        27
28.360        43
28.380        37
28.400        37
28.420        37
28.440        30
28.460        43
28.480        30
28.500        30
28.520        33
28.540        40
28.560        23
28.580        40
28.600        37
28.620        47
28.640        20
28.660        17
28.680        33
28.700        20
28.720        17
28.740        27
28.760        17
28.780        27
28.800        27
28.820        43
28.840        20
28.860        30
28.880        23
28.900        27
28.920        23
28.940        33
28.960        17
28.980        33
29.000        40
29.020        27
29.040        27
29.060        33
29.080        30
29.100        23
29.120        30
29.140        30
29.160        37
29.180        37
29.200        27
29.220        17
29.240        23
29.260        30
29.280        20
29.300        37
29.320        10
29.340        23
29.360        23
29.380        37
29.400        40
29.420        43
29.440        20
29.460        33
29.480        10
29.500        20
29.520        43
29.540        27
29.560        20
29.580        23
29.600        17
29.620        30
29.640        27
29.660        43
29.680        30
29.700        27
29.720        47
29.740        30
29.760        33
29.780        23
29.800        17
29.820        30
29.840        17
29.860        33
29.880        20
29.900        60
29.920        17
29.940        30
29.960        33
29.980        57
30.000        33
30.020        23
30.040        37
30.060        30
30.080        40
30.100        17
30.120        47
30.140        17
30.160        20
30.180        20
30.200        40
30.220        20
30.240        33
30.260        33
30.280        33
30.300        27
30.320        37
30.340        30
30.360        33
30.380        43
30.400        27
30.420        23
30.440        37
30.460        47
30.480        47
30.500        33
30.520        27
30.540        23
30.560        30
30.580        37
30.600        50
30.620        43
30.640        40
30.660        40
30.680        47
30.700        33
30.720        53
30.740        47
30.760        37
30.780        70
30.800        50
30.820        50
30.840        33
30.860        70
30.880        63
30.900       103
30.920       110
30.940       113
30.960       147
30.980       153
31.000       180
31.020       247
31.040       277
31.060       377
31.080       383
31.100       397
31.120       496
31.140       593
31.160       566
31.180       633
31.200       596
31.220       716
31.240       663
31.260       623
31.280       606
31.300       543
31.320       440
31.340       300
31.360       350
31.380       280
31.400       220
31.420       160
31.440       127
31.460       103
31.480        87
31.500        87
31.520        70
31.540        60
31.560        50
31.580        93
31.600        60
31.620        53
31.640        37
31.660        37
31.680        33
31.700        27
31.720        27
31.740        40
31.760        43
31.780        40
31.800        23
31.820        23
31.840        37
31.860        43
31.880        40
31.900        20
31.920        43
31.940        47
31.960        23
31.980        23
32.000        23
32.020        37
32.040        33
32.060        53
32.080        27
32.100        33
32.120        23
32.140        20
32.160        17
32.180        30
32.200        23
32.220        23
32.240        30
32.260        23
32.280        37
32.300        40
32.320        20
32.340        17
32.360        20
32.380        33
32.400        33
32.420        23
32.440        33
32.460        23
32.480        27
32.500        20
32.520        33
32.540        27
32.560        20
32.580        13
32.600        43
32.620        40
32.640        27
32.660        17
32.680        23
32.700        17
32.720        23
32.740        37
32.760        27
32.780        17
32.800        20
32.820        17
32.840        37
32.860        17
32.880        20
32.900        33
32.920        17
32.940        23
32.960        20
32.980        20
33.000        30
33.020        27
33.040        17
33.060        27
33.080        13
33.100        40
33.120        37
33.140        13
33.160        30
33.180        27
33.200        10
33.220        30
33.240        13
33.260        30
33.280        33
33.300        40
33.320        13
33.340        40
33.360        30
33.380        47
33.400        17
33.420        50
33.440        23
33.460        30
33.480        27
33.500        20
33.520        33
33.540        30
33.560        23
33.580        20
33.600        17
33.620        43
33.640        40
33.660        33
33.680        33
33.700        27
33.720        33
33.740        40
33.760        37
33.780        37
33.800        30
33.820        53
33.840        37
33.860        53
33.880        43
33.900        33
33.920        27
33.940        53
33.960        73
33.980        40
34.000        87
34.020        87
34.040       103
34.060        97
34.080       117
34.100        97
34.120        93
34.140        70
34.160        90
34.180        77
34.200       100
34.220        40
34.240        57
34.260        67
34.280        43
34.300        27
34.320        30
34.340        43
34.360        10
34.380        33
34.400        47
34.420        33
34.440        47
34.460        33
34.480        33
34.500        23
34.520        30
34.540        33
34.560        20
34.580        37
34.600        43
34.620        17
34.640        33
34.660        13
34.680        23
34.700        37
34.720        27
34.740        30
34.760        17
34.780        33
34.800        20
34.820        30
34.840        30
34.860        27
34.880        27
34.900        23
34.920        20
34.940        27
34.960        27
34.980        23
35.000        27
35.020        20
35.040        30
35.060        33
35.080        47
35.100        70
35.120        87
35.140       123
35.160       110
35.180       130
35.200       107
35.220       120
35.240       103
35.260        80
35.280        93
35.300        57
35.320        33
35.340        27
35.360        33
35.380        33
35.400        33
35.420        33
35.440        40
35.460        40
35.480        17
35.500        13
35.520        23
35.540        30
35.560        23
35.580        27
35.600        37
35.620        23
35.640        33
35.660        30
35.680        17
35.700        27
35.720        17
35.740        17
35.760        33
35.780        27
35.800        33
35.820        37
35.840        40
35.860        27
35.880        33
35.900        23
35.920        10
35.940        23
35.960        23
35.980        27
36.000        13
36.020        27
36.040        17
36.060        23
36.080        10
36.100        17
36.120        20
36.140        23
36.160        20
36.180        30
36.200        20
36.220        33
36.240        30
36.260        13
36.280        20
36.300        40
36.320        27
36.340        17
36.360        37
36.380         7
36.400        33
36.420        20
36.440        20
36.460        13
36.480        33
36.500        20
36.520        23
36.540        30
36.560        17
36.580        27
36.600        30
36.620        40
36.640        23
36.660        23
36.680        20
36.700        33
36.720        23
36.740        27
36.760        30
36.780        17
36.800        17
36.820         3
36.840        23
36.860        13
36.880        27
36.900        20
36.920        20
36.940        23
36.960        47
36.980        17
37.000        37
37.020        30
37.040        30
37.060        30
37.080         7
37.100        13
37.120        23
37.140        17
37.160        17
37.180        27
37.200        10
37.220        40
37.240         7
37.260        27
37.280        23
37.300        27
37.320        13
37.340        43
37.360        17
37.380        20
37.400        27
37.420        33
37.440        20
37.460        27
37.480        27
37.500        20
37.520        33
37.540        30
37.560        37
37.580        30
37.600        33
37.620        47
37.640        27
37.660        47
37.680        33
37.700        33
37.720        30
37.740        47
37.760        53
37.780        27
37.800        60
37.820        43
37.840        53
37.860        50
37.880        57
37.900        53
37.920        37
37.940        57
37.960        57
37.980        40
38.000        43
38.020        30
38.040        53
38.060        47
38.080        30
38.100        67
38.120        77
38.140        83
38.160        80
38.180        77
38.200        97
38.220        80
38.240       123
38.260       117
38.280       193
38.300       197
38.320       247
38.340       280
38.360       383
38.380       387
38.400       353
38.420       526
38.440       540
38.460       516
38.480       506
38.500       626
38.520       623
38.540       513
38.560       496
38.580       403
38.600       333
38.620       250
38.640       233
38.660       237
38.680       197
38.700        97
38.720        90
38.740       100
38.760        87
38.780        73
38.800        67
38.820        60
38.840        63
38.860        30
38.880        70
38.900        37
38.920        53
38.940        47
38.960        37
38.980        43
39.000        43
39.020        33
39.040        30
39.060        23
39.080        53
39.100        23
39.120        40
39.140        33
39.160        30
39.180        20
39.200        47
39.220        30
39.240        43
39.260        33
39.280        13
39.300        27
39.320        20
39.340        17
39.360        27
39.380        17
39.400        37
39.420        23
39.440        30
39.460        20
39.480        17
39.500        33
39.520        13
39.540        27
39.560        40
39.580        27
39.600        20
39.620        20
39.640        13
39.660        30
39.680        20
39.700        17
39.720        13
39.740        37
39.760        47
39.780        23
39.800        27
39.820        30
39.840         3
39.860        27
39.880        20
39.900        33
39.920        27
39.940        10
39.960        30
39.980        37
40.000        17
40.020        30
40.040        30
40.060        17
40.080        10
40.100        20
40.120        47
40.140        17
40.160        23
40.180        10
40.200        13
40.220        20
40.240        10
40.260         3
40.280        30
40.300        17
40.320        10
40.340        27
40.360        27
40.380        23
40.400        27
40.420        23
40.440        23
40.460        17
40.480        17
40.500        17
40.520        27
40.540        20
40.560        20
40.580        23
40.600        10
40.620        37
40.640        13
40.660        23
40.680        27
40.700        30
40.720        20
40.740        17
40.760        13
40.780        13
40.800        27
40.820        17
40.840        13
40.860        17
40.880        23
40.900        10
40.920        27
40.940        27
40.960        13
40.980        20
41.000        17
41.020        17
41.040        23
41.060        17
41.080        17
41.100        33
41.120        17
41.140        23
41.160        10
41.180        30
41.200        20
41.220        20
41.240        17
41.260        13
41.280         7
41.300        27
41.320        27
41.340        17
41.360        27
41.380        20
41.400        30
41.420        37
41.440        33
41.460        33
41.480        37
41.500        27
41.520        30
41.540        43
41.560        43
41.580        20
41.600        20
41.620        17
41.640        50
41.660        43
41.680        67
41.700        67
41.720        53
41.740        33
41.760        43
41.780        33
41.800        33
41.820        33
41.840        37
41.860        23
41.880        23
41.900        13
41.920         7
41.940        30
41.960         3
41.980        20
42.000        17
42.020        17
42.040        13
42.060        20
42.080        20
42.100        33
42.120        17
42.140        20
42.160        13
42.180        13
42.200        23
42.220        20
42.240        20
42.260        23
42.280        30
42.300        17
42.320        13
42.340        17
42.360        33
42.380        23
42.400        13
42.420         7
42.440        10
42.460        27
42.480        10
42.500        33
42.520        20
42.540         7
42.560         7
42.580         3
42.600        20
42.620        13
42.640        23
42.660        30
42.680        17
42.700        23
42.720        30
42.740        33
42.760        27
42.780        20
42.800        17
42.820        17
42.840        30
42.860        13
42.880        10
42.900        20
42.920        30
42.940        17
42.960        23
42.980        17
43.000        13
43.020        20
43.040        10
43.060        10
43.080        13
43.100        13
43.120        17
43.140        17
43.160        23
43.180        23
43.200        23
43.220        20
43.240        67
43.260        83
43.280        90
43.300        67
43.320        77
43.340       103
43.360       147
43.380       187
43.400       240
43.420       190
43.440       157
43.460        63
43.480        87
43.500        90
43.520       100
43.540       117
43.560        47
43.580        40
43.600        27
43.620        17
43.640        23
43.660        20
43.680        17
43.700        20
43.720        20
43.740        10
43.760        20
43.780        37
43.800        17
43.820        10
43.840        23
43.860        33
43.880        13
43.900        13
43.920        10
43.940        17
43.960        13
43.980        10
44.000        17
44.020        10
44.040        10
44.060        33
44.080        23
44.100        13
44.120        13
44.140        17
44.160        13
44.180        27
44.200        10
44.220        23
44.240        37
44.260        40
44.280        17
44.300        10
44.320        10
44.340        23
44.360        30
44.380        33
44.400        27
44.420        27
44.440        27
44.460        13
44.480        20
44.500        13
44.520        33
44.540        33
44.560        50
44.580        50
44.600        63
44.620        47
44.640        57
44.660        70
44.680       103
44.700        77
44.720       120
44.740        97
44.760        87
44.780       130
44.800        90
44.820        83
44.840       103
44.860       103
44.880       107
44.900        87
44.920        60
44.940        67
44.960        43
44.980        77
45.000        50
45.020        43
45.040        47
45.060        27
45.080        30
45.100        43
45.120        17
45.140        33
45.160        17
45.180        27
45.200        20
45.220        37
45.240        27
45.260        27
45.280        17
45.300        27
45.320        20
45.340        20
45.360        27
45.380        17
45.400         7
45.420         3
45.440         3
45.460        23
45.480        10
45.500        23
45.520        13
45.540        27
45.560        23
45.580        33
45.600         7
45.620        20
45.640         7
45.660        17
45.680        23
45.700         7
45.720        30
45.740        27
45.760         7
45.780        13
45.800        13
45.820        20
45.840         7
45.860        17
45.880        20
45.900        13
45.920        10
45.940        10
45.960        23
45.980        13
46.000        13
46.020        13
46.040        13
46.060         7
46.080        23
46.100        13
46.120        20
46.140        17
46.160        13
46.180        17
46.200        33
46.220        30
46.240        17
46.260        17
46.280        10
46.300        20
46.320        13
46.340        23
46.360        10
46.380        13
46.400        23
46.420        17
46.440        23
46.460        17
46.480        17
46.500        23
46.520        17
46.540         0
46.560        17
46.580        13
46.600        13
46.620        17
46.640        17
46.660        20
46.680        13
46.700        30
46.720        30
46.740        10
46.760        10
46.780         7
46.800        27
46.820        17
46.840        30
46.860        10
46.880        10
46.900        13
46.920        17
46.940        20
46.960        10
46.980        17
47.000        10
47.020        23
47.040        27
47.060        17
47.080        17
47.100         7
47.120        10
47.140        20
47.160        20
47.180        27
47.200         7
47.220        13
47.240        20
47.260         7
47.280        13
47.300        20
47.320        13
47.340        13
47.360        17
47.380        13
47.400        20
47.420        10
47.440        20
47.460        10
47.480        13
47.500        13
47.520        23
47.540        33
47.560        27
47.580        27
47.600         0
47.620         7
47.640        10
47.660         0
47.680         7
47.700        10
47.720        10
47.740        10
47.760        13
47.780        17
47.800        23
47.820         7
47.840        30
47.860        17
47.880         3
47.900         7
47.920        13
47.940        20
47.960        17
47.980        13
48.000        13
48.020         7
48.040        13
48.060        17
48.080        13
48.100        10
48.120        20
48.140        17
48.160        20
48.180         7
48.200        13
48.220        20
48.240        10
48.260        23
48.280        17
48.300        20
48.320        13
48.340        23
48.360        17
48.380        10
48.400        20
48.420        17
48.440        10
48.460        13
48.480        10
48.500        13
48.520         3
48.540        13
48.560        10
48.580         3
48.600         7
48.620        20
48.640        13
48.660        13
48.680        17
48.700         7
48.720        13
48.740        10
48.760        13
48.780        17
48.800        27
48.820        13
48.840        27
48.860        13
48.880        20
48.900        17
48.920         3
48.940         7
48.960        13
48.980        23
49.000         7
49.020        17
49.040         7
49.060         7
49.080        23
49.100        17
49.120        10
49.140        17
49.160        27
49.180        17
49.200        17
49.220        17
49.240        13
49.260        13
49.280        17
49.300        13
49.320         7
49.340        17
49.360        17
49.380        17
49.400        17
49.420         7
49.440        17
49.460        20
49.480        27
49.500        23
49.520        17
49.540        17
49.560         3
49.580        13
49.600        10
49.620        13
49.640        10
49.660        20
49.680        13
49.700        47
49.720        13
49.740         0
49.760        10
49.780        17
49.800        23
49.820        17
49.840        13
49.860        10
49.880        20
49.900         7
49.920         7
49.940         3
49.960        10
49.980        20
50.000        13
50.020        13
50.040         7
50.060        10
50.080         7
50.100        10
50.120        20
50.140         3
50.160        17
50.180        30
50.200        13
50.220        30
50.240        20
50.260        13
50.280        23
50.300        10
50.320        23
50.340        13
50.360        30
50.380        23
50.400        10
50.420        13
50.440        23
50.460        20
50.480        30
50.500        20
50.520        13
50.540        23
50.560        30
50.580        17
50.600        10
50.620        23
50.640        10
50.660        27
50.680         7
50.700        17
50.720        20
50.740        17
50.760        13
50.780        17
50.800         7
50.820         3
50.840        13
50.860         7
50.880        13
50.900        10
50.920        20
50.940         0
50.960        23
50.980        10
51.000        13
51.020        13
51.040        20
51.060        20
51.080         7
51.100         7
51.120        20
51.140        13
51.160        10
51.180        20
51.200        10
51.220        10
51.240        23
51.260        17
51.280        23
51.300        13
51.320         3
51.340        23
51.360        13
51.380         7
51.400        17
51.420        23
51.440        27
51.460         3
51.480        13
51.500        17
51.520        17
51.540        23
51.560         0
51.580        17
51.600        30
51.620        17
51.640        33
51.660        20
51.680        37
51.700        23
51.720        27
51.740        33
51.760        37
51.780        20
51.800        20
51.820        37
51.840        43
51.860        33
51.880        33
51.900        60
51.920        53
51.940        43
51.960        73
51.980        47
52.000        47
52.020        47
52.040        63
52.060        60
52.080        13
52.100        40
52.120        53
52.140        50
52.160        50
52.180        43
52.200        20
52.220        27
52.240        50
52.260        10
52.280        37
52.300        23
52.320        27
52.340        27
52.360        33
52.380        30
52.400        33
52.420        27
52.440        23
52.460        33
52.480        17
52.500        17
52.520        40
52.540        83
52.560       100
52.580        97
52.600        90
52.620        70
52.640        90
52.660        53
52.680        63
52.700        90
52.720        77
52.740        87
52.760        37
52.780        40
52.800        23
52.820        23
52.840        20
52.860        30
52.880        20
52.900        13
52.920        13
52.940        10
52.960         0
52.980        27
53.000        23
53.020        13
53.040        27
53.060        23
53.080        10
53.100        13
53.120        27
53.140        17
53.160        10
53.180         7
53.200        10
53.220        20
53.240        10
53.260        20
53.280        13
53.300        13
53.320         7
53.340        13
53.360        20
53.380        17
53.400         7
53.420         3
53.440         7
53.460         7
53.480        20
53.500        10
53.520        20
53.540         7
53.560        10
53.580         0
53.600         7
53.620        10
53.640        17
53.660        23
53.680        13
53.700         7
53.720        17
53.740        10
53.760        13
53.780        10
53.800         7
53.820         7
53.840        13
53.860         3
53.880        33
53.900        10
53.920        17
53.940        17
53.960        27
53.980        23
54.000        13
54.020        13
54.040        17
54.060        20
54.080         0
54.100        17
54.120        20
54.140        17
54.160        20
54.180        17
54.200         0
54.220         7
54.240        13
54.260        20
54.280        13
54.300        13
54.320         3
54.340        20
54.360         7
54.380        10
54.400         3
54.420        17
54.440        13
54.460        13
54.480        17
54.500        10
54.520        13
54.540         7
54.560        17
54.580         7
54.600        30
54.620        10
54.640        17
54.660        13
54.680        17
54.700         7
54.720        20
54.740        17
54.760        23
54.780        30
54.800        33
54.820        20
54.840        33
54.860        13
54.880        20
54.900        27
54.920        30
54.940        23
54.960        40
54.980        17
55.000        30
55.020        17
55.040        33
55.060        23
55.080        20
55.100        10
55.120        20
55.140        23
55.160        20
55.180        57
55.200        27
55.220        33
55.240        37
55.260        33
55.280        43
55.300        43
55.320        77
55.340        50
55.360        53
55.380        83
55.400        53
55.420        97
55.440        93
55.460       107
55.480       153
55.500       160
55.520       133
55.540       127
55.560       153
55.580       120
55.600       187
55.620       130
55.640       170
55.660       150
55.680       157
55.700       170
55.720       147
55.740       130
55.760       113
55.780        87
55.800        80
55.820        67
55.840        67
55.860        87
55.880        43
55.900        37
55.920        53
55.940        33
55.960        50
55.980        30
56.000        20
56.020        27
56.040        27
56.060        23
56.080        10
56.100        13
56.120         7
56.140        13
56.160        30
56.180        30
56.200        23
56.220        33
56.240        20
56.260         7
56.280        10
56.300        23
56.320        13
56.340         3
56.360        27
56.380        10
56.400        23
56.420        17
56.440        20
56.460        10
56.480         0
56.500        10
56.520        13
56.540        17
56.560        20
56.580        23
56.600        10
56.620        17
56.640        13
56.660        10
56.680        13
56.700        30
56.720         7
56.740        13
56.760        30
56.780         3
56.800        17
56.820        10
56.840         7
56.860        23
56.880        17
56.900        27
56.920        10
56.940        13
56.960        10
56.980         3
57.000        13
57.020        17
57.040        10
57.060        10
57.080        20
57.100        10
57.120        27
57.140        13
57.160        27
57.180        23
57.200        20
57.220        17
57.240         7
57.260        27
57.280        10
57.300        17
57.320        13
57.340        17
57.360        30
57.380        17
57.400        37
57.420        30
57.440        67
57.460        63
57.480        67
57.500        80
57.520        87
57.540       100
57.560       140
57.580       147
57.600       123
57.620        83
57.640        77
57.660        60
57.680        77
57.700        87
57.720        53
57.740        73
57.760        73
57.780        53
57.800        23
57.820        43
57.840        27
57.860         3
57.880        13
57.900        23
57.920        17
57.940         7
57.960        10
57.980        10
58.000        20
58.020        27
58.040        10
58.060        13
58.080        10
58.100        20
58.120        10
58.140        23
58.160         0
58.180        17
58.200        17
58.220        60
58.240        13
58.260        20
58.280        27
58.300         7
58.320        23
58.340        20
58.360        30
58.380         3
58.400        13
58.420        13
58.440        17
58.460        27
58.480        20
58.500        10
58.520        20
58.540         7
58.560        10
58.580         3
58.600        23
58.620        20
58.640        17
58.660         7
58.680        10
58.700        13
58.720        10
58.740        27
58.760        20
58.780        17
58.800         3
58.820        10
58.840        10
58.860        20
58.880        10
58.900        13
58.920        20
58.940         3
58.960        17
58.980         3
59.000        17
59.020        17
59.040        13
59.060         3
59.080        20
59.100         7
59.120        17
59.140        13
59.160        17
59.180         7
59.200        13
59.220         7
59.240         7
59.260         3
59.280        17
59.300         3
59.320        13
59.340        10
59.360        13
59.380         7
59.400        10
59.420        17
59.440        13
59.460        10
59.480        20
59.500         3
59.520        20
59.540        13
59.560        37
59.580        20
59.600         3
59.620        13
59.640        17
59.660        10
59.680        10
59.700        13
59.720        10
59.740        10
59.760        17
59.780        13
59.800        13
59.820        30
59.840        23
59.860        20
59.880        13
59.900        13
59.920        17
59.940        13
59.960        23
59.980        13
60.000         3
