20.000         0
20.020         0
20.040         0
20.060         0
20.080         0
20.100         0
20.120         0
20.140         0
20.160         0
20.180         0
20.200         0
20.220       107
20.240       293
20.260       203
20.280       207
20.300       260
20.320       247
20.340       213
20.360       220
20.380       200
20.400       207
20.420       183
20.440       217
20.460       233
20.480       207
20.500       223
20.520       213
20.540       197
20.560       230
20.580       180
20.600       233
20.620       217
20.640       203
20.660       200
20.680       223
20.700       193
20.720       243
20.740       247
20.760       277
20.780       233
20.800       200
20.820       230
20.840       207
20.860       207
20.880       207
20.900       217
20.920       253
20.940       190
20.960       213
20.980       233
21.000       223
21.020       207
21.040       140
21.060       230
21.080       243
21.100       193
21.120       220
21.140       220
21.160       197
21.180       197
21.200       187
21.220       177
21.240       180
21.260       270
21.280       183
21.300       197
21.320       230
21.340       223
21.360       170
21.380       250
21.400       230
21.420       217
21.440       260
21.460       270
21.480       193
21.500       243
21.520       187
21.540       190
21.560       203
21.580       197
21.600       197
21.620       200
21.640       207
21.660       253
21.680       237
21.700       210
21.720       220
21.740       193
21.760       183
21.780       203
21.800       190
21.820       150
21.840       217
21.860       183
21.880       230
21.900       187
21.920       243
21.940       187
21.960       183
21.980       193
22.000       233
22.020       207
22.040       223
22.060       203
22.080       217
22.100       203
22.120       200
22.140       180
22.160       203
22.180       220
22.200       203
22.220       213
22.240       177
22.260       250
22.280       253
22.300       250
22.320       190
22.340       227
22.360       287
22.380       240
22.400       277
22.420       283
22.440       280
22.460       293
22.480       327
22.500       323
22.520       303
22.540       283
22.560       223
22.580       230
22.600       227
22.620       190
22.640       233
22.660       207
22.680       177
22.700       247
22.720       263
22.740       200
22.760       210
22.780       213
22.800       133
22.820       183
22.840       187
22.860       153
22.880       217
22.900       190
22.920       227
22.940       180
22.960       220
22.980       183
23.000       187
23.020       187
23.040       167
23.060       207
23.080       213
23.100       187
23.120       170
23.140       173
23.160       200
23.180       190
23.200       170
23.220       190
23.240       183
23.260       207
23.280       203
23.300       143
23.320       200
23.340       193
23.360       190
23.380       177
23.400       200
23.420       180
23.440       197
23.460       167
23.480       173
23.500       143
23.520       207
23.540       193
23.560       150
23.580       210
23.600       170
23.620       150
23.640       157
23.660       167
23.680       170
23.700       193
23.720       143
23.740       173
23.760       137
23.780       167
23.800       143
23.820       167
23.840       177
23.860       160
23.880       173
23.900       180
23.920       160
23.940       153
23.960       157
23.980       220
24.000       137
24.020       167
24.040       137
24.060       130
24.080       163
24.100       157
24.120       170
24.140       147
24.160       167
24.180       203
24.200       237
24.220       180
24.240       173
24.260       177
24.280       207
24.300       173
24.320       207
24.340       150
24.360       170
24.380       173
24.400       197
24.420       223
24.440       133
24.460       177
24.480       203
24.500       163
24.520       147
24.540       137
24.560       167
24.580       133
24.600       150
24.620       163
24.640       187
24.660       153
24.680       133
24.700       137
24.720       123
24.740       167
24.760       127
24.780       143
24.800       127
24.820       117
24.840       137
24.860       150
24.880       177
24.900       190
24.920       163
24.940       157
24.960       213
24.980       157
25.000       150
25.020        87
25.040       140
25.060       187
25.080       187
25.100       130
25.120       147
25.140       170
25.160       123
25.180       150
25.200       137
25.220       117
25.240       173
25.260       163
25.280       160
25.300       150
25.320       120
25.340       143
25.360       123
25.380       153
25.400       173
25.420       170
25.440       143
25.460       117
25.480       140
25.500       167
25.520       117
25.540       157
25.560       147
25.580       180
25.600       140
25.620       130
25.640       123
25.660       147
25.680       170
25.700       130
25.720       153
25.740       167
25.760       147
25.780       140
25.800       127
25.820       137
25.840       153
25.860       170
25.880       157
25.900       147
25.920       117
25.940       147
25.960       130
25.980       177
26.000       130
26.020       130
26.040       147
26.060       100
26.080       157
26.100       180
26.120       197
26.140       150
26.160       190
26.180       140
26.200       150
26.220       140
26.240       123
26.260       160
26.280       133
26.300       167
26.320       140
26.340       120
26.360       127
26.380       150
26.400       147
26.420       123
26.440       130
26.460       163
26.480       137
26.500       117
26.520       147
26.540       143
26.560       160
26.580       133
26.600       143
26.620        93
26.640       127
26.660       143
26.680       110
26.700       140
26.720       123
26.740       143
26.760       137
26.780       147
26.800       147
26.820       127
26.840       150
26.860       137
26.880       167
26.900       110
26.920       127
26.940       113
26.960       160
26.980       113
27.000       153
27.020       167
27.040        87
27.060       153
27.080       153
27.100       160
27.120       180
27.140       123
27.160       157
27.180       117
27.200       120
27.220       143
27.240       137
27.260       137
27.280       170
27.300        97
27.320       173
27.340       107
27.360       163
27.380       120
27.400       170
27.420        87
27.440       170
27.460       133
27.480       120
27.500       180
27.520       107
27.540       137
27.560       133
27.580        97
27.600       113
27.620       130
27.640       143
27.660       150
27.680       120
27.700       130
27.720        87
27.740       117
27.760       103
27.780       107
27.800       103
27.820       157
27.840       140
27.860       150
27.880       130
27.900       153
27.920       150
27.940       107
27.960       110
27.980        93
28.000       123
28.020       120
28.040       150
28.060        87
28.080       157
28.100       143
28.120       107
28.140       110
28.160       143
28.180       163
28.200       110
28.220       120
28.240       100
28.260       123
28.280        67
28.300       120
28.320        83
28.340       143
28.360       113
28.380       150
28.400       137
28.420       153
28.440       103
28.460       123
28.480       100
28.500       143
28.520       113
28.540       113
28.560        93
28.580       127
28.600       153
28.620        87
28.640       120
28.660       103
28.680       110
28.700        93
28.720       120
28.740       127
28.760       117
28.780       157
28.800       150
28.820       130
28.840        97
28.860       163
28.880       107
28.900       107
28.920       100
28.940       137
28.960       130
28.980       103
29.000       107
29.020       117
29.040        87
29.060       103
29.080        93
29.100       140
29.120        93
29.140       140
29.160       110
29.180       100
29.200       127
29.220        97
29.240        97
29.260       133
29.280       117
29.300       103
29.320       100
29.340       130
29.360       120
29.380       103
29.400        90
29.420       113
29.440       127
29.460        93
29.480       107
29.500       113
29.520       113
29.540       130
29.560       123
29.580       123
29.600       103
29.620        87
29.640        90
29.660       130
29.680       107
29.700       100
29.720        80
29.740       110
29.760       107
29.780       117
29.800       147
29.820        97
29.840       107
29.860       127
29.880       103
29.900       137
29.920       103
29.940       137
29.960       107
29.980       140
30.000       157
30.020       127
30.040       110
30.060       127
30.080       130
30.100        87
30.120       117
30.140        77
30.160       107
30.180       137
30.200       113
30.220       103
30.240        77
30.260        70
30.280        80
30.300       117
30.320       110
30.340       130
30.360        90
30.380       107
30.400       130
30.420        83
30.440       110
30.460       107
30.480       137
30.500       113
30.520       127
30.540       133
30.560       113
30.580       100
30.600       100
30.620       113
30.640        87
30.660       113
30.680       133
30.700       137
30.720        73
30.740       147
30.760       113
30.780       127
30.800       133
30.820       113
30.840       147
30.860       110
30.880       143
30.900       147
30.920       130
30.940       120
30.960        97
30.980       117
31.000       150
31.020        77
31.040       127
31.060       167
31.080       117
31.100       123
31.120        97
31.140       160
31.160       120
31.180        87
31.200       147
31.220       100
31.240       110
31.260        90
31.280       127
31.300       160
31.320       127
31.340       117
31.360       117
31.380        97
31.400       183
31.420       140
31.440       107
31.460       153
31.480       147
31.500       140
31.520       140
31.540       160
31.560       160
31.580       207
31.600       213
31.620       203
31.640       270
31.660       253
31.680       293
31.700       387
31.720       330
31.740       340
31.760       343
31.780       446
31.800       513
31.820       540
31.840       606
31.860       740
31.880       923
31.900      1156
31.920      1100
31.940      1419
31.960      1633
31.980      1783
32.000      1739
32.020      1603
32.040      1486
32.060      1120
32.080      1040
32.100       896
32.120       706
32.140       563
32.160       377
32.180       370
32.200       257
32.220       197
32.240       193
32.260       170
32.280       147
32.300       167
32.320       163
32.340       157
32.360       123
32.380       113
32.400       133
32.420       120
32.440       173
32.460       123
32.480       133
32.500       157
32.520        73
32.540       123
32.560       130
32.580       130
32.600        80
32.620       117
32.640       130
32.660       123
32.680       117
32.700       133
32.720       123
32.740       107
32.760       137
32.780       103
32.800       103
32.820        93
32.840       123
32.860        87
32.880        83
32.900       160
32.920        77
32.940       103
32.960       100
32.980       137
33.000       117
33.020        97
33.040       100
33.060       110
33.080       130
33.100       100
33.120        93
33.140        87
33.160       110
33.180       130
33.200       113
33.220       113
33.240       120
33.260       120
33.280       127
33.300       103
33.320       150
33.340       127
33.360       120
33.380       120
33.400        77
33.420       120
33.440       127
33.460       130
33.480       127
33.500       123
33.520       123
33.540       130
33.560        87
33.580       120
33.600        93
33.620       177
33.640       147
33.660       127
33.680       117
33.700        83
33.720       130
33.740       120
33.760       140
33.780       180
33.800       157
33.820       137
33.840       173
33.860       167
33.880       217
33.900       197
33.920       240
33.940       197
33.960       257
33.980       323
34.000       320
34.020       320
34.040       413
34.060       440
34.080       496
34.100       490
34.120       636
34.140       756
34.160       773
34.180       726
34.200      1050
34.220       993
34.240      1066
34.260      1150
34.280      1323
34.300      1326
34.320      1303
34.340      1483
34.360      1339
34.380      1453
34.400      1443
34.420      1459
34.440      1373
34.460      1356
34.480      1230
34.500      1326
34.520      1170
34.540      1123
34.560       956
34.580       960
34.600       780
34.620       686
34.640       703
34.660       720
34.680       560
34.700       410
34.720       423
34.740       430
34.760       300
34.780       353
34.800       323
34.820       250
34.840       240
34.860       293
34.880       197
34.900       230
34.920       173
34.940       157
34.960       250
34.980       150
35.000       167
35.020       170
35.040       157
35.060       147
35.080       157
35.100       167
35.120       133
35.140       183
35.160       197
35.180       170
35.200       223
35.220       177
35.240       190
35.260       193
35.280       220
35.300       190
35.320       153
35.340       200
35.360       190
35.380       140
35.400       150
35.420       167
35.440       160
35.460       143
35.480       120
35.500       150
35.520       113
35.540       153
35.560       150
35.580       163
35.600       163
35.620       203
35.640       147
35.660       140
35.680       140
35.700       213
35.720       187
35.740       203
35.760       200
35.780       207
35.800       207
35.820       233
35.840       250
35.860       353
35.880       297
35.900       370
35.920       353
35.940       407
35.960       426
35.980       513
36.000       420
36.020       613
36.040       570
36.060       573
36.080       560
36.100       706
36.120       596
36.140       736
36.160       643
36.180       706
36.200       660
36.220       706
36.240       700
36.260       630
36.280       620
36.300       656
36.320       540
36.340       563
36.360       506
36.380       513
36.400       440
36.420       377
36.440       413
36.460       417
36.480       307
36.500       267
36.520       263
36.540       267
36.560       253
36.580       217
36.600       223
36.620       183
36.640       207
36.660       147
36.680       163
36.700       177
36.720       153
36.740       143
36.760       127
36.780       157
36.800       167
36.820       150
36.840       113
36.860        93
36.880       150
36.900       133
36.920        77
36.940       137
36.960       160
36.980       170
37.000       130
37.020        90
37.040       100
37.060       130
37.080       107
37.100       100
37.120        83
37.140       103
37.160       123
37.180       103
37.200       120
37.220        97
37.240       110
37.260        93
37.280       130
37.300        93
37.320       110
37.340        67
37.360       130
37.380        87
37.400        60
37.420       100
37.440        67
37.460        83
37.480        83
37.500       100
37.520       110
37.540       100
37.560        93
37.580        93
37.600        67
37.620        97
37.640       100
37.660       100
37.680        67
37.700       107
37.720        80
37.740       117
37.760       127
37.780        90
37.800       133
37.820        63
37.840       100
37.860        77
37.880        77
37.900        73
37.920       107
37.940        77
37.960        93
37.980       113
38.000        77
38.020        90
38.040        87
38.060        83
38.080        77
38.100        97
38.120        67
38.140        93
38.160       117
38.180        80
38.200        90
38.220        93
38.240       137
38.260       113
38.280        83
38.300        53
38.320        97
38.340        87
38.360        93
38.380       103
38.400        83
38.420       110
38.440       110
38.460        83
38.480        87
38.500       110
38.520        87
38.540       110
38.560       113
38.580       137
38.600       140
38.620        77
38.640        83
38.660        80
38.680        77
38.700        90
38.720       120
38.740       123
38.760       110
38.780       127
38.800       123
38.820       103
38.840       107
38.860        93
38.880        77
38.900        73
38.920        60
38.940       103
38.960       107
38.980       100
39.000       100
39.020       100
39.040       103
39.060        90
39.080       107
39.100       107
39.120        80
39.140       137
39.160       117
39.180       117
39.200       163
39.220       157
39.240       137
39.260       197
39.280       177
39.300       280
39.320       297
39.340       327
39.360       323
39.380       433
39.400       496
39.420       500
39.440       546
39.460       553
39.480       466
39.500       490
39.520       430
39.540       407
39.560       343
39.580       263
39.600       240
39.620       173
39.640       123
39.660       130
39.680       133
39.700       117
39.720        97
39.740       120
39.760        97
39.780       130
39.800        73
39.820       110
39.840       123
39.860       130
39.880        93
39.900        97
39.920       103
39.940        87
39.960        70
39.980        87
40.000        73
40.020        77
40.040        73
40.060        70
40.080        97
40.100        90
40.120        77
40.140        83
40.160        80
40.180        63
40.200        57
40.220        83
40.240       100
40.260        73
40.280       103
40.300       103
40.320        63
40.340       103
40.360        97
40.380        73
40.400        63
40.420        57
40.440       117
40.460        83
40.480        90
40.500        80
40.520        67
40.540        70
40.560        97
40.580        87
40.600       110
40.620       140
40.640        63
40.660        80
40.680        70
40.700        63
40.720       103
40.740       100
40.760        53
40.780        80
40.800       100
40.820       117
40.840       110
40.860        67
40.880        87
40.900        87
40.920        97
40.940        67
40.960        77
40.980       100
41.000        87
41.020        93
41.040        63
41.060       120
41.080        73
41.100        93
41.120        80
41.140        90
41.160        77
41.180        93
41.200        90
41.220        87
41.240        90
41.260        87
41.280        93
41.300       107
41.320       107
41.340        90
41.360        93
41.380        90
41.400        90
41.420        70
41.440        80
41.460        83
41.480        73
41.500        87
41.520        80
41.540       113
41.560        87
41.580       127
41.600        80
41.620       113
41.640       103
41.660        83
41.680        97
41.700        53
41.720       113
41.740        67
41.760       107
41.780        63
41.800       113
41.820        83
41.840        80
41.860        53
41.880        87
41.900        57
41.920        67
41.940        93
41.960       107
41.980        47
42.000        73
42.020       113
42.040        77
42.060        83
42.080        83
42.100       100
42.120        80
42.140        80
42.160        77
42.180        80
42.200        87
42.220        67
42.240        80
42.260        70
42.280        83
42.300        73
42.320       127
42.340        47
42.360        90
42.380        83
42.400        73
42.420       107
42.440       100
42.460        40
42.480        77
42.500       100
42.520        93
42.540       100
42.560       113
42.580       123
42.600       110
42.620       100
42.640       123
42.660        83
42.680       117
42.700       137
42.720       163
42.740       153
42.760       127
42.780       203
42.800       240
42.820       267
42.840       213
42.860       330
42.880       300
42.900       360
42.920       423
42.940       430
42.960       337
42.980       337
43.000       297
43.020       290
43.040       240
43.060       307
43.080       160
43.100       157
43.120       163
43.140       117
43.160       113
43.180       123
43.200        90
43.220        87
43.240       113
43.260       100
43.280        77
43.300       113
43.320        97
43.340        90
43.360        97
43.380       110
43.400        70
43.420       137
43.440        87
43.460        90
43.480        90
43.500        63
43.520        90
43.540        93
43.560       100
43.580        80
43.600        83
43.620        93
43.640        60
43.660        90
43.680        93
43.700        83
43.720        53
43.740        70
43.760        83
43.780        73
43.800        73
43.820        83
43.840        93
43.860        67
43.880        77
43.900        77
43.920        57
43.940       103
43.960       100
43.980       113
44.000        77
44.020        70
44.040       100
44.060       100
44.080        83
44.100        83
44.120        70
44.140        97
44.160        83
44.180       100
44.200        47
44.220        83
44.240        80
44.260        70
44.280        50
44.300        73
44.320        87
44.340        63
44.360        77
44.380        70
44.400        77
44.420        90
44.440        90
44.460        70
44.480        77
44.500        77
44.520        80
44.540        77
44.560       100
44.580        83
44.600        80
44.620        87
44.640        97
44.660       110
44.680        70
44.700        80
44.720        80
44.740        87
44.760        90
44.780        93
44.800       113
44.820        70
44.840        97
44.860        80
44.880       103
44.900        50
44.920        73
44.940        70
44.960        87
44.980       103
45.000        97
45.020       100
45.040        93
45.060       110
45.080       110
45.100        93
45.120       113
45.140       103
45.160        77
45.180       107
45.200       100
45.220       160
45.240        93
45.260        80
45.280       110
45.300        93
45.320        83
45.340       110
45.360       143
45.380        97
45.400       127
45.420       120
45.440       153
45.460       127
45.480       153
45.500       197
45.520       103
45.540       140
45.560       213
45.580       220
45.600       193
45.620       270
45.640       250
45.660       217
45.680       350
45.700       353
45.720       400
45.740       536
45.760       546
45.780       523
45.800       640
45.820       750
45.840       800
45.860       793
45.880       750
45.900       630
45.920       690
45.940       613
45.960       493
45.980       516
46.000       473
46.020       333
46.040       357
46.060       290
46.080       257
46.100       203
46.120       183
46.140       160
46.160       130
46.180       157
46.200       133
46.220       160
46.240       150
46.260       120
46.280       167
46.300       110
46.320       110
46.340       133
46.360        90
46.380        97
46.400       137
46.420       103
46.440        83
46.460       103
46.480       110
46.500        97
46.520       107
46.540       117
46.560       120
46.580        90
46.600        97
46.620       133
46.640        90
46.660       100
46.680        90
46.700       120
46.720        80
46.740       133
46.760       170
46.780       153
46.800       150
46.820       103
46.840       127
46.860       107
46.880       177
46.900       167
46.920       133
46.940       187
46.960       173
46.980       180
47.000       193
47.020       180
47.040       217
47.060       193
47.080       227
47.100       197
47.120       227
47.140       193
47.160       293
47.180       260
47.200       253
47.220       240
47.240       260
47.260       240
47.280       330
47.300       347
47.320       307
47.340       297
47.360       300
47.380       280
47.400       333
47.420       307
47.440       383
47.460       370
47.480       313
47.500       297
47.520       307
47.540       327
47.560       270
47.580       320
47.600       347
47.620       330
47.640       283
47.660       303
47.680       253
47.700       240
47.720       260
47.740       233
47.760       213
47.780       177
47.800       160
47.820       190
47.840       163
47.860       210
47.880       137
47.900       190
47.920       173
47.940       193
47.960       190
47.980       157
48.000       170
48.020       123
48.040       153
48.060       143
48.080       137
48.100       150
48.120       163
48.140       160
48.160       120
48.180       167
48.200        97
48.220       110
48.240       100
48.260       127
48.280        97
48.300        90
48.320       100
48.340        97
48.360       107
48.380        57
48.400       110
48.420        93
48.440        73
48.460        87
48.480       100
48.500       100
48.520       123
48.540       143
48.560       103
48.580        73
48.600        93
48.620        83
48.640        83
48.660        63
48.680       103
48.700        83
48.720       117
48.740        87
48.760        87
48.780       113
48.800        93
48.820       110
48.840        67
48.860        60
48.880        90
48.900        73
48.920       120
48.940        77
48.960        60
48.980       130
49.000        87
49.020        87
49.040       100
49.060        70
49.080        70
49.100        87
49.120       103
49.140        70
49.160        73
49.180        60
49.200       110
49.220        93
49.240       100
49.260        80
49.280        80
49.300        73
49.320        73
49.340        90
49.360        63
49.380        80
49.400        83
49.420        83
49.440        97
49.460        93
49.480        90
49.500       143
49.520        87
49.540        83
49.560        63
49.580       123
49.600        97
49.620        70
49.640        83
49.660        67
49.680       143
49.700        77
49.720        70
49.740        90
49.760        83
49.780       103
49.800        50
49.820        77
49.840        63
49.860        93
49.880        83
49.900        80
49.920        83
49.940       100
49.960       110
49.980        47
50.000        77
50.020       103
50.040        83
50.060        70
50.080       123
50.100       103
50.120        87
50.140        90
50.160        83
50.180        90
50.200        80
50.220       100
50.240       100
50.260        73
50.280       107
50.300        80
50.320        67
50.340       110
50.360        53
50.380        80
50.400        83
50.420       117
50.440       117
50.460        87
50.480        77
50.500       107
50.520       113
50.540       130
50.560        83
50.580       103
50.600       133
50.620        80
50.640       103
50.660        97
50.680        80
50.700        67
50.720        77
50.740        63
50.760        83
50.780       123
50.800        80
50.820        83
50.840        67
50.860        60
50.880        83
50.900       117
50.920        83
50.940        80
50.960       113
50.980       120
51.000       127
51.020       107
51.040        70
51.060        90
51.080       103
51.100        97
51.120       103
51.140        97
51.160       113
51.180        93
51.200       100
51.220        90
51.240        63
51.260       110
51.280        80
51.300        80
51.320        93
51.340       110
51.360        80
51.380       110
51.400       133
51.420       117
51.440       123
51.460       140
51.480       153
51.500       110
51.520       157
51.540       140
51.560       143
51.580       197
51.600       240
51.620       233
51.640       293
51.660       197
51.680       247
51.700       180
51.720       153
51.740       180
51.760       197
51.780       187
51.800       173
51.820       140
51.840       130
51.860       107
51.880       130
51.900       143
51.920       127
51.940       107
51.960        97
51.980       103
52.000        83
52.020        73
52.040       130
52.060       100
52.080        87
52.100        87
52.120        67
52.140        77
52.160        87
52.180       100
52.200       100
52.220        70
52.240        90
52.260        80
52.280        97
52.300        87
52.320        87
52.340        80
52.360        67
52.380       113
52.400        80
52.420        93
52.440        97
52.460        63
52.480       110
52.500        97
52.520        93
52.540       100
52.560        87
52.580        80
52.600       100
52.620        90
52.640        97
52.660        63
52.680        97
52.700        63
52.720        63
52.740        43
52.760       110
52.780        83
52.800       107
52.820        77
52.840        90
52.860        83
52.880       127
52.900       100
52.920       123
52.940        70
52.960        83
52.980        67
53.000       103
53.020        67
53.040        80
53.060        87
53.080        87
53.100        87
53.120        90
53.140       123
53.160        77
53.180       103
53.200        93
53.220        93
53.240        93
53.260       113
53.280        70
53.300       107
53.320        77
53.340        83
53.360       100
53.380        93
53.400        87
53.420       103
53.440        93
53.460        43
53.480       123
53.500        83
53.520        87
53.540        93
53.560        83
53.580        80
53.600       117
53.620       127
53.640        87
53.660        80
53.680        67
53.700        87
53.720        83
53.740        93
53.760        63
53.780        73
53.800        70
53.820        77
53.840        90
53.860       100
53.880       107
53.900       100
53.920        93
53.940        70
53.960        80
53.980       100
54.000        53
54.020       117
54.040        67
54.060       107
54.080       117
54.100        77
54.120       110
54.140        80
54.160       103
54.180        77
54.200       123
54.220        87
54.240        97
54.260        70
54.280        70
54.300        77
54.320       107
54.340        77
54.360       100
54.380        93
54.400       120
54.420        87
54.440        97
54.460       103
54.480        83
54.500       103
54.520       103
54.540       123
54.560       103
54.580        87
54.600       100
54.620        93
54.640        80
54.660       120
54.680       117
54.700       147
54.720        93
54.740        60
54.760        63
54.780        93
54.800        90
54.820        70
54.840       100
54.860        53
54.880        70
54.900        97
54.920        90
54.940        77
54.960        80
54.980       107
55.000       113
55.020       123
55.040       100
55.060        83
55.080        87
55.100       103
55.120        90
55.140       120
55.160       100
55.180       107
55.200        93
55.220       100
55.240        93
55.260       100
55.280        97
55.300        87
55.320       110
55.340        90
55.360        67
55.380        83
55.400       100
55.420        73
55.440        80
55.460       117
55.480       137
55.500       103
55.520        70
55.540        83
55.560        93
55.580        90
55.600       107
55.620        83
55.640       103
55.660       103
55.680       110
55.700        83
55.720       110
55.740       100
55.760        93
55.780       107
55.800        90
55.820       113
55.840       130
55.860        97
55.880        70
55.900        97
55.920       123
55.940       137
55.960       123
55.980       103
56.000       130
56.020       137
56.040       123
56.060       127
56.080       127
56.100       133
56.120       117
56.140       143
56.160       123
56.180       140
56.200       107
56.220       170
56.240       173
56.260       140
56.280       153
56.300       130
56.320       137
56.340       150
56.360       113
56.380       157
56.400       193
56.420       153
56.440       167
56.460       200
56.480       140
56.500       197
56.520       153
56.540       203
56.560       183
56.580       200
56.600       217
56.620       250
56.640       233
56.660       227
56.680       237
56.700       247
56.720       267
56.740       230
56.760       297
56.780       310
56.800       280
56.820       370
56.840       506
56.860       493
56.880       610
56.900       606
56.920       660
56.940       830
56.960       960
56.980       913
57.000       953
57.020       926
57.040       983
57.060       880
57.080       883
57.100       690
57.120       720
57.140       703
57.160       553
57.180       566
57.200       510
57.220       443
57.240       313
57.260       287
57.280       230
57.300       203
57.320       217
57.340       157
57.360       163
57.380       133
57.400       180
57.420       100
57.440       143
57.460       103
57.480       143
57.500       123
57.520       117
57.540       180
57.560       147
57.580       103
57.600       130
57.620        70
57.640       137
57.660       117
57.680       117
57.700       117
57.720       103
57.740       140
57.760       130
57.780       110
57.800       100
57.820        57
57.840        83
57.860        80
57.880       103
57.900        83
57.920       110
57.940        83
57.960       103
57.980        77
58.000        90
58.020        93
58.040       113
58.060        80
58.080       100
58.100        80
58.120       110
58.140       113
58.160       100
58.180        90
58.200        90
58.220        83
58.240       110
58.260        70
58.280       107
58.300       103
58.320       143
58.340       127
58.360        87
58.380       123
58.400        87
58.420        93
58.440       113
58.460       123
58.480       110
58.500       107
58.520        80
58.540        73
58.560       117
58.580       103
58.600        93
58.620       123
58.640       103
58.660        97
58.680       113
58.700        57
58.720        67
58.740       113
58.760       120
58.780       100
58.800       110
58.820        97
58.840        80
58.860        93
58.880        93
58.900       120
58.920        93
58.940        73
58.960        93
58.980        87
59.000       113
59.020       107
59.040        97
59.060       103
59.080       123
59.100       123
59.120       123
59.140        97
59.160        87
59.180        83
59.200       103
59.220       117
59.240       100
59.260        83
59.280        80
59.300        93
59.320       120
59.340        90
59.360       107
59.380        93
59.400       120
59.420       107
59.440        97
59.460        97
59.480       110
59.500       107
59.520       100
59.540       117
59.560       107
59.580       137
59.600        97
59.620       100
59.640       127
59.660       117
59.680        87
59.700       107
59.720       130
59.740        97
59.760        97
59.780       107
59.800       117
59.820       117
59.840       133
59.860        77
59.880       107
59.900       123
59.920       103
59.940        87
59.960       110
59.980       130
60.000        97
