20.000        80
20.020        67
20.040        93
20.060        53
20.080       107
20.100        53
20.120        67
20.140        47
20.160        40
20.180        53
20.200        47
20.220        93
20.240        67
20.260        33
20.280        40
20.300        67
20.320        73
20.340        53
20.360        20
20.380        87
20.400        53
20.420        40
20.440        60
20.460        33
20.480        33
20.500        47
20.520        40
20.540        80
20.560        40
20.580        33
20.600        33
20.620        27
20.640        40
20.660        80
20.680        40
20.700        60
20.720        40
20.740        47
20.760        67
20.780        47
20.800        80
20.820        53
20.840        60
20.860        27
20.880        27
20.900        40
20.920        20
20.940        47
20.960        67
20.980        67
21.000        53
21.020        20
21.040        33
21.060        80
21.080        40
21.100        47
21.120        27
21.140        73
21.160        40
21.180        47
21.200        33
21.220        47
21.240        47
21.260        40
21.280        40
21.300        80
21.320        67
21.340        47
21.360        47
21.380        27
21.400        87
21.420        53
21.440        73
21.460        73
21.480        60
21.500        53
21.520        47
21.540        87
21.560        40
21.580        47
21.600        33
21.620        47
21.640        40
21.660        40
21.680        33
21.700        47
21.720        67
21.740       107
21.760        60
21.780        60
21.800        40
21.820        47
21.840        60
21.860        33
21.880        53
21.900        60
21.920        33
21.940        53
21.960        33
21.980        33
22.000        53
22.020        20
22.040        40
22.060        40
22.080        73
22.100        60
22.120        20
22.140        87
22.160        33
22.180        40
22.200        40
22.220        67
22.240        53
22.260        33
22.280        40
22.300        60
22.320        33
22.340        53
22.360        73
22.380        60
22.400        33
22.420        67
22.440        33
22.460        73
22.480        47
22.500        73
22.520        40
22.540        53
22.560        73
22.580        40
22.600        53
22.620        40
22.640        67
22.660        47
22.680        47
22.700        13
22.720         7
22.740        13
22.760        40
22.780        67
22.800       107
22.820        40
22.840        53
22.860        73
22.880        20
22.900        67
22.920        20
22.940        67
22.960        27
22.980        53
23.000        47
23.020         7
23.040        47
23.060        47
23.080        47
23.100        47
23.120        87
23.140        33
23.160        47
23.180        33
23.200        53
23.220        20
23.240        27
23.260        40
23.280        40
23.300        80
23.320        73
23.340        20
23.360        53
23.380        40
23.400        47
23.420        33
23.440        87
23.460        53
23.480        60
23.500        47
23.520        40
23.540        40
23.560        47
23.580        33
23.600        67
23.620        53
23.640        60
23.660        27
23.680        53
23.700        60
23.720        33
23.740        33
23.760        67
23.780        80
23.800        47
23.820        33
23.840        60
23.860        73
23.880        33
23.900        27
23.920        60
23.940        20
23.960        53
23.980        33
24.000        20
24.020        60
24.040        40
24.060        20
24.080        47
24.100        47
24.120        47
24.140        33
24.160        27
24.180        33
24.200        33
24.220        33
24.240        27
24.260        67
24.280        60
24.300        67
24.320        33
24.340        47
24.360        47
24.380        33
24.400        20
24.420        47
24.440        47
24.460        40
24.480       113
24.500        47
24.520        27
24.540        40
24.560        67
24.580        67
24.600        27
24.620        27
24.640        67
24.660        40
24.680        60
24.700        87
24.720        40
24.740        47
24.760        67
24.780        47
24.800        60
24.820        87
24.840        40
24.860        33
24.880        40
24.900        53
24.920        67
24.940        27
24.960        27
24.980        33
25.000        27
25.020        47
25.040        67
25.060        60
25.080        27
25.100        60
25.120        13
25.140        47
25.160        13
25.180        20
25.200        40
25.220        40
25.240        33
25.260        53
25.280        53
25.300        33
25.320        33
25.340        60
25.360        47
25.380        67
25.400        60
25.420        67
25.440        33
25.460        47
25.480        33
25.500        73
25.520        80
25.540        60
25.560        40
25.580        80
25.600       100
25.620        53
25.640        67
25.660        47
25.680        47
25.700        60
25.720        13
25.740        27
25.760        67
25.780        33
25.800        33
25.820        80
25.840        47
25.860        33
25.880        67
25.900        53
25.920        73
25.940        67
25.960        33
25.980        67
26.000        40
26.020        20
26.040        73
26.060        40
26.080        27
26.100        60
26.120        27
26.140        33
26.160        53
26.180        27
26.200        73
26.220        27
26.240        40
26.260        33
26.280        27
26.300        60
26.320        33
26.340        27
26.360        53
26.380        67
26.400        20
26.420        27
26.440        33
26.460        47
26.480        73
26.500        47
26.520        20
26.540        67
26.560        60
26.580        73
26.600        47
26.620        47
26.640        87
26.660        33
26.680        27
26.700       107
26.720        20
26.740        67
26.760        47
26.780        67
26.800        40
26.820        80
26.840        53
26.860        53
26.880        47
26.900        33
26.920         7
26.940        47
26.960        53
26.980        33
27.000        33
27.020        20
27.040        27
27.060        47
27.080        60
27.100        27
27.120        40
27.140        33
27.160        13
27.180        27
27.200        47
27.220        27
27.240        27
27.260        13
27.280        27
27.300        27
27.320        33
27.340        13
27.360        20
27.380        60
27.400        47
27.420        47
27.440        33
27.460        27
27.480        60
27.500         7
27.520        47
27.540        53
27.560        27
27.580        60
27.600        27
27.620        27
27.640        47
27.660        47
27.680        13
27.700        20
27.720        60
27.740        33
27.760        47
27.780        27
27.800        47
27.820        60
27.840        40
27.860        67
27.880        47
27.900        20
27.920        40
27.940        53
27.960        33
27.980        33
28.000        87
28.020        53
28.040        27
28.060        33
28.080        73
28.100        47
28.120        13
28.140        93
28.160        53
28.180         7
28.200        40
28.220        53
28.240        13
28.260        27
28.280        27
28.300        67
28.320        33
28.340        13
28.360        20
28.380        27
28.400        40
28.420        20
28.440        33
28.460        33
28.480        33
28.500        27
28.520        20
28.540        13
28.560        40
28.580        27
28.600        40
28.620        53
28.640        13
28.660        27
28.680        33
28.700        13
28.720        87
28.740        33
28.760        47
28.780        13
28.800        13
28.820        53
28.840        40
28.860        20
28.880        33
28.900        13
28.920        27
28.940        67
28.960        67
28.980        20
29.000        47
29.020        33
29.040        40
29.060        60
29.080        47
29.100        47
29.120        33
29.140        27
29.160        33
29.180        27
29.200        60
29.220        73
29.240        60
29.260        47
29.280        13
29.300        67
29.320        40
29.340        20
29.360        53
29.380        20
29.400        27
29.420        40
29.440        20
29.460        40
29.480        33
29.500        47
29.520        47
29.540        47
29.560        27
29.580        67
29.600        27
29.620        13
29.640        27
29.660        33
29.680         7
29.700        27
29.720        67
29.740        27
29.760        33
29.780        27
29.800        73
29.820        60
29.840        47
29.860        53
29.880        33
29.900        47
29.920        27
29.940        40
29.960         7
29.980        60
30.000        20
30.020        47
30.040         7
30.060        20
30.080        27
30.100        27
30.120        33
30.140        20
30.160        53
30.180        47
30.200        27
30.220        27
30.240        40
30.260        53
30.280        53
30.300        47
30.320        27
30.340        33
30.360        47
30.380        27
30.400        33
30.420        33
30.440        40
30.460        33
30.480        20
30.500        33
30.520        60
30.540        40
30.560        40
30.580        27
30.600         7
30.620        33
30.640        40
30.660        40
30.680        20
30.700        20
30.720        20
30.740        20
30.760        33
30.780        47
30.800        33
30.820        47
30.840        73
30.860        87
30.880        93
30.900        60
30.920        73
30.940        87
30.960        80
30.980       113
31.000       167
31.020       140
31.040       253
31.060       207
31.080       267
31.100       253
31.120       333
31.140       320
31.160       287
31.180       253
31.200       247
31.220       180
31.240       140
31.260       147
31.280       133
31.300        60
31.320        60
31.340        93
31.360        87
31.380        80
31.400        40
31.420        73
31.440        60
31.460        47
31.480        53
31.500        27
31.520        53
31.540        53
31.560        73
31.580        33
31.600        40
31.620        47
31.640        53
31.660        40
31.680        27
31.700        53
31.720        40
31.740        33
31.760        20
31.780        73
31.800        47
31.820         7
31.840        20
31.860        33
31.880        20
31.900        27
31.920        20
31.940        27
31.960        27
31.980        20
32.000        33
32.020        47
32.040        27
32.060        40
32.080        33
32.100        53
32.120        13
32.140        13
32.160        53
32.180        13
32.200        60
32.220        27
32.240        47
32.260        27
32.280        27
32.300        13
32.320         7
32.340        27
32.360        20
32.380        33
32.400        27
32.420        27
32.440        27
32.460        40
32.480        53
32.500        73
32.520        20
32.540        13
32.560        27
32.580        33
32.600        33
32.620        53
32.640        13
32.660        13
32.680        27
32.700        33
32.720        33
32.740        20
32.760        33
32.780        20
32.800        33
32.820         7
32.840        27
32.860        27
32.880        20
32.900        27
32.920        27
32.940         7
32.960        40
32.980         0
33.000        20
33.020         7
33.040        33
33.060        13
33.080        27
33.100        27
33.120        20
33.140        20
33.160        27
33.180        20
33.200        33
33.220        27
33.240        33
33.260        27
33.280        13
33.300        13
33.320        33
33.340        40
33.360        47
33.380        27
33.400        27
33.420        20
33.440        33
33.460        27
33.480        53
33.500        27
33.520        27
33.540        13
33.560        20
33.580        27
33.600        53
33.620        40
33.640        47
33.660        53
33.680        20
33.700        27
33.720        33
33.740        27
33.760        33
33.780         7
33.800        33
33.820        47
33.840        33
33.860        47
33.880        33
33.900        47
33.920        47
33.940        27
33.960        20
33.980        47
34.000        40
34.020        53
34.040        47
34.060        40
34.080        33
34.100        40
34.120       140
34.140        33
34.160        47
34.180        60
34.200        67
34.220        27
34.240        33
34.260         7
34.280        60
34.300        40
34.320        13
34.340        20
34.360        27
34.380        47
34.400        40
34.420        40
34.440        60
34.460        67
34.480         7
34.500        47
34.520        27
34.540        27
34.560        33
34.580        33
34.600        27
34.620        33
34.640        53
34.660        20
34.680        20
34.700        33
34.720        47
34.740        53
34.760        40
34.780         0
34.800        27
34.820        33
34.840        13
34.860        13
34.880        33
34.900        40
34.920        20
34.940        53
34.960        60
34.980        27
35.000        80
35.020        40
35.040        80
35.060        73
35.080       140
35.100       147
35.120       140
35.140       140
35.160       220
35.180       280
35.200       173
35.220       187
35.240       120
35.260        93
35.280       100
35.300        93
35.320        47
35.340        60
35.360        60
35.380        40
35.400        13
35.420        53
35.440        27
35.460        40
35.480        33
35.500         7
35.520        13
35.540        33
35.560        27
35.580        13
35.600        47
35.620        27
35.640        20
35.660        40
35.680        20
35.700        33
35.720        40
35.740        13
35.760        27
35.780        33
35.800         7
35.820        13
35.840        40
35.860        60
35.880        20
35.900         7
35.920        27
35.940        40
35.960        47
35.980        20
36.000        40
36.020        40
36.040        13
36.060        20
36.080        73
36.100        40
36.120        13
36.140        33
36.160        47
36.180        47
36.200        20
36.220        13
36.240         0
36.260        40
36.280        40
36.300        20
36.320        40
36.340        20
36.360        33
36.380        33
36.400        13
36.420        27
36.440        20
36.460        13
36.480        33
36.500        47
36.520        13
36.540        20
36.560        40
36.580        40
36.600        20
36.620        13
36.640         7
36.660         0
36.680        20
36.700        27
36.720        53
36.740        20
36.760        40
36.780        20
36.800        20
36.820        40
36.840        33
36.860        47
36.880        40
36.900        40
36.920        27
36.940        47
36.960        27
36.980        67
37.000        73
37.020        47
37.040        33
37.060        20
37.080        67
37.100         7
37.120        27
37.140        40
37.160        27
37.180        53
37.200        53
37.220        20
37.240        13
37.260        20
37.280         7
37.300        33
37.320        33
37.340        33
37.360        40
37.380        13
37.400         7
37.420        40
37.440        67
37.460        27
37.480        47
37.500        53
37.520        40
37.540        47
37.560        20
37.580        73
37.600        13
37.620        33
37.640        67
37.660        20
37.680        87
37.700        73
37.720        93
37.740       120
37.760       107
37.780        53
37.800        93
37.820        93
37.840        67
37.860        73
37.880        67
37.900        53
37.920        60
37.940        67
37.960        53
37.980        60
38.000        87
38.020       127
38.040       113
38.060        67
38.080       107
38.100       173
38.120       213
38.140       207
38.160       247
38.180       233
38.200       367
38.220       500
38.240       586
38.260       653
38.280       780
38.300      1006
38.320      1160
38.340      1060
38.360      1153
38.380      1153
38.400      1133
38.420      1140
38.440       940
38.460       953
38.480       653
38.500       593
38.520       460
38.540       433
38.560       327
38.580       240
38.600       173
38.620       133
38.640        93
38.660        93
38.680       107
38.700       100
38.720        60
38.740        40
38.760       113
38.780        80
38.800        60
38.820        60
38.840        40
38.860        33
38.880        53
38.900        67
38.920        80
38.940        53
38.960        60
38.980        47
39.000        40
39.020        47
39.040        33
39.060        33
39.080        53
39.100        47
39.120        40
39.140        80
39.160        80
39.180        13
39.200        33
39.220        27
39.240        60
39.260        53
39.280        13
39.300        40
39.320        40
39.340        47
39.360        60
39.380        33
39.400        47
39.420        13
39.440        47
39.460        20
39.480        20
39.500        27
39.520        33
39.540        33
39.560        33
39.580        73
39.600        47
39.620        13
39.640        27
39.660        80
39.680        27
39.700        13
39.720        20
39.740        47
39.760        27
39.780        20
39.800        33
39.820        13
39.840        20
39.860        13
39.880        47
39.900        53
39.920        27
39.940        40
39.960        27
39.980        27
40.000        27
40.020        33
40.040        40
40.060        27
40.080         7
40.100        33
40.120        27
40.140        13
40.160        40
40.180        20
40.200        27
40.220        53
40.240        13
40.260        20
40.280        20
40.300        13
40.320        27
40.340        13
40.360        53
40.380        27
40.400        33
40.420        40
40.440        27
40.460        27
40.480        33
40.500        40
40.520         7
40.540        47
40.560        47
40.580        27
40.600        33
40.620        20
40.640        27
40.660        40
40.680        87
40.700        13
40.720        47
40.740        13
40.760        73
40.780        13
40.800        20
40.820         7
40.840        20
40.860        60
40.880        27
40.900         7
40.920        20
40.940        33
40.960        13
40.980        20
41.000        27
41.020        27
41.040        27
41.060        40
41.080        20
41.100        40
41.120        20
41.140        27
41.160        20
41.180        27
41.200        20
41.220        27
41.240        20
41.260         0
41.280        40
41.300        27
41.320        13
41.340        27
41.360        60
41.380        13
41.400        20
41.420        60
41.440        73
41.460        40
41.480        33
41.500        27
41.520        80
41.540        27
41.560        20
41.580        27
41.600        73
41.620        27
41.640        13
41.660        20
41.680        47
41.700        60
41.720        67
41.740        60
41.760        33
41.780        73
41.800        40
41.820        27
41.840        47
41.860        20
41.880        33
41.900        27
41.920        27
41.940        27
41.960        20
41.980        27
42.000        20
42.020         7
42.040        40
42.060        33
42.080        27
42.100        40
42.120        40
42.140        40
42.160        13
42.180        67
42.200        47
42.220        47
42.240        20
42.260        27
42.280        33
42.300        33
42.320         7
42.340        20
42.360        40
42.380        20
42.400        20
42.420        27
42.440        20
42.460        27
42.480        13
42.500        20
42.520        13
42.540         0
42.560        20
42.580         7
42.600        27
42.620        27
42.640        27
42.660         7
42.680        33
42.700        27
42.720        40
42.740        13
42.760        33
42.780        53
42.800        27
42.820        13
42.840         0
42.860        20
42.880        27
42.900        13
42.920        27
42.940        47
42.960         7
42.980        27
43.000        27
43.020        27
43.040        13
43.060        33
43.080        33
43.100        20
43.120        27
43.140        47
43.160        53
43.180        13
43.200        33
43.220        53
43.240        20
43.260        47
43.280        53
43.300        33
43.320       133
43.340       120
43.360       133
43.380       173
43.400       127
43.420       107
43.440        87
43.460        87
43.480       113
43.500        80
43.520        53
43.540        40
43.560        40
43.580        27
43.600        53
43.620        33
43.640        33
43.660        20
43.680        20
43.700        13
43.720        27
43.740        27
43.760        13
43.780        20
43.800        33
43.820        40
43.840        27
43.860        33
43.880        20
43.900        33
43.920        13
43.940         0
43.960        40
43.980        13
44.000        27
44.020        13
44.040        13
44.060        20
44.080        20
44.100         7
44.120        47
44.140        27
44.160        27
44.180        60
44.200         7
44.220        33
44.240        20
44.260        47
44.280        13
44.300         7
44.320        33
44.340         7
44.360         7
44.380        40
44.400        33
44.420        13
44.440        33
44.460        20
44.480         7
44.500        40
44.520        20
44.540         7
44.560        27
44.580        33
44.600        47
44.620        13
44.640        33
44.660        27
44.680        47
44.700        13
44.720        20
44.740        20
44.760        33
44.780        47
44.800        20
44.820        27
44.840        20
44.860         0
44.880        20
44.900        20
44.920         7
44.940        53
44.960        47
44.980        20
45.000        20
45.020        13
45.040        20
45.060        13
45.080        20
45.100        40
45.120        40
45.140        33
45.160        20
45.180        27
45.200        20
45.220        20
45.240        13
45.260        20
45.280        27
45.300         7
45.320        53
45.340         7
45.360        13
45.380        13
45.400        20
45.420        33
45.440         7
45.460         7
45.480        33
45.500        13
45.520         7
45.540        20
45.560        27
45.580        20
45.600        13
45.620        53
45.640        13
45.660        20
45.680        13
45.700        27
45.720        33
45.740        13
45.760        20
45.780        13
45.800        33
45.820        13
45.840        27
45.860        53
45.880        13
45.900         7
45.920        27
45.940        13
45.960        33
45.980        27
46.000        27
46.020        40
46.040        20
46.060        40
46.080        33
46.100        33
46.120        20
46.140        27
46.160        20
46.180        13
46.200        47
46.220        20
46.240        40
46.260        33
46.280         7
46.300        13
46.320        40
46.340        20
46.360        13
46.380        33
46.400         7
46.420        20
46.440        40
46.460        20
46.480         7
46.500        33
46.520         7
46.540        13
46.560        40
46.580        27
46.600        13
46.620        27
46.640        27
46.660        13
46.680        27
46.700         7
46.720        33
46.740         7
46.760        13
46.780        20
46.800        20
46.820         7
46.840        13
46.860         0
46.880        20
46.900        13
46.920        20
46.940        27
46.960        20
46.980         7
47.000         7
47.020        33
47.040         7
47.060         7
47.080        20
47.100        47
47.120        20
47.140        13
47.160        20
47.180        33
47.200        13
47.220        13
47.240        13
47.260        20
47.280         7
47.300         7
47.320        20
47.340        13
47.360        20
47.380        13
47.400        13
47.420        33
47.440        20
47.460        20
47.480        33
47.500        13
47.520        40
47.540        27
47.560        27
47.580        13
47.600        27
47.620        33
47.640        27
47.660        20
47.680         7
47.700         7
47.720        13
47.740        20
47.760         7
47.780        20
47.800        27
47.820         7
47.840        40
47.860        13
47.880         7
47.900        13
47.920        13
47.940         7
47.960         0
47.980         0
48.000        13
48.020        33
48.040         7
48.060         0
48.080        40
48.100         0
48.120         0
48.140        13
48.160        13
48.180        13
48.200        20
48.220        13
48.240        20
48.260        20
48.280        20
48.300        40
48.320        13
48.340        20
48.360        27
48.380        33
48.400        20
48.420        40
48.440        13
48.460        27
48.480        20
48.500        20
48.520        13
48.540        13
48.560        13
48.580        27
48.600        40
48.620         7
48.640        13
48.660         7
48.680        13
48.700        33
48.720        20
48.740        13
48.760        13
48.780        27
48.800         7
48.820         7
48.840        20
48.860        33
48.880        13
48.900        13
48.920         7
48.940        20
48.960        20
48.980        13
49.000        13
49.020        20
49.040        40
49.060         7
49.080        13
49.100        20
49.120        20
49.140        20
49.160        13
49.180        27
49.200        20
49.220        27
49.240         7
49.260        20
49.280        27
49.300         7
49.320         0
49.340        27
49.360        13
49.380        47
49.400        20
49.420         7
49.440         7
49.460        13
49.480         7
49.500         0
49.520        20
49.540        20
49.560        33
49.580        13
49.600        13
49.620        13
49.640        20
49.660        27
49.680         0
49.700         7
49.720         7
49.740        33
49.760        20
49.780        13
49.800        13
49.820        13
49.840        13
49.860        27
49.880        20
49.900        20
49.920        40
49.940        20
49.960        40
49.980         7
50.000        47
50.020         7
50.040         7
50.060         7
50.080        13
50.100         0
50.120         7
50.140        33
50.160        20
50.180        20
50.200        20
50.220         0
50.240         7
50.260         7
50.280         0
50.300        13
50.320        13
50.340        20
50.360        27
50.380        27
50.400        20
50.420        33
50.440        20
50.460        27
50.480         7
50.500        20
50.520        40
50.540        40
50.560        13
50.580        13
50.600        20
50.620        20
50.640        13
50.660        13
50.680        13
50.700        20
50.720         7
50.740         7
50.760        27
50.780        20
50.800        20
50.820        20
50.840        13
50.860        27
50.880        27
50.900        27
50.920        20
50.940        20
50.960         7
50.980         0
51.000        13
51.020         7
51.040        13
51.060         0
51.080         7
51.100         0
51.120        20
51.140        47
51.160        27
51.180        27
51.200         7
51.220        13
51.240        13
51.260         0
51.280        13
51.300         7
51.320        13
51.340         7
51.360         7
51.380        20
51.400         7
51.420        20
51.440        20
51.460         7
51.480        20
51.500        40
51.520        27
51.540        20
51.560        53
51.580        20
51.600         7
51.620        27
51.640        20
51.660        20
51.680         7
51.700         0
51.720         7
51.740         0
51.760        13
51.780        33
51.800        13
51.820        27
51.840        13
51.860        53
51.880        13
51.900        33
51.920        27
51.940        13
51.960        40
51.980        27
52.000        20
52.020        27
52.040        13
52.060        60
52.080        20
52.100         7
52.120        13
52.140        33
52.160        13
52.180        27
52.200        40
52.220         7
52.240        27
52.260        33
52.280        47
52.300        20
52.320        13
52.340        33
52.360         7
52.380        13
52.400         7
52.420         0
52.440        27
52.460        13
52.480        13
52.500        53
52.520        33
52.540        73
52.560        73
52.580       153
52.600       100
52.620        73
52.640        33
52.660        20
52.680        40
52.700        87
52.720        47
52.740        27
52.760        20
52.780         7
52.800        33
52.820        20
52.840        27
52.860         7
52.880        20
52.900        20
52.920        20
52.940        13
52.960        13
52.980        27
53.000        20
53.020         7
53.040        20
53.060         7
53.080        13
53.100        20
53.120        20
53.140        27
53.160        13
53.180        27
53.200        13
53.220        20
53.240        20
53.260         7
53.280        27
53.300         7
53.320        20
53.340        20
53.360        20
53.380        20
53.400        13
53.420         0
53.440        13
53.460        13
53.480        27
53.500        13
53.520         7
53.540        33
53.560        27
53.580         0
53.600        13
53.620        20
53.640        20
53.660        13
53.680        13
53.700        27
53.720         7
53.740        13
53.760        33
53.780        13
53.800        27
53.820        33
53.840        13
53.860         7
53.880        13
53.900         7
53.920        33
53.940        20
53.960        27
53.980         7
54.000         7
54.020         7
54.040         7
54.060         7
54.080        27
54.100        27
54.120        20
54.140         0
54.160        20
54.180        20
54.200        33
54.220        20
54.240        20
54.260        27
54.280         0
54.300        13
54.320        13
54.340        27
54.360        27
54.380        20
54.400        20
54.420        13
54.440         7
54.460         0
54.480        13
54.500        13
54.520         0
54.540         7
54.560        53
54.580        13
54.600        60
54.620        27
54.640         7
54.660         7
54.680        20
54.700        27
54.720         0
54.740        27
54.760         7
54.780        20
54.800        13
54.820        20
54.840        13
54.860        13
54.880        13
54.900         7
54.920        60
54.940        27
54.960        40
54.980        33
55.000        13
55.020        13
55.040        20
55.060        60
55.080        33
55.100        47
55.120        67
55.140        60
55.160        40
55.180        53
55.200        67
55.220        80
55.240       133
55.260        60
55.280       140
55.300       233
55.320       147
55.340       167
55.360       167
55.380       160
55.400       160
55.420       200
55.440       160
55.460       180
55.480       140
55.500       207
55.520       160
55.540       100
55.560       147
55.580       120
55.600        87
55.620        73
55.640        40
55.660        53
55.680        53
55.700        33
55.720        27
55.740        33
55.760        53
55.780        60
55.800        60
55.820        20
55.840        20
55.860        20
55.880        27
55.900        33
55.920        20
55.940        20
55.960        40
55.980        20
56.000        27
56.020        53
56.040        27
56.060        40
56.080        27
56.100        27
56.120         7
56.140         7
56.160         7
56.180        13
56.200         7
56.220         7
56.240        27
56.260        27
56.280         7
56.300        20
56.320        20
56.340        13
56.360        13
56.380        13
56.400        33
56.420        13
56.440        13
56.460         7
56.480        13
56.500         0
56.520        20
56.540         7
56.560        40
56.580        13
56.600        27
56.620         0
56.640        13
56.660        33
56.680        20
56.700         7
56.720         7
56.740        33
56.760        27
56.780        40
56.800        27
56.820        33
56.840        13
56.860         7
56.880        40
56.900        27
56.920        27
56.940         7
56.960         0
56.980        20
57.000         7
57.020        20
57.040        13
57.060        13
57.080        20
57.100         7
57.120         7
57.140        27
57.160        13
57.180        13
57.200        13
57.220        40
57.240         7
57.260        40
57.280        27
57.300        27
57.320        40
57.340        20
57.360        33
57.380        13
57.400        13
57.420        33
57.440        73
57.460       100
57.480       120
57.500       193
57.520       127
57.540       187
57.560       173
57.580       107
57.600        40
57.620        93
57.640        87
57.660       140
57.680       107
57.700        73
57.720        67
57.740        67
57.760        47
57.780        20
57.800        20
57.820        33
57.840        20
57.860        20
57.880         0
57.900        13
57.920        20
57.940        13
57.960        20
57.980         7
58.000         0
58.020         7
58.040        13
58.060        13
58.080        27
58.100        13
58.120         0
58.140        13
58.160         7
58.180        20
58.200        13
58.220        13
58.240         0
58.260        40
58.280        20
58.300        13
58.320         7
58.340         0
58.360        13
58.380        27
58.400        13
58.420        13
58.440        20
58.460        20
58.480        20
58.500        27
58.520         7
58.540         7
58.560        13
58.580        27
58.600         7
58.620         7
58.640        53
58.660        20
58.680        20
58.700         7
58.720        13
58.740        20
58.760         7
58.780        20
58.800         0
58.820        13
58.840         7
58.860         7
58.880         7
58.900         7
58.920        13
58.940        20
58.960        13
58.980        33
59.000        13
59.020        33
59.040        20
59.060         7
59.080        20
59.100        20
59.120         0
59.140         0
59.160        20
59.180        27
59.200        33
59.220        13
59.240        13
59.260        13
59.280        13
59.300        27
59.320         0
59.340         0
59.360        13
59.380        13
59.400        33
59.420        27
59.440        13
59.460        33
59.480        27
59.500         0
59.520         7
59.540         0
59.560         0
59.580         0
59.600         0
59.620         7
59.640         0
59.660         0
59.680         0
59.700         0
59.720         0
59.740         0
59.760         0
59.780         0
59.800         0
59.820         0
59.840         0
59.860         0
59.880         0
59.900         0
59.920         0
59.940         0
59.960         0
59.980         0
60.000         0
