20.000         0
20.020         0
20.040         0
20.060         0
20.080         0
20.100         0
20.120         0
20.140         0
20.160         3
20.180         0
20.200        40
20.220        43
20.240        30
20.260        27
20.280        33
20.300        60
20.320        27
20.340        43
20.360        17
20.380        40
20.400        50
20.420        40
20.440        37
20.460        50
20.480        53
20.500        43
20.520        47
20.540        67
20.560        40
20.580        47
20.600        63
20.620        67
20.640        63
20.660        47
20.680        67
20.700        20
20.720        60
20.740        40
20.760        33
20.780        57
20.800        37
20.820        77
20.840        43
20.860        40
20.880        53
20.900        37
20.920        43
20.940        27
20.960        43
20.980        63
21.000        20
21.020        47
21.040        40
21.060        27
21.080        40
21.100        50
21.120        23
21.140        60
21.160        53
21.180        33
21.200        40
21.220        37
21.240        43
21.260        57
21.280        40
21.300        60
21.320        50
21.340        33
21.360        33
21.380        57
21.400        40
21.420        33
21.440        43
21.460        20
21.480        57
21.500        33
21.520        33
21.540        33
21.560        43
21.580        57
21.600        50
21.620        37
21.640        37
21.660        37
21.680        47
21.700        37
21.720        33
21.740        50
21.760        30
21.780        43
21.800        33
21.820        53
21.840        40
21.860        37
21.880        47
21.900        33
21.920        40
21.940        43
21.960        47
21.980        47
22.000        57
22.020        30
22.040        27
22.060        47
22.080        37
22.100        33
22.120        40
22.140        17
22.160        50
22.180        37
22.200        47
22.220        30
22.240        40
22.260        27
22.280        43
22.300        30
22.320        33
22.340        57
22.360        23
22.380        43
22.400        23
22.420        30
22.440        33
22.460        47
22.480        60
22.500        37
22.520        33
22.540        40
22.560        27
22.580        50
22.600        30
22.620        33
22.640        33
22.660        37
22.680        63
22.700        47
22.720        37
22.740        30
22.760        33
22.780        37
22.800        37
22.820        53
22.840        47
22.860        43
22.880        33
22.900        50
22.920        40
22.940        47
22.960        30
22.980        53
23.000        37
23.020        30
23.040        27
23.060        43
23.080        27
23.100        50
23.120        47
23.140        47
23.160        47
23.180        57
23.200        47
23.220        30
23.240        23
23.260        20
23.280        50
23.300        37
23.320        33
23.340        37
23.360        33
23.380        30
23.400        33
23.420        53
23.440        30
23.460        37
23.480        17
23.500        43
23.520        57
23.540        47
23.560        30
23.580        53
23.600        37
23.620        30
23.640        27
23.660        23
23.680        37
23.700        40
23.720        20
23.740        37
23.760        23
23.780        40
23.800        40
23.820        60
23.840        40
23.860        50
23.880        43
23.900        43
23.920        53
23.940        50
23.960        30
23.980        20
24.000        40
24.020        43
24.040        37
24.060        47
24.080        37
24.100        50
24.120        33
24.140        13
24.160        40
24.180        37
24.200        50
24.220        47
24.240        23
24.260        23
24.280        37
24.300        40
24.320        50
24.340        27
24.360        43
24.380        47
24.400        43
24.420        33
24.440        47
24.460        30
24.480        40
24.500        10
24.520        37
24.540        27
24.560        37
24.580        43
24.600        33
24.620        37
24.640        27
24.660        47
24.680        43
24.700        50
24.720        30
24.740        33
24.760        43
24.780        33
24.800        30
24.820        50
24.840        23
24.860        23
24.880        37
24.900        40
24.920        47
24.940        43
24.960        50
24.980        43
25.000        47
25.020        33
25.040        43
25.060        43
25.080        10
25.100        27
25.120        43
25.140        50
25.160        23
25.180        23
25.200        33
25.220        33
25.240        43
25.260        40
25.280        47
25.300        30
25.320        23
25.340        33
25.360        30
25.380        30
25.400        40
25.420        57
25.440        33
25.460        50
25.480        37
25.500        20
25.520        40
25.540        50
25.560        37
25.580        30
25.600        43
25.620        47
25.640        33
25.660        50
25.680        43
25.700        27
25.720        23
25.740        40
25.760        30
25.780        33
25.800        20
25.820        47
25.840        37
25.860        30
25.880        20
25.900        30
25.920        47
25.940        47
25.960        13
25.980        30
26.000        27
26.020        40
26.040        40
26.060        27
26.080        47
26.100        30
26.120        33
26.140        33
26.160        50
26.180        40
26.200        53
26.220        37
26.240        30
26.260        47
26.280        17
26.300        67
26.320        40
26.340        30
26.360        40
26.380        50
26.400        40
26.420        33
26.440        40
26.460        17
26.480        50
26.500        40
26.520        50
26.540        70
26.560        23
26.580        50
26.600        63
26.620        30
26.640        27
26.660        37
26.680        33
26.700        47
26.720        40
26.740        27
26.760        17
26.780        40
26.800        20
26.820        30
26.840        37
26.860        37
26.880        30
26.900        43
26.920        43
26.940        40
26.960        43
26.980        30
27.000        37
27.020        37
27.040        27
27.060        30
27.080        10
27.100        33
27.120        57
27.140        33
27.160        13
27.180        60
27.200        47
27.220        37
27.240        33
27.260        37
27.280        50
27.300        37
27.320        47
27.340        33
27.360        33
27.380        47
27.400        27
27.420        27
27.440        53
27.460        47
27.480        50
27.500        53
27.520        37
27.540        33
27.560        27
27.580        30
27.600        60
27.620        43
27.640        20
27.660        43
27.680        17
27.700        57
27.720        27
27.740        33
27.760        60
27.780        43
27.800        50
27.820        27
27.840        37
27.860        37
27.880        43
27.900        43
27.920        30
27.940        47
27.960        43
27.980        50
28.000        27
28.020        27
28.040        43
28.060        43
28.080        30
28.100        70
28.120        33
28.140        37
28.160        50
28.180        37
28.200        43
28.220        30
28.240        30
28.260        27
28.280        40
28.300        40
28.320        37
28.340        33
28.360        40
28.380        37
28.400        47
28.420        33
28.440        37
28.460        43
28.480        27
28.500        37
28.520        33
28.540        30
28.560        63
28.580        40
28.600        57
28.620        30
28.640        60
28.660        40
28.680        17
28.700        37
28.720        20
28.740        23
28.760        60
28.780        67
28.800        40
28.820        43
28.840        70
28.860        20
28.880        37
28.900        50
28.920        50
28.940        33
28.960        43
28.980        30
29.000        40
29.020        43
29.040        53
29.060        37
29.080        60
29.100        30
29.120        30
29.140        40
29.160        57
29.180        27
29.200        53
29.220        37
29.240        43
29.260        43
29.280        33
29.300        43
29.320        43
29.340        27
29.360        27
29.380        60
29.400        30
29.420        30
29.440        27
29.460        50
29.480        37
29.500        50
29.520        40
29.540        33
29.560        27
29.580        33
29.600        30
29.620        57
29.640        30
29.660        63
29.680        30
29.700        30
29.720        47
29.740        13
29.760        23
29.780        50
29.800        27
29.820        40
29.840        30
29.860        27
29.880        33
29.900        30
29.920        23
29.940        60
29.960        40
29.980        33
30.000        47
30.020        40
30.040        40
30.060        47
30.080        37
30.100        40
30.120        53
30.140        63
30.160        53
30.180        23
30.200        37
30.220        63
30.240        47
30.260        63
30.280        73
30.300        50
30.320        43
30.340        67
30.360        50
30.380        67
30.400        57
30.420        50
30.440        47
30.460        67
30.480        40
30.500        40
30.520        43
30.540        23
30.560        70
30.580        53
30.600        50
30.620        50
30.640        53
30.660        67
30.680        83
30.700        90
30.720        83
30.740        87
30.760        93
30.780       100
30.800       123
30.820       103
30.840        90
30.860        67
30.880        90
30.900        67
30.920        77
30.940        90
30.960        67
30.980        60
31.000        77
31.020        63
31.040        53
31.060        33
31.080        43
31.100        47
31.120        70
31.140        53
31.160        43
31.180        43
31.200        43
31.220        47
31.240        50
31.260        17
31.280        47
31.300        30
31.320        37
31.340        50
31.360        37
31.380        37
31.400        37
31.420        43
31.440        30
31.460        20
31.480        37
31.500        27
31.520        43
31.540        37
31.560        33
31.580        23
31.600        37
31.620        27
31.640        30
31.660        27
31.680        43
31.700        33
31.720        43
31.740        23
31.760        53
31.780        33
31.800        20
31.820        33
31.840        27
31.860        33
31.880        27
31.900        47
31.920        43
31.940        40
31.960        37
31.980        23
32.000        13
32.020        53
32.040        40
32.060        43
32.080        17
32.100        37
32.120        23
32.140        27
32.160        13
32.180        33
32.200        53
32.220        27
32.240        43
32.260        17
32.280        13
32.300        27
32.320        33
32.340        27
32.360        23
32.380        40
32.400        17
32.420        20
32.440        43
32.460        33
32.480        30
32.500        20
32.520        37
32.540        33
32.560        13
32.580        17
32.600        43
32.620        37
32.640        30
32.660        40
32.680        30
32.700        20
32.720        33
32.740        57
32.760        30
32.780        13
32.800        40
32.820        53
32.840        20
32.860        17
32.880        10
32.900        27
32.920        13
32.940        20
32.960        50
32.980        30
33.000        40
33.020        30
33.040        37
33.060        17
33.080        43
33.100        33
33.120        23
33.140        30
33.160        27
33.180        33
33.200        30
33.220        30
33.240        33
33.260        17
33.280        17
33.300        27
33.320        23
33.340        17
33.360        23
33.380        17
33.400        33
33.420        40
33.440         7
33.460        23
33.480        23
33.500        20
33.520        30
33.540        27
33.560        30
33.580        20
33.600        27
33.620        30
33.640        40
33.660        17
33.680        43
33.700        27
33.720        20
33.740        37
33.760        13
33.780        33
33.800        30
33.820        20
33.840        20
33.860        23
33.880        13
33.900        23
33.920        30
33.940        30
33.960        20
33.980        10
34.000        23
34.020        40
34.040        30
34.060        40
34.080        30
34.100        27
34.120        43
34.140        33
34.160        40
34.180        30
34.200        27
34.220        17
34.240        37
34.260        17
34.280        43
34.300        20
34.320        17
34.340        20
34.360        13
34.380        40
34.400        27
34.420        40
34.440        20
34.460        13
34.480        23
34.500        43
34.520        20
34.540        23
34.560        37
34.580        27
34.600        37
34.620        17
34.640        30
34.660        37
34.680        23
34.700        33
34.720        20
34.740        33
34.760        43
34.780        30
34.800        40
34.820        27
34.840        40
34.860        23
34.880        37
34.900        13
34.920        43
34.940        37
34.960        40
34.980        40
35.000        20
35.020        37
35.040        43
35.060        70
35.080        43
35.100        60
35.120        77
35.140       103
35.160       220
35.180       190
35.200       160
35.220       160
35.240       137
35.260       123
35.280       127
35.300       123
35.320        63
35.340        80
35.360        40
35.380        40
35.400        33
35.420        10
35.440        20
35.460        40
35.480        27
35.500        23
35.520        27
35.540        53
35.560        13
35.580        17
35.600        27
35.620        23
35.640        37
35.660        27
35.680        40
35.700        23
35.720        17
35.740        17
35.760        37
35.780        30
35.800        17
35.820         7
35.840        17
35.860        17
35.880        37
35.900        43
35.920        27
35.940        37
35.960        13
35.980        23
36.000        27
36.020        20
36.040        17
36.060        27
36.080        27
36.100        20
36.120        27
36.140        33
36.160        50
36.180        20
36.200        30
36.220        23
36.240        30
36.260        23
36.280        27
36.300        30
36.320        40
36.340        20
36.360        13
36.380        17
36.400        27
36.420        13
36.440        13
36.460        30
36.480        20
36.500        17
36.520        43
36.540         3
36.560        17
36.580        37
36.600        20
36.620        37
36.640        40
36.660        20
36.680        23
36.700        30
36.720        20
36.740        17
36.760        10
36.780        30
36.800        37
36.820        33
36.840        40
36.860        13
36.880         3
36.900        37
36.920        27
36.940        17
36.960        20
36.980        40
37.000        17
37.020        27
37.040        30
37.060        17
37.080        27
37.100        33
37.120        23
37.140        20
37.160        27
37.180        30
37.200        30
37.220        57
37.240        23
37.260        30
37.280        23
37.300        40
37.320        27
37.340        33
37.360        37
37.380        17
37.400        30
37.420        30
37.440        13
37.460        20
37.480        20
37.500        43
37.520        33
37.540        27
37.560        37
37.580        20
37.600        40
37.620        40
37.640        27
37.660        73
37.680        67
37.700        83
37.720        93
37.740        93
37.760       130
37.780       127
37.800       157
37.820       160
37.840       243
37.860       323
37.880       293
37.900       267
37.920       360
37.940       500
37.960       483
37.980       596
38.000       436
38.020       470
38.040       570
38.060       440
38.080       436
38.100       420
38.120       257
38.140       250
38.160       153
38.180       203
38.200       153
38.220        93
38.240       130
38.260        77
38.280        93
38.300       117
38.320        67
38.340        73
38.360        53
38.380        87
38.400        57
38.420        47
38.440        50
38.460        27
38.480        53
38.500        47
38.520        70
38.540        53
38.560        33
38.580        33
38.600        43
38.620        43
38.640        40
38.660        40
38.680        40
38.700        30
38.720        40
38.740        30
38.760        23
38.780        53
38.800        37
38.820        37
38.840        30
38.860        33
38.880        17
38.900        23
38.920        37
38.940        27
38.960        30
38.980        13
39.000        20
39.020        33
39.040        40
39.060        30
39.080        40
39.100        30
39.120        13
39.140        33
39.160        17
39.180        20
39.200        13
39.220        10
39.240        30
39.260        17
39.280        23
39.300        30
39.320        20
39.340        30
39.360        33
39.380        43
39.400        17
39.420        47
39.440        17
39.460        23
39.480        33
39.500        43
39.520        20
39.540        23
39.560        17
39.580        23
39.600        17
39.620        33
39.640        17
39.660        10
39.680        33
39.700        33
39.720        23
39.740        30
39.760        33
39.780        17
39.800        30
39.820        50
39.840        30
39.860        27
39.880        37
39.900        33
39.920        37
39.940        13
39.960        20
39.980        23
40.000        27
40.020        33
40.040        27
40.060        20
40.080        20
40.100        33
40.120        37
40.140        27
40.160        23
40.180        30
40.200        23
40.220        37
40.240        30
40.260        37
40.280        10
40.300        10
40.320        47
40.340        17
40.360        27
40.380        20
40.400        43
40.420        27
40.440        33
40.460        43
40.480        17
40.500        23
40.520        40
40.540        43
40.560        23
40.580        33
40.600        27
40.620        20
40.640        10
40.660        13
40.680        33
40.700        23
40.720        27
40.740        30
40.760        20
40.780        40
40.800        30
40.820        23
40.840        13
40.860        40
40.880        47
40.900        13
40.920        13
40.940        37
40.960        33
40.980        17
41.000        23
41.020        37
41.040        10
41.060        27
41.080        17
41.100        37
41.120        23
41.140        10
41.160        40
41.180        23
41.200        17
41.220        20
41.240        17
41.260        17
41.280        27
41.300        23
41.320        30
41.340        13
41.360         7
41.380        33
41.400        23
41.420        27
41.440        37
41.460        30
41.480        40
41.500        43
41.520        27
41.540        33
41.560        37
41.580        30
41.600        47
41.620        40
41.640        30
41.660        53
41.680        57
41.700        43
41.720        47
41.740        60
41.760        63
41.780        50
41.800        40
41.820        40
41.840        23
41.860        10
41.880        27
41.900        43
41.920        17
41.940        10
41.960        23
41.980        23
42.000        13
42.020        23
42.040        33
42.060        27
42.080        23
42.100        13
42.120        20
42.140        17
42.160        30
42.180        20
42.200        17
42.220        13
42.240        13
42.260        27
42.280        37
42.300        20
42.320        23
42.340        20
42.360        17
42.380        27
42.400        17
42.420        40
42.440        20
42.460        43
42.480        20
42.500        27
42.520        37
42.540        37
42.560        20
42.580        17
42.600        33
42.620        17
42.640        10
42.660        33
42.680        37
42.700        17
42.720        17
42.740        30
42.760        20
42.780        20
42.800        30
42.820        23
42.840        20
42.860        13
42.880        20
42.900        30
42.920        10
42.940        20
42.960        20
42.980        40
43.000        13
43.020        13
43.040        13
43.060        23
43.080        17
43.100        43
43.120        20
43.140         7
43.160        30
43.180        33
43.200        40
43.220        43
43.240        30
43.260        43
43.280        27
43.300        87
43.320        77
43.340        83
43.360       107
43.380       157
43.400       177
43.420       177
43.440       153
43.460       137
43.480        80
43.500        67
43.520       100
43.540        73
43.560        47
43.580        50
43.600        20
43.620        47
43.640        30
43.660        13
43.680         3
43.700        20
43.720        27
43.740        30
43.760        20
43.780        27
43.800        40
43.820         7
43.840        17
43.860        33
43.880        13
43.900        23
43.920        27
43.940        20
43.960        27
43.980        23
44.000        40
44.020        30
44.040        20
44.060        23
44.080        20
44.100        20
44.120        27
44.140        30
44.160        30
44.180        20
44.200        27
44.220        17
44.240        20
44.260        23
44.280        30
44.300        17
44.320        20
44.340        23
44.360        27
44.380        20
44.400        27
44.420        23
44.440        10
44.460        13
44.480        20
44.500        20
44.520        30
44.540        13
44.560        23
44.580        17
44.600        13
44.620        23
44.640        20
44.660        27
44.680        23
44.700        17
44.720        10
44.740        10
44.760        30
44.780        23
44.800         7
44.820         3
44.840        17
44.860        13
44.880        23
44.900        20
44.920        30
44.940        10
44.960        17
44.980        37
45.000        40
45.020        27
45.040        37
45.060        23
45.080        23
45.100        20
45.120        33
45.140        17
45.160        13
45.180        30
45.200        23
45.220        23
45.240        30
45.260        27
45.280        13
45.300        27
45.320        13
45.340        17
45.360        17
45.380        37
45.400        10
45.420        23
45.440        27
45.460        17
45.480        27
45.500        30
45.520        20
45.540         7
45.560        30
45.580        20
45.600        17
45.620        27
45.640        37
45.660        17
45.680        20
45.700        23
45.720        23
45.740        27
45.760        13
45.780        20
45.800        33
45.820        27
45.840        17
45.860        30
45.880        30
45.900        27
45.920        17
45.940        20
45.960        27
45.980        20
46.000        10
46.020        13
46.040        13
46.060        17
46.080        20
46.100         7
46.120        17
46.140        17
46.160        17
46.180        30
46.200         7
46.220        13
46.240        13
46.260        13
46.280        33
46.300        13
46.320        17
46.340        30
46.360         7
46.380         3
46.400        37
46.420        17
46.440        17
46.460        27
46.480         7
46.500        33
46.520        23
46.540        20
46.560        13
46.580        13
46.600        13
46.620        20
46.640        27
46.660        20
46.680        13
46.700        17
46.720        13
46.740        13
46.760        20
46.780        13
46.800        30
46.820        13
46.840        20
46.860        13
46.880        23
46.900         7
46.920        17
46.940         3
46.960        23
46.980        27
47.000        23
47.020        20
47.040        10
47.060        13
47.080        10
47.100        23
47.120        10
47.140        13
47.160        13
47.180        27
47.200        13
47.220        23
47.240        20
47.260        20
47.280        30
47.300        20
47.320        17
47.340        17
47.360        20
47.380        33
47.400        20
47.420        17
47.440        23
47.460        13
47.480        17
47.500        13
47.520        17
47.540        33
47.560        17
47.580        17
47.600        20
47.620        17
47.640        10
47.660        17
47.680        27
47.700        27
47.720        17
47.740        27
47.760        30
47.780        23
47.800        13
47.820        20
47.840        13
47.860        17
47.880         7
47.900        37
47.920        27
47.940        10
47.960         3
47.980        13
48.000        17
48.020        10
48.040         7
48.060        13
48.080         3
48.100        23
48.120        13
48.140        17
48.160         0
48.180        13
48.200        20
48.220        30
48.240        20
48.260        20
48.280        27
48.300        23
48.320        13
48.340        10
48.360        13
48.380        20
48.400        17
48.420        10
48.440        13
48.460        23
48.480        10
48.500        20
48.520        20
48.540        20
48.560        13
48.580         7
48.600        23
48.620        20
48.640        23
48.660         7
48.680        13
48.700        13
48.720        10
48.740        20
48.760        17
48.780        10
48.800        27
48.820        10
48.840        30
48.860        27
48.880        20
48.900        20
48.920        13
48.940        37
48.960        23
48.980        20
49.000        17
49.020        20
49.040        27
49.060        23
49.080        17
49.100        13
49.120        23
49.140        20
49.160        13
49.180        13
49.200        33
49.220        10
49.240        17
49.260        17
49.280        13
49.300        13
49.320        13
49.340        33
49.360        10
49.380        23
49.400        13
49.420        17
49.440        13
49.460        10
49.480        13
49.500        13
49.520        27
49.540        10
49.560        20
49.580        27
49.600        20
49.620        27
49.640        23
49.660        13
49.680        20
49.700        10
49.720        17
49.740        23
49.760        13
49.780        20
49.800        33
49.820        23
49.840        20
49.860        13
49.880        10
49.900        17
49.920        20
49.940        17
49.960        17
49.980        10
50.000        23
50.020        17
50.040        33
50.060        17
50.080         7
50.100        10
50.120        10
50.140        23
50.160        20
50.180        20
50.200        10
50.220        17
50.240        23
50.260        37
50.280        10
50.300        17
50.320        13
50.340        17
50.360         7
50.380        17
50.400        20
50.420        13
50.440        27
50.460        23
50.480         3
50.500        33
50.520        27
50.540        10
50.560        20
50.580        23
50.600        27
50.620        10
50.640        10
50.660        13
50.680        10
50.700        13
50.720         7
50.740        10
50.760        23
50.780         7
50.800        17
50.820        10
50.840        13
50.860        10
50.880        13
50.900        17
50.920        10
50.940        17
50.960        27
50.980        30
51.000        27
51.020        27
51.040        20
51.060        13
51.080        10
51.100        13
51.120        33
51.140         7
51.160        10
51.180        13
51.200        30
51.220        10
51.240        17
51.260        13
51.280         7
51.300        17
51.320        13
51.340        17
51.360        23
51.380         7
51.400        17
51.420        20
51.440        20
51.460        20
51.480        20
51.500        20
51.520        27
51.540         0
51.560        27
51.580         7
51.600         7
51.620        23
51.640        17
51.660         7
51.680        10
51.700        20
51.720        30
51.740        20
51.760         7
51.780        10
51.800        23
51.820        23
51.840        20
51.860        13
51.880        10
51.900        13
51.920        23
51.940         3
51.960        10
51.980        30
52.000        10
52.020        33
52.040        17
52.060        20
52.080        33
52.100        20
52.120        23
52.140        20
52.160        27
52.180        17
52.200        17
52.220        13
52.240        13
52.260        17
52.280        23
52.300         3
52.320        10
52.340        13
52.360        33
52.380        23
52.400        13
52.420        13
52.440        20
52.460         7
52.480        10
52.500        40
52.520        17
52.540        13
52.560        33
52.580        27
52.600        27
52.620        23
52.640        30
52.660        43
52.680        37
52.700        30
52.720        23
52.740        50
52.760        53
52.780        20
52.800        20
52.820        23
52.840        13
52.860        10
52.880        13
52.900        20
52.920        20
52.940        17
52.960        10
52.980        17
53.000        20
53.020        13
53.040        27
53.060        17
53.080        33
53.100        20
53.120        20
53.140        23
53.160        20
53.180        10
53.200        27
53.220        13
53.240        20
53.260        37
53.280        30
53.300        13
53.320        10
53.340        23
53.360        13
53.380        17
53.400        13
53.420        23
53.440        23
53.460        17
53.480        40
53.500        10
53.520        23
53.540        33
53.560        20
53.580        27
53.600        27
53.620        10
53.640        20
53.660        10
53.680        20
53.700        17
53.720        23
53.740        17
53.760        20
53.780        17
53.800        20
53.820        13
53.840         7
53.860        20
53.880        23
53.900        17
53.920        20
53.940        27
53.960        13
53.980        13
54.000        10
54.020         7
54.040        13
54.060        27
54.080        13
54.100        27
54.120        33
54.140        13
54.160        20
54.180        27
54.200        30
54.220        23
54.240        40
54.260        20
54.280        40
54.300        33
54.320        23
54.340        17
54.360        10
54.380        23
54.400        37
54.420        33
54.440        30
54.460        63
54.480        37
54.500        57
54.520        70
54.540        73
54.560        80
54.580        93
54.600       107
54.620        87
54.640       110
54.660       150
54.680       133
54.700       187
54.720       157
54.740       207
54.760       277
54.780       247
54.800       220
54.820       183
54.840       187
54.860       210
54.880       220
54.900       167
54.920       170
54.940       167
54.960       137
54.980       170
55.000       110
55.020       110
55.040        93
55.060        73
55.080        97
55.100        53
55.120        57
55.140        50
55.160        47
55.180        37
55.200        40
55.220        23
55.240        60
55.260        30
55.280        20
55.300        37
55.320        30
55.340        40
55.360        30
55.380        23
55.400        33
55.420        30
55.440        30
55.460        43
55.480        17
55.500        17
55.520        17
55.540        30
55.560        43
55.580        13
55.600        10
55.620        13
55.640        20
55.660        13
55.680        40
55.700        20
55.720        13
55.740        23
55.760        20
55.780        20
55.800        17
55.820        30
55.840        33
55.860        13
55.880        20
55.900        23
55.920        10
55.940        20
55.960         7
55.980        20
56.000        10
56.020        17
56.040        30
56.060        17
56.080        23
56.100        17
56.120        17
56.140        20
56.160        20
56.180         7
56.200        30
56.220        20
56.240        17
56.260        13
56.280        13
56.300        13
56.320        13
56.340        10
56.360        10
56.380        23
56.400        20
56.420        13
56.440        10
56.460        20
56.480        10
56.500        30
56.520        23
56.540        10
56.560        23
56.580        13
56.600         7
56.620        33
56.640         7
56.660        10
56.680        13
56.700        13
56.720        10
56.740        17
56.760        23
56.780        27
56.800        23
56.820        20
56.840        33
56.860         7
56.880        23
56.900        20
56.920        13
56.940        13
56.960        10
56.980        23
57.000        23
57.020        23
57.040        10
57.060        13
57.080        23
57.100        17
57.120        13
57.140         7
57.160        10
57.180        17
57.200        10
57.220        20
57.240        20
57.260        27
57.280        20
57.300        33
57.320        20
57.340        33
57.360        33
57.380        27
57.400        30
57.420        30
57.440        53
57.460        47
57.480        53
57.500       113
57.520        83
57.540       143
57.560       140
57.580       197
57.600       143
57.620        80
57.640        80
57.660        63
57.680        63
57.700       107
57.720       103
57.740       120
57.760        73
57.780        60
57.800        37
57.820        30
57.840        17
57.860        30
57.880        40
57.900        23
57.920        33
57.940        20
57.960        20
57.980        20
58.000        23
58.020        13
58.040        27
58.060         0
58.080        13
58.100        17
58.120         7
58.140        13
58.160        17
58.180        10
58.200         7
58.220        37
58.240        10
58.260        10
58.280        13
58.300        20
58.320        17
58.340         0
58.360        20
58.380        10
58.400        27
58.420         0
58.440        13
58.460        23
58.480        27
58.500         3
58.520        17
58.540        10
58.560        10
58.580        20
58.600        13
58.620        20
58.640        13
58.660        13
58.680        17
58.700        10
58.720        13
58.740        13
58.760         3
58.780        30
58.800        17
58.820        27
58.840         3
58.860        17
58.880         3
58.900        17
58.920        10
58.940        20
58.960         7
58.980        10
59.000         7
59.020        13
59.040         0
59.060        10
59.080        17
59.100        20
59.120        10
59.140        10
59.160         3
59.180        13
59.200        10
59.220        13
59.240        13
59.260        13
59.280        17
59.300         7
59.320        17
59.340        17
59.360        23
59.380        13
59.400        20
59.420        13
59.440         0
59.460        27
59.480        10
59.500        10
59.520        27
59.540         3
59.560         7
59.580         7
59.600        23
59.620         7
59.640        30
59.660        27
59.680         3
59.700        20
59.720        17
59.740         7
59.760        20
59.780        23
59.800        27
59.820         3
59.840        13
59.860        20
59.880        23
59.900        13
59.920        20
59.940        20
59.960        13
59.980         7
60.000         7
