20.000         0
20.020         0
20.040         0
20.060         0
20.080         0
20.100         3
20.120         0
20.140         0
20.160         0
20.180         0
20.200         0
20.220         0
20.240         0
20.260         0
20.280         0
20.300        37
20.320        40
20.340        40
20.360        33
20.380        67
20.400        53
20.420        47
20.440        77
20.460        53
20.480        60
20.500        47
20.520        40
20.540        50
20.560        50
20.580        60
20.600        73
20.620        57
20.640        53
20.660        53
20.680        30
20.700        53
20.720        40
20.740        43
20.760        63
20.780        50
20.800        40
20.820        43
20.840        47
20.860        53
20.880        50
20.900        20
20.920        63
20.940        47
20.960        40
20.980        50
21.000        30
21.020        27
21.040        57
21.060        47
21.080        53
21.100        33
21.120        33
21.140        47
21.160        50
21.180        43
21.200        60
21.220        57
21.240        47
21.260        33
21.280        47
21.300        43
21.320        43
21.340        30
21.360        47
21.380        60
21.400        43
21.420        43
21.440        47
21.460        20
21.480        57
21.500        57
21.520        87
21.540        60
21.560        47
21.580        77
21.600        33
21.620        70
21.640        27
21.660        80
21.680        37
21.700        60
21.720        70
21.740        63
21.760        50
21.780        47
21.800        30
21.820        37
21.840        47
21.860        63
21.880        30
21.900        47
21.920        57
21.940        50
21.960        63
21.980        50
22.000        47
22.020        47
22.040        20
22.060        63
22.080        20
22.100        67
22.120        67
22.140        43
22.160        27
22.180        57
22.200        40
22.220        60
22.240        63
22.260        73
22.280        60
22.300        83
22.320        43
22.340        50
22.360        80
22.380        60
22.400        47
22.420        53
22.440        70
22.460        40
22.480        67
22.500        60
22.520        47
22.540        37
22.560        83
22.580        60
22.600        73
22.620        47
22.640        37
22.660        40
22.680        43
22.700        50
22.720        33
22.740        40
22.760        43
22.780        47
22.800        33
22.820        47
22.840        47
22.860        20
22.880        23
22.900        40
22.920        53
22.940        33
22.960        27
22.980        33
23.000        43
23.020        50
23.040        30
23.060        33
23.080        40
23.100        37
23.120        43
23.140        70
23.160        53
23.180        43
23.200        30
23.220        47
23.240        57
23.260        70
23.280        40
23.300        17
23.320        57
23.340        37
23.360        63
23.380        50
23.400        40
23.420        27
23.440        50
23.460        47
23.480        40
23.500        50
23.520        50
23.540        40
23.560        57
23.580        53
23.600        47
23.620        47
23.640        37
23.660        43
23.680        40
23.700        50
23.720        67
23.740        40
23.760        37
23.780        37
23.800        37
23.820        60
23.840        47
23.860        50
23.880        53
23.900        50
23.920        30
23.940        57
23.960        37
23.980        33
24.000        43
24.020        37
24.040        60
24.060        47
24.080        60
24.100        37
24.120        53
24.140        47
24.160        53
24.180        23
24.200        50
24.220        33
24.240        40
24.260        43
24.280        40
24.300        37
24.320        27
24.340        23
24.360        47
24.380        40
24.400        57
24.420        37
24.440        37
24.460        37
24.480        37
24.500        37
24.520        43
24.540        30
24.560        40
24.580        63
24.600        47
24.620        40
24.640        33
24.660        50
24.680        37
24.700        53
24.720        60
24.740        80
24.760        33
24.780        40
24.800        67
24.820        27
24.840        63
24.860        47
24.880        43
24.900        47
24.920        40
24.940        47
24.960        47
24.980        40
25.000        47
25.020        47
25.040        57
25.060        23
25.080        37
25.100        53
25.120        33
25.140        40
25.160        40
25.180        57
25.200        63
25.220        47
25.240        67
25.260        57
25.280        33
25.300        50
25.320        33
25.340        50
25.360        70
25.380        53
25.400        43
25.420        50
25.440        40
25.460        47
25.480        70
25.500        57
25.520        43
25.540        73
25.560        57
25.580        57
25.600       103
25.620       110
25.640       107
25.660       100
25.680       107
25.700        97
25.720        67
25.740        73
25.760        33
25.780        40
25.800        53
25.820        53
25.840        53
25.860        73
25.880        60
25.900        33
25.920        43
25.940        57
25.960        53
25.980        60
26.000        43
26.020        50
26.040        40
26.060        43
26.080        33
26.100        23
26.120        40
26.140        30
26.160        40
26.180        57
26.200        30
26.220        23
26.240        50
26.260        47
26.280        43
26.300        43
26.320        43
26.340        63
26.360        40
26.380        57
26.400        53
26.420        47
26.440        47
26.460        43
26.480        63
26.500        50
26.520        37
26.540        23
26.560        43
26.580        37
26.600        47
26.620        27
26.640        60
26.660        40
26.680        50
26.700        60
26.720        57
26.740        37
26.760        47
26.780        57
26.800        63
26.820        50
26.840        47
26.860        23
26.880        43
26.900        63
26.920        50
26.940        37
26.960        53
26.980        57
27.000        27
27.020        30
27.040        40
27.060        30
27.080        57
27.100        37
27.120        57
27.140        57
27.160        43
27.180        43
27.200        43
27.220        47
27.240        37
27.260        30
27.280        53
27.300        27
27.320        63
27.340        37
27.360        30
27.380        57
27.400        50
27.420        47
27.440        60
27.460        20
27.480        37
27.500        63
27.520        30
27.540        33
27.560        47
27.580        63
27.600        53
27.620        30
27.640        37
27.660        50
27.680        37
27.700        33
27.720        37
27.740        57
27.760        47
27.780        40
27.800        47
27.820        33
27.840        13
27.860        27
27.880        40
27.900        40
27.920        73
27.940        40
27.960        57
27.980        63
28.000        27
28.020        53
28.040        30
28.060        50
28.080        33
28.100        43
28.120        47
28.140        30
28.160        50
28.180        53
28.200        47
28.220        30
28.240        53
28.260        50
28.280        30
28.300        67
28.320        37
28.340        23
28.360        73
28.380        37
28.400        43
28.420        43
28.440        47
28.460        50
28.480        47
28.500        57
28.520        70
28.540        43
28.560        53
28.580        57
28.600        67
28.620        33
28.640        27
28.660        50
28.680        33
28.700        33
28.720        33
28.740        37
28.760        60
28.780        50
28.800        43
28.820        33
28.840        20
28.860        57
28.880        37
28.900        67
28.920        40
28.940        53
28.960        50
28.980        37
29.000        50
29.020        37
29.040        20
29.060        23
29.080        33
29.100        50
29.120        30
29.140        33
29.160        50
29.180        23
29.200        60
29.220        33
29.240        17
29.260        27
29.280        30
29.300        57
29.320        40
29.340        27
29.360        47
29.380        27
29.400        37
29.420        27
29.440        30
29.460        47
29.480        23
29.500        40
29.520        53
29.540        47
29.560        63
29.580        33
29.600        67
29.620        53
29.640        47
29.660        30
29.680        37
29.700        33
29.720        50
29.740        40
29.760        23
29.780        43
29.800        57
29.820        53
29.840        43
29.860        53
29.880        40
29.900        60
29.920        40
29.940        47
29.960        40
29.980        27
30.000        63
30.020        50
30.040        40
30.060        57
30.080        37
30.100        50
30.120        37
30.140        50
30.160        37
30.180        40
30.200        37
30.220        53
30.240        63
30.260        47
30.280        60
30.300        53
30.320        37
30.340        70
30.360        57
30.380        57
30.400        70
30.420        47
30.440        73
30.460        67
30.480        50
30.500        90
30.520        73
30.540        83
30.560        87
30.580        63
30.600        77
30.620       100
30.640        43
30.660        87
30.680        50
30.700       100
30.720        67
30.740        80
30.760        63
30.780        50
30.800        60
30.820        57
30.840        80
30.860        67
30.880        70
30.900        87
30.920        70
30.940        43
30.960        63
30.980        60
31.000        33
31.020        47
31.040        50
31.060        30
31.080        70
31.100        53
31.120        60
31.140        47
31.160        27
31.180        37
31.200        40
31.220        43
31.240        57
31.260        63
31.280        37
31.300        73
31.320        47
31.340        37
31.360        40
31.380        30
31.400        57
31.420        33
31.440        60
31.460        37
31.480        43
31.500        40
31.520        27
31.540        50
31.560        17
31.580        43
31.600        27
31.620        47
31.640        63
31.660        43
31.680        30
31.700        47
31.720        50
31.740        30
31.760        27
31.780        30
31.800        37
31.820        47
31.840        43
31.860        30
31.880        40
31.900        40
31.920        37
31.940        53
31.960        43
31.980        50
32.000        53
32.020        50
32.040        37
32.060        43
32.080        20
32.100        57
32.120        23
32.140        20
32.160        73
32.180        30
32.200        30
32.220        37
32.240        37
32.260        27
32.280        23
32.300        43
32.320        30
32.340        33
32.360        37
32.380        40
32.400        40
32.420        27
32.440        47
32.460        43
32.480        27
32.500        30
32.520        40
32.540        47
32.560        47
32.580        50
32.600        47
32.620        43
32.640        53
32.660        27
32.680        33
32.700        57
32.720        20
32.740        23
32.760        50
32.780        43
32.800        17
32.820        60
32.840        37
32.860        30
32.880        40
32.900        23
32.920        43
32.940        27
32.960        40
32.980        23
33.000        37
33.020        27
33.040        27
33.060        33
33.080        17
33.100        33
33.120        30
33.140        30
33.160        33
33.180        27
33.200        50
33.220        37
33.240        30
33.260        40
33.280        27
33.300        40
33.320        17
33.340        27
33.360        33
33.380        27
33.400        43
33.420        37
33.440        27
33.460        37
33.480        23
33.500        23
33.520        27
33.540        30
33.560        30
33.580        40
33.600        33
33.620        43
33.640        20
33.660        50
33.680        33
33.700        10
33.720        33
33.740        17
33.760        20
33.780        27
33.800        33
33.820        27
33.840        47
33.860        30
33.880        47
33.900        20
33.920        43
33.940        23
33.960        33
33.980        37
34.000        23
34.020        53
34.040        43
34.060        63
34.080        13
34.100        63
34.120        40
34.140        30
34.160        30
34.180        30
34.200        43
34.220        20
34.240        43
34.260        13
34.280        43
34.300        40
34.320        23
34.340        53
34.360        27
34.380        37
34.400        30
34.420        30
34.440        37
34.460        47
34.480        50
34.500        50
34.520        43
34.540        50
34.560        40
34.580        20
34.600        23
34.620        17
34.640        10
34.660        50
34.680        40
34.700        23
34.720        33
34.740        20
34.760        40
34.780        53
34.800        23
34.820        30
34.840        40
34.860        30
34.880        30
34.900        27
34.920        47
34.940        50
34.960        47
34.980        37
35.000        43
35.020        40
35.040        57
35.060        63
35.080        70
35.100        50
35.120        77
35.140       130
35.160       193
35.180       250
35.200       307
35.220       267
35.240       197
35.260       163
35.280       197
35.300       113
35.320       127
35.340        47
35.360        30
35.380        20
35.400        30
35.420        37
35.440        27
35.460        17
35.480        23
35.500        30
35.520        37
35.540        43
35.560        37
35.580        40
35.600        27
35.620        43
35.640        33
35.660        37
35.680        43
35.700        27
35.720        30
35.740        33
35.760        20
35.780        33
35.800        27
35.820        37
35.840        43
35.860        47
35.880        37
35.900        30
35.920        40
35.940        27
35.960        43
35.980        33
36.000        20
36.020        40
36.040        37
36.060        47
36.080        40
36.100        23
36.120        23
36.140        23
36.160        30
36.180        30
36.200        27
36.220        23
36.240        20
36.260        23
36.280        20
36.300        10
36.320        37
36.340        10
36.360        27
36.380        27
36.400        23
36.420        30
36.440        43
36.460        23
36.480        23
36.500        27
36.520        23
36.540        23
36.560        33
36.580        53
36.600        37
36.620        30
36.640        30
36.660        37
36.680        37
36.700        37
36.720        37
36.740        30
36.760        37
36.780        23
36.800        33
36.820        23
36.840        33
36.860        40
36.880        50
36.900        53
36.920        30
36.940        37
36.960        33
36.980        43
37.000        27
37.020        30
37.040        50
37.060        63
37.080        63
37.100        33
37.120        67
37.140        30
37.160        37
37.180        33
37.200        63
37.220        40
37.240        57
37.260        23
37.280        53
37.300        53
37.320        57
37.340        57
37.360        43
37.380        77
37.400        60
37.420        70
37.440       110
37.460        63
37.480       100
37.500       110
37.520       117
37.540       187
37.560       153
37.580       180
37.600       263
37.620       273
37.640       330
37.660       367
37.680       506
37.700       553
37.720       666
37.740       803
37.760       900
37.780      1070
37.800      1163
37.820      1379
37.840      1579
37.860      1603
37.880      1549
37.900      1356
37.920      1173
37.940      1040
37.960       843
37.980       700
38.000       523
38.020       433
38.040       327
38.060       267
38.080       220
38.100       183
38.120       190
38.140       173
38.160       153
38.180       117
38.200       103
38.220       153
38.240       107
38.260       103
38.280       117
38.300        87
38.320       100
38.340       123
38.360        77
38.380        90
38.400        63
38.420       100
38.440        80
38.460        63
38.480        47
38.500        70
38.520        63
38.540        53
38.560        67
38.580        70
38.600        70
38.620        87
38.640        63
38.660        70
38.680        73
38.700        50
38.720        57
38.740        53
38.760        60
38.780        43
38.800        50
38.820        70
38.840        63
38.860        57
38.880        40
38.900        50
38.920        43
38.940        40
38.960        53
38.980        47
39.000        43
39.020        37
39.040        43
39.060        37
39.080        60
39.100        47
39.120        40
39.140        40
39.160        43
39.180        60
39.200        43
39.220        27
39.240        33
39.260        30
39.280        47
39.300        37
39.320        47
39.340        37
39.360        43
39.380        23
39.400        33
39.420        30
39.440        50
39.460        37
39.480        40
39.500        23
39.520        23
39.540        37
39.560        30
39.580        27
39.600        40
39.620        47
39.640        33
39.660        30
39.680        40
39.700        33
39.720        30
39.740        37
39.760        63
39.780        10
39.800        33
39.820        23
39.840        17
39.860        23
39.880        33
39.900        30
39.920        30
39.940        37
39.960        43
39.980        27
40.000        37
40.020        30
40.040        23
40.060        17
40.080        37
40.100        20
40.120        43
40.140        17
40.160        27
40.180        47
40.200        33
40.220        23
40.240        37
40.260        30
40.280        40
40.300        30
40.320        40
40.340        27
40.360        37
40.380        30
40.400        37
40.420        17
40.440        27
40.460        27
40.480        27
40.500        40
40.520        23
40.540        37
40.560        23
40.580        37
40.600        20
40.620        27
40.640        47
40.660        30
40.680        27
40.700        33
40.720        37
40.740        23
40.760        37
40.780        33
40.800        47
40.820        27
40.840        27
40.860        47
40.880        17
40.900        23
40.920        47
40.940        53
40.960        30
40.980        47
41.000        27
41.020        20
41.040        20
41.060        33
41.080        33
41.100        23
41.120        27
41.140        60
41.160        20
41.180        43
41.200        47
41.220        30
41.240        33
41.260        20
41.280        17
41.300        27
41.320        33
41.340        23
41.360        23
41.380        30
41.400        23
41.420        50
41.440        23
41.460        43
41.480        27
41.500        40
41.520        33
41.540        30
41.560        37
41.580        30
41.600        20
41.620        27
41.640        47
41.660        23
41.680        50
41.700        57
41.720        60
41.740        60
41.760        47
41.780        70
41.800        37
41.820        33
41.840        40
41.860        30
41.880        27
41.900        33
41.920        33
41.940        33
41.960        37
41.980        33
42.000        23
42.020        20
42.040        33
42.060        37
42.080        30
42.100        30
42.120        40
42.140        23
42.160        37
42.180        13
42.200        37
42.220        17
42.240        30
42.260        27
42.280        40
42.300        20
42.320        33
42.340        50
42.360        23
42.380        40
42.400        20
42.420        27
42.440        17
42.460        43
42.480        23
42.500        30
42.520        20
42.540        17
42.560        20
42.580        30
42.600        30
42.620        33
42.640        37
42.660        27
42.680        30
42.700        20
42.720        40
42.740        23
42.760        23
42.780        20
42.800        50
42.820        23
42.840        20
42.860        30
42.880        27
42.900        27
42.920        23
42.940        23
42.960        17
42.980        20
43.000        30
43.020        10
43.040        33
43.060        33
43.080        37
43.100        37
43.120         7
43.140        43
43.160        27
43.180        37
43.200        43
43.220        27
43.240        27
43.260        43
43.280        40
43.300        63
43.320        70
43.340       100
43.360        80
43.380        97
43.400       143
43.420       107
43.440       190
43.460       113
43.480        63
43.500        80
43.520       103
43.540        63
43.560        97
43.580        57
43.600        60
43.620        27
43.640        50
43.660        37
43.680        37
43.700        43
43.720        37
43.740        50
43.760        30
43.780        20
43.800        37
43.820        47
43.840        47
43.860        50
43.880        70
43.900        50
43.920        63
43.940        73
43.960        50
43.980        47
44.000        63
44.020        53
44.040        33
44.060        40
44.080        47
44.100        30
44.120        20
44.140        47
44.160        43
44.180        43
44.200        33
44.220        27
44.240        27
44.260        40
44.280        40
44.300        43
44.320        17
44.340        40
44.360        20
44.380        30
44.400        20
44.420        47
44.440        23
44.460        37
44.480        17
44.500        40
44.520        33
44.540        23
44.560        23
44.580        20
44.600        13
44.620        20
44.640        27
44.660        17
44.680        37
44.700        33
44.720        30
44.740        20
44.760        23
44.780        30
44.800        20
44.820        27
44.840        20
44.860        33
44.880        33
44.900        27
44.920        23
44.940        27
44.960        20
44.980        23
45.000        20
45.020        47
45.040        17
45.060        23
45.080        40
45.100         7
45.120        33
45.140        30
45.160        40
45.180        30
45.200        20
45.220        53
45.240        43
45.260        20
45.280        33
45.300        43
45.320        27
45.340        20
45.360        23
45.380        37
45.400        20
45.420        50
45.440        27
45.460        37
45.480        23
45.500        37
45.520        23
45.540        17
45.560        20
45.580        23
45.600        17
45.620        47
45.640        33
45.660        27
45.680        27
45.700        27
45.720        27
45.740        27
45.760        13
45.780        10
45.800        10
45.820        30
45.840        27
45.860        23
45.880        37
45.900        10
45.920        20
45.940        20
45.960        27
45.980        20
46.000        23
46.020        17
46.040        27
46.060        23
46.080        23
46.100        17
46.120        13
46.140        23
46.160        30
46.180        17
46.200        20
46.220        30
46.240        30
46.260        13
46.280        17
46.300        17
46.320        33
46.340        23
46.360        20
46.380        27
46.400        20
46.420        27
46.440        23
46.460        27
46.480        20
46.500        17
46.520        30
46.540        13
46.560        43
46.580        13
46.600        20
46.620         7
46.640        37
46.660        37
46.680        20
46.700        17
46.720        30
46.740        73
46.760        13
46.780        13
46.800        13
46.820        30
46.840        37
46.860        27
46.880        27
46.900        33
46.920        20
46.940        17
46.960        13
46.980        27
47.000        20
47.020        27
47.040        10
47.060        20
47.080        17
47.100        30
47.120        27
47.140        17
47.160        20
47.180        17
47.200        23
47.220        27
47.240        33
47.260        23
47.280        20
47.300        27
47.320        13
47.340        23
47.360        20
47.380         3
47.400        13
47.420        20
47.440        20
47.460        33
47.480        10
47.500        23
47.520        20
47.540        20
47.560        33
47.580        13
47.600        37
47.620        13
47.640        20
47.660        33
47.680        17
47.700        13
47.720        17
47.740        23
47.760        13
47.780        33
47.800        27
47.820        17
47.840        30
47.860        13
47.880        13
47.900        13
47.920        13
47.940        20
47.960        17
47.980        10
48.000        10
48.020        23
48.040        37
48.060        33
48.080        17
48.100        30
48.120        23
48.140        13
48.160        20
48.180        27
48.200        27
48.220        10
48.240        10
48.260        17
48.280        30
48.300        33
48.320        10
48.340        30
48.360        23
48.380        30
48.400        30
48.420        33
48.440        27
48.460        10
48.480        23
48.500        23
48.520        20
48.540        27
48.560        33
48.580        10
48.600        20
48.620        13
48.640        13
48.660        17
48.680        17
48.700        10
48.720        20
48.740        20
48.760        27
48.780        20
48.800        37
48.820        20
48.840        10
48.860        30
48.880        17
48.900        13
48.920        23
48.940        13
48.960        27
48.980        17
49.000        23
49.020        20
49.040        13
49.060        20
49.080        13
49.100        13
49.120        13
49.140        17
49.160        23
49.180        27
49.200        20
49.220        23
49.240        27
49.260        23
49.280         3
49.300        13
49.320        20
49.340        13
49.360        17
49.380        37
49.400        10
49.420        20
49.440        33
49.460        13
49.480        20
49.500        23
49.520        17
49.540         3
49.560        23
49.580        10
49.600        10
49.620        23
49.640        17
49.660        27
49.680        23
49.700        30
49.720        17
49.740        20
49.760        13
49.780        20
49.800        20
49.820        23
49.840        27
49.860        13
49.880        40
49.900        27
49.920        37
49.940        17
49.960        33
49.980        20
50.000        13
50.020        13
50.040        23
50.060        17
50.080        13
50.100        30
50.120        13
50.140        20
50.160        17
50.180        20
50.200        20
50.220        10
50.240        27
50.260         7
50.280        23
50.300        43
50.320        33
50.340        10
50.360        20
50.380        27
50.400        13
50.420        23
50.440        33
50.460        23
50.480        23
50.500        20
50.520        20
50.540        13
50.560        20
50.580        27
50.600        23
50.620         3
50.640        27
50.660        13
50.680         7
50.700        33
50.720        13
50.740        13
50.760        10
50.780        27
50.800        43
50.820         7
50.840        27
50.860         7
50.880        10
50.900        13
50.920        20
50.940        17
50.960        20
50.980        17
51.000        23
51.020         0
51.040        33
51.060        13
51.080        37
51.100        17
51.120         7
51.140        30
51.160        17
51.180         3
51.200        37
51.220        10
51.240        27
51.260        23
51.280        27
51.300        13
51.320        37
51.340        13
51.360         7
51.380        13
51.400        33
51.420        13
51.440        13
51.460        17
51.480        17
51.500        30
51.520         3
51.540        23
51.560        20
51.580        17
51.600        13
51.620        23
51.640        20
51.660        27
51.680        30
51.700        23
51.720        30
51.740        20
51.760         7
51.780        23
51.800        27
51.820        10
51.840        20
51.860        20
51.880        10
51.900        20
51.920        17
51.940        20
51.960        33
51.980        27
52.000        20
52.020        17
52.040        20
52.060         3
52.080        23
52.100        20
52.120        17
52.140        20
52.160         7
52.180        13
52.200        13
52.220        20
52.240        13
52.260        23
52.280        40
52.300        23
52.320        10
52.340        17
52.360        20
52.380        20
52.400        17
52.420        13
52.440        43
52.460        37
52.480        37
52.500        43
52.520        40
52.540       107
52.560        70
52.580        83
52.600        90
52.620        67
52.640        93
52.660        47
52.680        97
52.700        43
52.720        73
52.740        70
52.760        67
52.780        67
52.800        37
52.820        27
52.840        37
52.860        13
52.880        30
52.900        27
52.920        20
52.940        27
52.960        23
52.980        23
53.000        17
53.020        13
53.040        23
53.060        13
53.080        10
53.100        23
53.120        30
53.140        23
53.160        13
53.180        17
53.200        10
53.220        30
53.240        30
53.260        10
53.280        13
53.300        20
53.320        10
53.340        10
53.360        20
53.380        10
53.400        17
53.420        17
53.440        23
53.460        27
53.480        33
53.500        30
53.520        20
53.540        23
53.560        13
53.580        27
53.600        20
53.620        20
53.640        27
53.660        20
53.680        23
53.700        23
53.720        17
53.740         7
53.760        27
53.780        20
53.800        17
53.820        23
53.840        10
53.860        10
53.880        17
53.900        27
53.920        23
53.940        17
53.960        20
53.980         7
54.000        33
54.020        40
54.040        30
54.060        47
54.080        20
54.100        17
54.120        23
54.140        20
54.160        13
54.180        27
54.200        30
54.220         3
54.240        13
54.260        40
54.280        20
54.300        17
54.320        10
54.340        33
54.360        47
54.380        50
54.400        50
54.420        57
54.440        43
54.460        50
54.480        67
54.500        60
54.520        80
54.540        70
54.560        87
54.580        70
54.600        87
54.620        80
54.640        50
54.660        67
54.680        60
54.700        63
54.720        63
54.740        43
54.760        23
54.780        47
54.800        67
54.820        47
54.840        40
54.860        30
54.880        17
54.900        10
54.920        40
54.940        23
54.960        20
54.980        20
55.000        33
55.020        33
55.040        27
55.060        10
55.080        30
55.100        20
55.120        40
55.140        17
55.160        23
55.180        20
55.200        17
55.220        27
55.240        20
55.260        13
55.280        37
55.300        20
55.320        17
55.340        13
55.360        10
55.380        23
55.400        17
55.420        20
55.440        23
55.460        13
55.480        13
55.500        47
55.520        13
55.540        17
55.560        30
55.580        13
55.600        17
55.620        10
55.640        13
55.660        17
55.680        30
55.700        23
55.720        17
55.740        17
55.760        20
55.780        17
55.800        13
55.820        13
55.840         7
55.860        13
55.880        13
55.900        20
55.920        23
55.940        13
55.960        17
55.980        10
56.000         3
56.020        10
56.040        10
56.060        13
56.080        27
56.100        13
56.120        20
56.140        10
56.160        17
56.180        20
56.200        23
56.220        13
56.240        23
56.260        23
56.280        13
56.300        23
56.320        27
56.340         3
56.360        20
56.380        13
56.400         7
56.420        23
56.440        17
56.460        17
56.480        23
56.500        17
56.520        33
56.540        13
56.560        17
56.580        10
56.600        17
56.620         0
56.640        10
56.660        13
56.680        10
56.700        23
56.720        20
56.740         7
56.760        40
56.780        20
56.800        20
56.820        13
56.840        13
56.860        20
56.880        27
56.900        17
56.920        10
56.940        27
56.960        23
56.980        13
57.000        33
57.020        23
57.040        17
57.060        17
57.080        10
57.100        23
57.120        10
57.140        10
57.160        10
57.180        10
57.200        30
57.220        20
57.240        23
57.260        47
57.280        20
57.300        27
57.320        23
57.340        23
57.360        30
57.380        40
57.400        33
57.420        13
57.440        37
57.460        63
57.480        83
57.500       117
57.520       133
57.540       190
57.560       157
57.580       147
57.600       117
57.620        80
57.640       103
57.660        67
57.680       100
57.700        87
57.720        70
57.740        67
57.760        63
57.780        30
57.800        17
57.820        23
57.840        20
57.860        30
57.880         3
57.900        17
57.920        20
57.940        10
57.960        17
57.980         7
58.000        37
58.020         3
58.040        10
58.060        23
58.080        13
58.100        23
58.120        20
58.140        17
58.160        17
58.180        30
58.200        17
58.220        17
58.240        17
58.260        10
58.280        13
58.300         7
58.320        20
58.340        20
58.360        13
58.380        20
58.400        20
58.420        10
58.440        17
58.460        27
58.480        10
58.500        20
58.520        13
58.540         7
58.560        13
58.580        33
58.600        23
58.620        20
58.640        30
58.660         7
58.680        10
58.700        13
58.720         7
58.740        10
58.760        13
58.780        17
58.800         3
58.820        10
58.840        17
58.860        10
58.880        10
58.900         7
58.920        13
58.940        17
58.960        17
58.980        13
59.000        10
59.020        13
59.040         7
59.060        10
59.080        13
59.100        17
59.120        23
59.140        13
59.160        13
59.180        10
59.200        10
59.220        10
59.240         7
59.260         3
59.280        10
59.300        10
59.320        10
59.340        30
59.360        13
59.380         7
59.400        17
59.420        10
59.440        13
59.460        17
59.480        20
59.500        13
59.520         7
59.540        23
59.560        23
59.580         7
59.600        30
59.620         0
59.640        27
59.660         3
59.680         7
59.700        10
59.720        27
59.740        23
59.760        10
59.780        10
59.800        10
59.820        17
59.840        13
59.860        13
59.880        13
59.900        23
59.920        20
59.940        17
59.960        20
59.980        17
60.000        13
