20.000        73
20.020        50
20.040        53
20.060        30
20.080        47
20.100        30
20.120        70
20.140        30
20.160        70
20.180        50
20.200        27
20.220        43
20.240        43
20.260        27
20.280        40
20.300        83
20.320        43
20.340        53
20.360        77
20.380        37
20.400        43
20.420        50
20.440        37
20.460        57
20.480        47
20.500        37
20.520        47
20.540        67
20.560        60
20.580        40
20.600        33
20.620        23
20.640        57
20.660        60
20.680        47
20.700        60
20.720        57
20.740        43
20.760        47
20.780        47
20.800        47
20.820        30
20.840        40
20.860        43
20.880        50
20.900        40
20.920        37
20.940        67
20.960        20
20.980        37
21.000        57
21.020        37
21.040        47
21.060        40
21.080        37
21.100        53
21.120        50
21.140        53
21.160        50
21.180        33
21.200        43
21.220        30
21.240        37
21.260        37
21.280        57
21.300        23
21.320        13
21.340        67
21.360        30
21.380        30
21.400        53
21.420        47
21.440        43
21.460        40
21.480        57
21.500        27
21.520        30
21.540        47
21.560        30
21.580        40
21.600        37
21.620        37
21.640        60
21.660        37
21.680        50
21.700        47
21.720        57
21.740        40
21.760        73
21.780        30
21.800        40
21.820        37
21.840        67
21.860        47
21.880        20
21.900        27
21.920        37
21.940        23
21.960        27
21.980        47
22.000        37
22.020        20
22.040        40
22.060        63
22.080        60
22.100        37
22.120        63
22.140        40
22.160        40
22.180        40
22.200        37
22.220        23
22.240        20
22.260        37
22.280        40
22.300        40
22.320        43
22.340        50
22.360        40
22.380        30
22.400        40
22.420        23
22.440        40
22.460        23
22.480        27
22.500        27
22.520        67
22.540        47
22.560        40
22.580        27
22.600        23
22.620        23
22.640        47
22.660        47
22.680        60
22.700        33
22.720        23
22.740        27
22.760        23
22.780        23
22.800        47
22.820        23
22.840        30
22.860        40
22.880        60
22.900        27
22.920        50
22.940        27
22.960        23
22.980        30
23.000        37
23.020        27
23.040        47
23.060        50
23.080        33
23.100        43
23.120        47
23.140        50
23.160        40
23.180        37
23.200        30
23.220        40
23.240        43
23.260        63
23.280        43
23.300        30
23.320        27
23.340        37
23.360        37
23.380        33
23.400        17
23.420        23
23.440        30
23.460        47
23.480        43
23.500        70
23.520        47
23.540        37
23.560        33
23.580        30
23.600        30
23.620        47
23.640        47
23.660        47
23.680        43
23.700        53
23.720        53
23.740        47
23.760        40
23.780        40
23.800        43
23.820        23
23.840        30
23.860        17
23.880        37
23.900        37
23.920        20
23.940        43
23.960        23
23.980        30
24.000        43
24.020        40
24.040        20
24.060        30
24.080        33
24.100        40
24.120        40
24.140        33
24.160        37
24.180        37
24.200        33
24.220        27
24.240        47
24.260        43
24.280        33
24.300        33
24.320        37
24.340        67
24.360        37
24.380        33
24.400        37
24.420        40
24.440        43
24.460        33
24.480        27
24.500        53
24.520        20
24.540        40
24.560        30
24.580        33
24.600        37
24.620        37
24.640        47
24.660        27
24.680        20
24.700        30
24.720        33
24.740        43
24.760        20
24.780        27
24.800        47
24.820        67
24.840        37
24.860        37
24.880        43
24.900        63
24.920        37
24.940        33
24.960        37
24.980        30
25.000        43
25.020        47
25.040        27
25.060        27
25.080        37
25.100        53
25.120        50
25.140        37
25.160        30
25.180        30
25.200        20
25.220        43
25.240        33
25.260        27
25.280        37
25.300        30
25.320        47
25.340        30
25.360        53
25.380        47
25.400        60
25.420        70
25.440        37
25.460        57
25.480        40
25.500        63
25.520        73
25.540        83
25.560       137
25.580       137
25.600       157
25.620        87
25.640        77
25.660        77
25.680        70
25.700        67
25.720        27
25.740        47
25.760        60
25.780        50
25.800        40
25.820        23
25.840        27
25.860        67
25.880        40
25.900        40
25.920        33
25.940        20
25.960        37
25.980        20
26.000        37
26.020        17
26.040        40
26.060        33
26.080        30
26.100        37
26.120        40
26.140        40
26.160        30
26.180        33
26.200        20
26.220        30
26.240        13
26.260        43
26.280        23
26.300        53
26.320        40
26.340        27
26.360        30
26.380        37
26.400        67
26.420        30
26.440        23
26.460        53
26.480        37
26.500        40
26.520        47
26.540        37
26.560        37
26.580        40
26.600        27
26.620        23
26.640        30
26.660        37
26.680        27
26.700        23
26.720        23
26.740        33
26.760        20
26.780        53
26.800        40
26.820        40
26.840        33
26.860        40
26.880        17
26.900        60
26.920        27
26.940        40
26.960        37
26.980        30
27.000        23
27.020        30
27.040        30
27.060        17
27.080        43
27.100        23
27.120        17
27.140        40
27.160        43
27.180        57
27.200        40
27.220        30
27.240        30
27.260        30
27.280        20
27.300        50
27.320        47
27.340        43
27.360        27
27.380        43
27.400        33
27.420        30
27.440        33
27.460        27
27.480        30
27.500        43
27.520        43
27.540        40
27.560        30
27.580        27
27.600        43
27.620        23
27.640        33
27.660        27
27.680        37
27.700        30
27.720        23
27.740        30
27.760        23
27.780        37
27.800        17
27.820        23
27.840        40
27.860        47
27.880        17
27.900        37
27.920        40
27.940        63
27.960        43
27.980        30
28.000        33
28.020        33
28.040        57
28.060        40
28.080        37
28.100        43
28.120        27
28.140        17
28.160        43
28.180        73
28.200        27
28.220        43
28.240        50
28.260        57
28.280        30
28.300        43
28.320        47
28.340        50
28.360        33
28.380        20
28.400        40
28.420        40
28.440        30
28.460        23
28.480        40
28.500        37
28.520        67
28.540        47
28.560        20
28.580        23
28.600        50
28.620        33
28.640        50
28.660        33
28.680        50
28.700        23
28.720        37
28.740        40
28.760        33
28.780        37
28.800        63
28.820        37
28.840        30
28.860        47
28.880        43
28.900        50
28.920        47
28.940        50
28.960        30
28.980        43
29.000        63
29.020        63
29.040        27
29.060        50
29.080        63
29.100        37
29.120        40
29.140        50
29.160        47
29.180        60
29.200        30
29.220        33
29.240        77
29.260        40
29.280        30
29.300        37
29.320        40
29.340        40
29.360        60
29.380        27
29.400        67
29.420        47
29.440        57
29.460        57
29.480        53
29.500        43
29.520        47
29.540        73
29.560        43
29.580        53
29.600        53
29.620        57
29.640        53
29.660        53
29.680        70
29.700        70
29.720        80
29.740        67
29.760        43
29.780        53
29.800        77
29.820        43
29.840        67
29.860        73
29.880        87
29.900        63
29.920        43
29.940        50
29.960        53
29.980        50
30.000        43
30.020        73
30.040        63
30.060        53
30.080        57
30.100        67
30.120        30
30.140        73
30.160        43
30.180        40
30.200        57
30.220        67
30.240        87
30.260        80
30.280        53
30.300        37
30.320        47
30.340        53
30.360        23
30.380        50
30.400        43
30.420        63
30.440        43
30.460        43
30.480        40
30.500        53
30.520        50
30.540        37
30.560        50
30.580        53
30.600        73
30.620        60
30.640        87
30.660        40
30.680        43
30.700        30
30.720        30
30.740        53
30.760        43
30.780        43
30.800        43
30.820        33
30.840        37
30.860        43
30.880        53
30.900        30
30.920        67
30.940        37
30.960        23
30.980        23
31.000        43
31.020        37
31.040        30
31.060        40
31.080        30
31.100        53
31.120        37
31.140        43
31.160        43
31.180        37
31.200        37
31.220        53
31.240        47
31.260        30
31.280        37
31.300        27
31.320        33
31.340        20
31.360        40
31.380        40
31.400        30
31.420        30
31.440        37
31.460        33
31.480        30
31.500        43
31.520        40
31.540        37
31.560        40
31.580        30
31.600        23
31.620        27
31.640        43
31.660        33
31.680        27
31.700        13
31.720        27
31.740        20
31.760        37
31.780        37
31.800        40
31.820        23
31.840        10
31.860        37
31.880        27
31.900        20
31.920        30
31.940        33
31.960        40
31.980        33
32.000        27
32.020        17
32.040        37
32.060        20
32.080        10
32.100        30
32.120        27
32.140        27
32.160        57
32.180        23
32.200        33
32.220        33
32.240        33
32.260         3
32.280        27
32.300        23
32.320        33
32.340        13
32.360        17
32.380        17
32.400        43
32.420        40
32.440        33
32.460        27
32.480        53
32.500        27
32.520        47
32.540        40
32.560        47
32.580        20
32.600        20
32.620         7
32.640        30
32.660        47
32.680        13
32.700        27
32.720        23
32.740        40
32.760        33
32.780        17
32.800        33
32.820        23
32.840        17
32.860        33
32.880        20
32.900        30
32.920        37
32.940        17
32.960        37
32.980        43
33.000        23
33.020        17
33.040        40
33.060        20
33.080        23
33.100        23
33.120        37
33.140        40
33.160        27
33.180        47
33.200        30
33.220        37
33.240        27
33.260        47
33.280        40
33.300        30
33.320        50
33.340        33
33.360        20
33.380        23
33.400        23
33.420        27
33.440        33
33.460        27
33.480        23
33.500        40
33.520        37
33.540        40
33.560        30
33.580        43
33.600        17
33.620        27
33.640        30
33.660        40
33.680        27
33.700        53
33.720        40
33.740        13
33.760        27
33.780        37
33.800        13
33.820        27
33.840        40
33.860        30
33.880        17
33.900        43
33.920        30
33.940        17
33.960        33
33.980        37
34.000        20
34.020        30
34.040        20
34.060        37
34.080        23
34.100        27
34.120        53
34.140        33
34.160        27
34.180        40
34.200        37
34.220        30
34.240        30
34.260        37
34.280        17
34.300        40
34.320        23
34.340        20
34.360        37
34.380         7
34.400        33
34.420        37
34.440        37
34.460        30
34.480        43
34.500        23
34.520        30
34.540        30
34.560        50
34.580        23
34.600        27
34.620        17
34.640        13
34.660        17
34.680        40
34.700        20
34.720        30
34.740        30
34.760        50
34.780        20
34.800        43
34.820        27
34.840        30
34.860        30
34.880        57
34.900       123
34.920       123
34.940       150
34.960       110
34.980       113
35.000       153
35.020       163
35.040       170
35.060       150
35.080       173
35.100       270
35.120       400
35.140       513
35.160       586
35.180       496
35.200       327
35.220       310
35.240       287
35.260       273
35.280       177
35.300       153
35.320        73
35.340        43
35.360        23
35.380        50
35.400        47
35.420        37
35.440        23
35.460        67
35.480        33
35.500        47
35.520        73
35.540        37
35.560        50
35.580        43
35.600        53
35.620        40
35.640        37
35.660        30
35.680        47
35.700        60
35.720        30
35.740        33
35.760        53
35.780        40
35.800        40
35.820        47
35.840        67
35.860        70
35.880        50
35.900        50
35.920        57
35.940        53
35.960        53
35.980        43
36.000        53
36.020       100
36.040        77
36.060        80
36.080        77
36.100        83
36.120        67
36.140       113
36.160       107
36.180       113
36.200       113
36.220       103
36.240       137
36.260        87
36.280       123
36.300        97
36.320       113
36.340       140
36.360       153
36.380       167
36.400       203
36.420       160
36.440       170
36.460       200
36.480       183
36.500       223
36.520       253
36.540       253
36.560       280
36.580       337
36.600       383
36.620       287
36.640       343
36.660       377
36.680       383
36.700       417
36.720       426
36.740       417
36.760       536
36.780       436
36.800       503
36.820       506
36.840       500
36.860       483
36.880       480
36.900       606
36.920       643
36.940       596
36.960       616
36.980       446
37.000       530
37.020       513
37.040       526
37.060       606
37.080       520
37.100       463
37.120       510
37.140       516
37.160       496
37.180       463
37.200       423
37.220       466
37.240       453
37.260       466
37.280       363
37.300       387
37.320       357
37.340       330
37.360       323
37.380       287
37.400       303
37.420       277
37.440       280
37.460       243
37.480       300
37.500       273
37.520       223
37.540       287
37.560       207
37.580       257
37.600       227
37.620       227
37.640       187
37.660       243
37.680       173
37.700       193
37.720       187
37.740       177
37.760       193
37.780       190
37.800       190
37.820       193
37.840       173
37.860       127
37.880       153
37.900       103
37.920       140
37.940       107
37.960       120
37.980        93
38.000        97
38.020        87
38.040       110
38.060       117
38.080        93
38.100        77
38.120        77
38.140       107
38.160       123
38.180        77
38.200        87
38.220        70
38.240        90
38.260        53
38.280        77
38.300        97
38.320        57
38.340        87
38.360        70
38.380        80
38.400        50
38.420        83
38.440        50
38.460        30
38.480        73
38.500        67
38.520        73
38.540        47
38.560        37
38.580        80
38.600        50
38.620        57
38.640        80
38.660        53
38.680        63
38.700        60
38.720        60
38.740        47
38.760        67
38.780        43
38.800        57
38.820        47
38.840        47
38.860        60
38.880        53
38.900        50
38.920        60
38.940        47
38.960        47
38.980        50
39.000        27
39.020        77
39.040        17
39.060        40
39.080        43
39.100        20
39.120        47
39.140        33
39.160        27
39.180        40
39.200        47
39.220        40
39.240        50
39.260        40
39.280        47
39.300        50
39.320        50
39.340        43
39.360        60
39.380        33
39.400        30
39.420        37
39.440        40
39.460        40
39.480        37
39.500        37
39.520        33
39.540        37
39.560        47
39.580        30
39.600        23
39.620        33
39.640        37
39.660        37
39.680        50
39.700        17
39.720        43
39.740        27
39.760        23
39.780        43
39.800        33
39.820        20
39.840        27
39.860        33
39.880        37
39.900        27
39.920        27
39.940        30
39.960        40
39.980        27
40.000        47
40.020        43
40.040        33
40.060        30
40.080        37
40.100        30
40.120        30
40.140        27
40.160        40
40.180        47
40.200        30
40.220        33
40.240        30
40.260        37
40.280        30
40.300        40
40.320        10
40.340        50
40.360        33
40.380        30
40.400        33
40.420        23
40.440        37
40.460        23
40.480        33
40.500        47
40.520        30
40.540        30
40.560        20
40.580        17
40.600        37
40.620        30
40.640        17
40.660        40
40.680        17
40.700        27
40.720        30
40.740        23
40.760        40
40.780        27
40.800        43
40.820        17
40.840        20
40.860        40
40.880        50
40.900        27
40.920        40
40.940        27
40.960        17
40.980        43
41.000        20
41.020        27
41.040        33
41.060        33
41.080        10
41.100        23
41.120        47
41.140        13
41.160        30
41.180        20
41.200        30
41.220        27
41.240        23
41.260        37
41.280        23
41.300        17
41.320        53
41.340        40
41.360        30
41.380        20
41.400        20
41.420        27
41.440        20
41.460        27
41.480        20
41.500        40
41.520        30
41.540        47
41.560        67
41.580        50
41.600        37
41.620        40
41.640        37
41.660        80
41.680       103
41.700        93
41.720        70
41.740        50
41.760        53
41.780        53
41.800        50
41.820        70
41.840        57
41.860        33
41.880        27
41.900        17
41.920        37
41.940        27
41.960        47
41.980        13
42.000        23
42.020        20
42.040        43
42.060        30
42.080         3
42.100        37
42.120        27
42.140        17
42.160        17
42.180        27
42.200        30
42.220        40
42.240        37
42.260        33
42.280        20
42.300        40
42.320        20
42.340        50
42.360        17
42.380        33
42.400        30
42.420        13
42.440        30
42.460        27
42.480        43
42.500        30
42.520        27
42.540        30
42.560        43
42.580        17
42.600        30
42.620        33
42.640        20
42.660        30
42.680        37
42.700        30
42.720        33
42.740        40
42.760        20
42.780        20
42.800        23
42.820        40
42.840        27
42.860        33
42.880        27
42.900        50
42.920        37
42.940        40
42.960        17
42.980        23
43.000        17
43.020        30
43.040        30
43.060        53
43.080        37
43.100        30
43.120        33
43.140        23
43.160        33
43.180        33
43.200        47
43.220        70
43.240        37
43.260        50
43.280       137
43.300       103
43.320       167
43.340       197
43.360       180
43.380       173
43.400       113
43.420       153
43.440        73
43.460       117
43.480        77
43.500        67
43.520        70
43.540        50
43.560        20
43.580        33
43.600        30
43.620        23
43.640        43
43.660        27
43.680        13
43.700        20
43.720        17
43.740        20
43.760         7
43.780        33
43.800        27
43.820        30
43.840        30
43.860        20
43.880        33
43.900        17
43.920        33
43.940        13
43.960        43
43.980        33
44.000        30
44.020        27
44.040        30
44.060        20
44.080        30
44.100        17
44.120        47
44.140        17
44.160        17
44.180        30
44.200        33
44.220        27
44.240        13
44.260        17
44.280        10
44.300        27
44.320        33
44.340        27
44.360        30
44.380        33
44.400        27
44.420        23
44.440        23
44.460        27
44.480        13
44.500        23
44.520        20
44.540        23
44.560        17
44.580        23
44.600        17
44.620        10
44.640        10
44.660        13
44.680        20
44.700        17
44.720        23
44.740        27
44.760        30
44.780        13
44.800        33
44.820        30
44.840        17
44.860        33
44.880         7
44.900        20
44.920        30
44.940        20
44.960        27
44.980        17
45.000        13
45.020        27
45.040        13
45.060        17
45.080        33
45.100        17
45.120        23
45.140        23
45.160        30
45.180        17
45.200        50
45.220        27
45.240        27
45.260        33
45.280        37
45.300        20
45.320        23
45.340        17
45.360        20
45.380        10
45.400        30
45.420        10
45.440        17
45.460        27
45.480        13
45.500        27
45.520        37
45.540        37
45.560        13
45.580        27
45.600        27
45.620        20
45.640        17
45.660        13
45.680        10
45.700        13
45.720        30
45.740        27
45.760        30
45.780        27
45.800        47
45.820        37
45.840        30
45.860        23
45.880        40
45.900        20
45.920        10
45.940        13
45.960        23
45.980        20
46.000        13
46.020        30
46.040        23
46.060        23
46.080        17
46.100        17
46.120        13
46.140        20
46.160        23
46.180        30
46.200        37
46.220        10
46.240         7
46.260        33
46.280        20
46.300        20
46.320        17
46.340        33
46.360        10
46.380         7
46.400        13
46.420         0
46.440        13
46.460        27
46.480        23
46.500        23
46.520        10
46.540        23
46.560         3
46.580        17
46.600        27
46.620        20
46.640         7
46.660        10
46.680        33
46.700         3
46.720         3
46.740        27
46.760         7
46.780        20
46.800        13
46.820        20
46.840        20
46.860        13
46.880        20
46.900        13
46.920        27
46.940        30
46.960        17
46.980        23
47.000        20
47.020        20
47.040        13
47.060        20
47.080         7
47.100        17
47.120        23
47.140        17
47.160        20
47.180        10
47.200         7
47.220         7
47.240        20
47.260        17
47.280        17
47.300        13
47.320        10
47.340        20
47.360        10
47.380        33
47.400        23
47.420        10
47.440        23
47.460        10
47.480        20
47.500        10
47.520        17
47.540        13
47.560        10
47.580        20
47.600        27
47.620        20
47.640        20
47.660        23
47.680        23
47.700        23
47.720        17
47.740         7
47.760        27
47.780        20
47.800        30
47.820        27
47.840        17
47.860        27
47.880        30
47.900        30
47.920        23
47.940        10
47.960        13
47.980        30
48.000        20
48.020        27
48.040        17
48.060        13
48.080        33
48.100        17
48.120         7
48.140        27
48.160        27
48.180        13
48.200        20
48.220        13
48.240        23
48.260        17
48.280        23
48.300         7
48.320        10
48.340        13
48.360        10
48.380        43
48.400        23
48.420         3
48.440        17
48.460        23
48.480        27
48.500        27
48.520        13
48.540        17
48.560        23
48.580        27
48.600        27
48.620        30
48.640        10
48.660        10
48.680        17
48.700        17
48.720        10
48.740        17
48.760        23
48.780        10
48.800        10
48.820        10
48.840        20
48.860        10
48.880        43
48.900        23
48.920        10
48.940        20
48.960        20
48.980        23
49.000        27
49.020        17
49.040        13
49.060        17
49.080        20
49.100        27
49.120        13
49.140        13
49.160        27
49.180        13
49.200        13
49.220        17
49.240        23
49.260        43
49.280        40
49.300        23
49.320        10
49.340        17
49.360         3
49.380        23
49.400         3
49.420        17
49.440        13
49.460        27
49.480        17
49.500        17
49.520        10
49.540         7
49.560        17
49.580        23
49.600        23
49.620        37
49.640        13
49.660        10
49.680        33
49.700        13
49.720        10
49.740        17
49.760         7
49.780        17
49.800        13
49.820        17
49.840         3
49.860        13
49.880        10
49.900        17
49.920         7
49.940         7
49.960        13
49.980        27
50.000        20
50.020        10
50.040        17
50.060        20
50.080        37
50.100        13
50.120        13
50.140        27
50.160        33
50.180        10
50.200        20
50.220        30
50.240        23
50.260        13
50.280        13
50.300        23
50.320        23
50.340        20
50.360        13
50.380        23
50.400        13
50.420        10
50.440        20
50.460        10
50.480        13
50.500        13
50.520        17
50.540        17
50.560        27
50.580        10
50.600        10
50.620        17
50.640         7
50.660        10
50.680        17
50.700        40
50.720        17
50.740        30
50.760         7
50.780        20
50.800        10
50.820        17
50.840        17
50.860        23
50.880        27
50.900        20
50.920        13
50.940        33
50.960        17
50.980        33
51.000        13
51.020        27
51.040        10
51.060        27
51.080        37
51.100        23
51.120        17
51.140         7
51.160        13
51.180        17
51.200        17
51.220        23
51.240        33
51.260        23
51.280        23
51.300        10
51.320        27
51.340        13
51.360         7
51.380         7
51.400        23
51.420        13
51.440        30
51.460         7
51.480        20
51.500         3
51.520        20
51.540        13
51.560        10
51.580        27
51.600        10
51.620        13
51.640        17
51.660        17
51.680        20
51.700        10
51.720        13
51.740        17
51.760        20
51.780        13
51.800        10
51.820         7
51.840        17
51.860        30
51.880        23
51.900        13
51.920        23
51.940        13
51.960        13
51.980        17
52.000        13
52.020        20
52.040        27
52.060        17
52.080        27
52.100        17
52.120        17
52.140        10
52.160         7
52.180        20
52.200        23
52.220        37
52.240        10
52.260        13
52.280        17
52.300        23
52.320        37
52.340        27
52.360        20
52.380        20
52.400        17
52.420        13
52.440        40
52.460        40
52.480        23
52.500        30
52.520        80
52.540       123
52.560       170
52.580       130
52.600       130
52.620        70
52.640        70
52.660        77
52.680        63
52.700       100
52.720       117
52.740        93
52.760        50
52.780        53
52.800        40
52.820        37
52.840        20
52.860        27
52.880        27
52.900        20
52.920        20
52.940        40
52.960        20
52.980        10
53.000        23
53.020        47
53.040        23
53.060        30
53.080        27
53.100        27
53.120        20
53.140        10
53.160        27
53.180        27
53.200        27
53.220        30
53.240        20
53.260        30
53.280        13
53.300        27
53.320        10
53.340        17
53.360        17
53.380        20
53.400        20
53.420        17
53.440        23
53.460        20
53.480        27
53.500        23
53.520        27
53.540        30
53.560        20
53.580        47
53.600        37
53.620        17
53.640        40
53.660        17
53.680        20
53.700        20
53.720        37
53.740        30
53.760        37
53.780        43
53.800        17
53.820        33
53.840        23
53.860        20
53.880        30
53.900        43
53.920        20
53.940        20
53.960        17
53.980        27
54.000        17
54.020        17
54.040        13
54.060        23
54.080        13
54.100        13
54.120        13
54.140        27
54.160        17
54.180        17
54.200        10
54.220        17
54.240        10
54.260        30
54.280        10
54.300        23
54.320        20
54.340        17
54.360        13
54.380        20
54.400        17
54.420        13
54.440        13
54.460        13
54.480         7
54.500        10
54.520        17
54.540        20
54.560        17
54.580        23
54.600        23
54.620        13
54.640        20
54.660        17
54.680        23
54.700        23
54.720        23
54.740         3
54.760        23
54.780        27
54.800        20
54.820        13
54.840         3
54.860        10
54.880        20
54.900        13
54.920        13
54.940        17
54.960        27
54.980        23
55.000        17
55.020        17
55.040         3
55.060        17
55.080        13
55.100        13
55.120        13
55.140        23
55.160        17
55.180        17
55.200        17
55.220        10
55.240        17
55.260        37
55.280        10
55.300        23
55.320        30
55.340        30
55.360        13
55.380        23
55.400        30
55.420        20
55.440        13
55.460        13
55.480        13
55.500        17
55.520        10
55.540        27
55.560        23
55.580        13
55.600        23
55.620        30
55.640        10
55.660        13
55.680        13
55.700        17
55.720        10
55.740        27
55.760        17
55.780        17
55.800        27
55.820        17
55.840        13
55.860         7
55.880         3
55.900        10
55.920        33
55.940        10
55.960        10
55.980        23
56.000        10
56.020        13
56.040        20
56.060        20
56.080        17
56.100        23
56.120        27
56.140        23
56.160        17
56.180        37
56.200        30
56.220        13
56.240        10
56.260        10
56.280        27
56.300        30
56.320        17
56.340        13
56.360        17
56.380        13
56.400        27
56.420        17
56.440        13
56.460        27
56.480        10
56.500        17
56.520        27
56.540         7
56.560        10
56.580        13
56.600        13
56.620        10
56.640        13
56.660        13
56.680         7
56.700        13
56.720        10
56.740         7
56.760        17
56.780        27
56.800        20
56.820        27
56.840        20
56.860        17
56.880         7
56.900        20
56.920        13
56.940        23
56.960        20
56.980        30
57.000         3
57.020        27
57.040        13
57.060        10
57.080        10
57.100        17
57.120        23
57.140        10
57.160        10
57.180        30
57.200        30
57.220        23
57.240        17
57.260        23
57.280        43
57.300        47
57.320        23
57.340        37
57.360        53
57.380        50
57.400        77
57.420       113
57.440       167
57.460       287
57.480       403
57.500       443
57.520       470
57.540       446
57.560       337
57.580       153
57.600       153
57.620       160
57.640       183
57.660       207
57.680       247
57.700       213
57.720       130
57.740        80
57.760        77
57.780        13
57.800        23
57.820        53
57.840        27
57.860        17
57.880        33
57.900        23
57.920        17
57.940        23
57.960        10
57.980        10
58.000        17
58.020        20
58.040        17
58.060         7
58.080        13
58.100        13
58.120        13
58.140        10
58.160        13
58.180        20
58.200        10
58.220        23
58.240        23
58.260        17
58.280        23
58.300        23
58.320        23
58.340        13
58.360        17
58.380        17
58.400        17
58.420        10
58.440        20
58.460        10
58.480         7
58.500        23
58.520        13
58.540         3
58.560        13
58.580        13
58.600        10
58.620        10
58.640         3
58.660        27
58.680        23
58.700        20
58.720         7
58.740        30
58.760        10
58.780        13
58.800        17
58.820        10
58.840        10
58.860        10
58.880         7
58.900        30
58.920         3
58.940        17
58.960        13
58.980        10
59.000        27
59.020         3
59.040        20
59.060        20
59.080        23
59.100        10
59.120        10
59.140        20
59.160        13
59.180        20
59.200        23
59.220        17
59.240        13
59.260        13
59.280        17
59.300         7
59.320        10
59.340        27
59.360        13
59.380        10
59.400        13
59.420        10
59.440        10
59.460        17
59.480        13
59.500        17
59.520        20
59.540         7
59.560        13
59.580        20
59.600         7
59.620        10
59.640        23
59.660         3
59.680        10
59.700        17
59.720        23
59.740         7
59.760         3
59.780         0
59.800         0
59.820         0
59.840         0
59.860         0
59.880         0
59.900         0
59.920         0
59.940         0
59.960         0
59.980         0
60.000         0
