20.000         0
20.020         0
20.040         0
20.060         0
20.080         0
20.100         0
20.120         0
20.140         0
20.160         0
20.180         0
20.200         0
20.220         0
20.240         0
20.260         0
20.280         0
20.300         7
20.320         0
20.340         0
20.360         0
20.380        47
20.400        67
20.420        73
20.440        40
20.460        40
20.480        40
20.500        53
20.520        53
20.540        40
20.560        47
20.580        87
20.600        27
20.620        87
20.640        53
20.660        60
20.680        27
20.700        40
20.720        40
20.740        73
20.760        33
20.780        67
20.800        60
20.820        67
20.840        33
20.860        33
20.880        53
20.900        27
20.920        53
20.940        53
20.960        33
20.980        73
21.000        67
21.020        67
21.040        67
21.060        73
21.080        20
21.100        67
21.120        13
21.140        60
21.160        67
21.180        67
21.200        27
21.220        73
21.240        47
21.260        47
21.280        47
21.300        80
21.320        60
21.340        40
21.360        60
21.380        40
21.400        27
21.420        33
21.440        20
21.460        47
21.480        47
21.500        33
21.520        47
21.540        53
21.560        60
21.580        27
21.600        13
21.620        40
21.640        47
21.660        20
21.680        40
21.700        20
21.720        47
21.740        27
21.760        60
21.780        67
21.800        47
21.820        20
21.840        80
21.860        40
21.880        40
21.900        40
21.920        13
21.940        67
21.960        60
21.980        67
22.000        13
22.020        47
22.040        47
22.060        40
22.080        27
22.100        67
22.120        80
22.140        73
22.160        73
22.180        27
22.200        33
22.220        53
22.240        87
22.260        53
22.280        60
22.300        73
22.320        73
22.340        73
22.360        33
22.380        33
22.400        80
22.420        47
22.440        87
22.460        53
22.480        53
22.500        60
22.520        40
22.540        40
22.560        40
22.580        60
22.600        27
22.620        40
22.640        67
22.660        47
22.680        67
22.700        67
22.720        60
22.740        40
22.760        20
22.780        80
22.800        47
22.820        53
22.840        73
22.860        93
22.880        67
22.900        47
22.920        33
22.940        67
22.960        60
22.980        33
23.000        53
23.020        33
23.040        33
23.060        20
23.080        47
23.100        73
23.120        40
23.140        73
23.160        47
23.180        53
23.200        33
23.220        40
23.240        47
23.260        20
23.280        40
23.300        33
23.320        47
23.340        80
23.360        40
23.380        53
23.400        20
23.420        47
23.440        93
23.460        53
23.480        73
23.500        40
23.520        13
23.540        73
23.560        33
23.580        20
23.600        40
23.620        47
23.640        27
23.660        60
23.680        40
23.700        33
23.720        73
23.740        33
23.760        73
23.780        33
23.800        27
23.820        33
23.840        47
23.860        20
23.880        27
23.900        40
23.920        47
23.940        33
23.960        40
23.980        40
24.000         7
24.020        60
24.040        47
24.060        33
24.080        53
24.100        40
24.120        53
24.140        20
24.160        40
24.180        60
24.200        60
24.220        60
24.240        40
24.260        47
24.280        47
24.300        47
24.320        27
24.340        60
24.360        47
24.380        40
24.400        13
24.420        20
24.440        27
24.460        67
24.480        40
24.500        67
24.520        73
24.540        20
24.560        13
24.580        47
24.600        40
24.620        40
24.640        60
24.660        27
24.680        60
24.700        40
24.720        40
24.740        40
24.760        40
24.780        33
24.800        53
24.820        73
24.840        53
24.860        60
24.880        60
24.900        60
24.920        47
24.940        47
24.960        33
24.980        60
25.000        27
25.020        47
25.040        47
25.060        27
25.080        47
25.100        27
25.120        87
25.140        13
25.160        40
25.180        53
25.200        80
25.220        33
25.240        33
25.260        60
25.280        33
25.300        53
25.320        27
25.340         0
25.360        60
25.380        73
25.400        73
25.420        47
25.440       100
25.460        60
25.480        73
25.500        47
25.520        53
25.540        60
25.560        53
25.580        60
25.600        73
25.620       133
25.640        87
25.660        73
25.680        47
25.700        67
25.720        73
25.740        33
25.760        33
25.780        67
25.800        60
25.820        47
25.840        27
25.860        27
25.880        47
25.900        33
25.920        27
25.940        73
25.960        67
25.980        53
26.000        27
26.020        67
26.040        53
26.060        47
26.080        47
26.100        47
26.120        53
26.140        33
26.160        47
26.180        33
26.200        60
26.220        40
26.240        67
26.260        67
26.280        60
26.300        53
26.320        47
26.340        80
26.360        40
26.380        53
26.400        40
26.420        67
26.440        40
26.460        87
26.480        47
26.500        40
26.520        33
26.540        13
26.560        60
26.580        87
26.600        40
26.620        27
26.640        47
26.660        60
26.680        67
26.700        60
26.720        53
26.740        60
26.760        47
26.780        47
26.800        47
26.820        40
26.840        60
26.860        13
26.880        33
26.900        67
26.920        53
26.940        27
26.960        27
26.980        40
27.000        47
27.020        47
27.040        47
27.060        40
27.080        33
27.100        47
27.120        27
27.140        27
27.160        47
27.180        53
27.200        60
27.220        40
27.240        60
27.260        80
27.280        20
27.300        47
27.320        33
27.340        47
27.360        53
27.380        13
27.400        27
27.420        73
27.440        73
27.460        33
27.480        47
27.500        33
27.520        27
27.540        67
27.560        53
27.580        67
27.600        80
27.620        60
27.640        60
27.660        27
27.680        47
27.700        20
27.720        40
27.740        33
27.760        33
27.780        27
27.800        40
27.820        40
27.840        60
27.860        27
27.880        47
27.900        27
27.920        33
27.940        13
27.960        53
27.980        13
28.000        60
28.020        27
28.040        33
28.060        27
28.080        27
28.100        40
28.120        20
28.140        13
28.160        40
28.180        60
28.200         7
28.220        27
28.240        47
28.260        53
28.280        53
28.300        20
28.320        60
28.340        40
28.360        47
28.380        33
28.400        60
28.420        40
28.440        47
28.460        67
28.480        27
28.500        40
28.520        60
28.540        53
28.560        33
28.580        60
28.600        53
28.620        53
28.640        33
28.660        13
28.680        20
28.700        27
28.720        40
28.740        20
28.760        53
28.780        33
28.800        40
28.820        53
28.840        60
28.860        27
28.880        80
28.900        60
28.920        27
28.940        20
28.960        33
28.980        60
29.000        67
29.020        33
29.040        60
29.060        20
29.080        27
29.100        40
29.120        27
29.140        27
29.160        20
29.180        40
29.200        60
29.220        53
29.240        33
29.260        27
29.280        47
29.300        47
29.320        80
29.340        60
29.360        73
29.380        40
29.400        80
29.420        67
29.440        47
29.460        60
29.480        40
29.500        40
29.520        53
29.540        53
29.560        20
29.580        73
29.600        60
29.620        33
29.640        53
29.660        67
29.680        47
29.700        33
29.720        53
29.740        13
29.760        60
29.780        53
29.800        40
29.820        40
29.840        60
29.860        53
29.880        20
29.900        20
29.920        47
29.940        53
29.960        13
29.980        60
30.000        53
30.020        80
30.040        60
30.060        67
30.080        40
30.100        27
30.120        60
30.140        40
30.160        13
30.180        53
30.200        67
30.220        53
30.240        47
30.260        73
30.280        27
30.300        47
30.320        67
30.340        40
30.360        60
30.380        40
30.400        80
30.420        53
30.440        60
30.460        53
30.480        80
30.500       113
30.520        73
30.540       100
30.560       147
30.580       120
30.600       180
30.620       147
30.640       227
30.660       233
30.680       193
30.700       233
30.720       260
30.740       253
30.760       213
30.780       260
30.800       260
30.820       113
30.840       200
30.860       140
30.880        80
30.900       113
30.920        73
30.940        87
30.960        80
30.980        53
31.000        67
31.020        47
31.040        53
31.060       100
31.080        73
31.100        67
31.120        60
31.140        40
31.160        87
31.180        27
31.200        53
31.220        40
31.240        47
31.260        60
31.280        33
31.300        67
31.320        53
31.340        40
31.360        40
31.380        40
31.400        47
31.420        60
31.440        93
31.460        47
31.480        47
31.500        20
31.520        27
31.540        53
31.560        47
31.580        33
31.600        33
31.620        53
31.640        40
31.660        47
31.680        47
31.700        67
31.720        33
31.740        33
31.760        80
31.780        47
31.800        67
31.820        47
31.840        53
31.860        47
31.880        33
31.900        27
31.920        33
31.940        20
31.960        67
31.980        67
32.000        40
32.020        27
32.040        33
32.060        40
32.080        53
32.100        33
32.120        40
32.140        27
32.160        33
32.180        40
32.200        33
32.220        27
32.240        67
32.260        60
32.280        33
32.300        33
32.320        60
32.340        40
32.360        47
32.380        27
32.400        47
32.420         0
32.440        40
32.460        13
32.480        27
32.500        40
32.520        20
32.540        40
32.560        40
32.580        20
32.600        40
32.620        27
32.640        27
32.660        47
32.680        60
32.700        40
32.720        47
32.740        33
32.760        27
32.780        33
32.800         7
32.820        27
32.840        60
32.860        60
32.880        73
32.900        60
32.920        20
32.940        20
32.960        27
32.980        53
33.000        20
33.020        47
33.040        20
33.060        47
33.080        13
33.100        27
33.120        13
33.140        13
33.160        40
33.180         7
33.200        27
33.220        53
33.240        27
33.260        47
33.280        20
33.300         7
33.320        27
33.340        27
33.360        33
33.380        40
33.400        53
33.420        47
33.440        33
33.460        27
33.480        47
33.500        20
33.520        13
33.540        13
33.560        27
33.580        40
33.600        13
33.620        33
33.640        33
33.660        27
33.680        27
33.700        33
33.720        47
33.740        13
33.760        53
33.780        27
33.800        47
33.820        27
33.840        13
33.860        47
33.880        20
33.900        33
33.920        33
33.940        47
33.960        67
33.980        27
34.000        13
34.020        20
34.040        47
34.060        47
34.080        47
34.100        20
34.120        40
34.140        53
34.160        13
34.180        47
34.200        13
34.220        80
34.240        13
34.260        33
34.280        40
34.300        47
34.320        87
34.340        27
34.360        67
34.380        20
34.400        47
34.420        27
34.440        47
34.460        47
34.480        27
34.500        13
34.520        20
34.540        27
34.560        33
34.580        33
34.600        20
34.620        27
34.640         0
34.660        20
34.680        33
34.700        40
34.720         7
34.740        40
34.760        40
34.780        33
34.800        33
34.820        47
34.840        13
34.860        33
34.880        47
34.900        20
34.920        47
34.940        40
34.960        33
34.980        20
35.000        40
35.020        67
35.040        60
35.060        60
35.080       193
35.100       227
35.120       187
35.140       360
35.160       473
35.180       440
35.200       260
35.220       273
35.240       240
35.260       167
35.280       200
35.300       120
35.320       107
35.340        40
35.360        40
35.380        47
35.400        20
35.420        20
35.440         7
35.460         7
35.480        27
35.500        33
35.520        27
35.540        40
35.560         7
35.580        33
35.600        47
35.620        40
35.640        33
35.660        13
35.680        27
35.700        13
35.720        40
35.740         7
35.760        40
35.780        40
35.800        13
35.820        20
35.840        40
35.860        33
35.880        40
35.900        20
35.920        27
35.940        33
35.960         7
35.980        13
36.000        33
36.020        40
36.040        33
36.060        20
36.080        27
36.100        20
36.120        20
36.140        40
36.160        47
36.180        20
36.200        47
36.220        20
36.240        27
36.260        33
36.280        20
36.300        13
36.320        40
36.340         7
36.360        13
36.380        47
36.400        47
36.420        13
36.440        13
36.460        27
36.480        13
36.500        47
36.520        33
36.540        27
36.560        27
36.580        27
36.600        13
36.620        13
36.640        40
36.660        40
36.680        47
36.700        33
36.720        27
36.740        40
36.760        47
36.780        13
36.800        33
36.820        53
36.840        67
36.860        13
36.880        27
36.900        20
36.920         7
36.940         7
36.960        40
36.980        27
37.000        47
37.020        27
37.040        20
37.060        33
37.080        67
37.100        47
37.120        40
37.140        33
37.160        33
37.180        27
37.200        47
37.220        40
37.240        33
37.260        33
37.280        20
37.300        67
37.320        47
37.340        27
37.360        40
37.380        73
37.400        67
37.420        13
37.440        53
37.460        53
37.480        27
37.500        47
37.520        67
37.540        87
37.560       100
37.580        73
37.600       127
37.620       107
37.640        87
37.660       107
37.680       147
37.700       213
37.720       267
37.740       347
37.760       280
37.780       367
37.800       553
37.820       526
37.840       600
37.860       713
37.880       606
37.900       653
37.920       526
37.940       526
37.960       540
37.980       440
38.000       380
38.020       307
38.040       280
38.060       227
38.080       167
38.100       153
38.120       107
38.140        80
38.160       140
38.180        87
38.200        80
38.220        73
38.240       153
38.260        33
38.280        67
38.300        60
38.320        47
38.340        73
38.360        27
38.380        47
38.400        73
38.420        20
38.440        73
38.460        33
38.480        40
38.500        60
38.520        73
38.540        60
38.560        33
38.580        33
38.600        33
38.620        53
38.640        67
38.660        60
38.680        40
38.700        73
38.720        27
38.740        27
38.760        13
38.780        40
38.800        40
38.820        53
38.840        47
38.860        33
38.880        20
38.900         7
38.920        20
38.940        67
38.960        40
38.980        73
39.000        53
39.020        27
39.040        20
39.060        20
39.080        33
39.100        47
39.120        53
39.140        53
39.160        20
39.180        33
39.200        33
39.220        33
39.240        33
39.260        13
39.280        33
39.300        20
39.320        33
39.340        73
39.360        20
39.380         7
39.400         7
39.420        47
39.440         7
39.460        20
39.480        40
39.500        27
39.520        60
39.540        40
39.560        20
39.580        40
39.600         0
39.620        27
39.640        67
39.660        13
39.680        47
39.700        33
39.720        33
39.740        27
39.760         7
39.780        33
39.800        47
39.820        33
39.840        27
39.860        13
39.880         0
39.900        33
39.920        33
39.940        27
39.960        20
39.980        27
40.000        40
40.020        27
40.040        53
40.060        20
40.080        13
40.100        13
40.120        13
40.140        27
40.160        13
40.180        53
40.200        33
40.220        33
40.240        20
40.260        33
40.280        33
40.300        20
40.320        20
40.340        40
40.360         7
40.380        40
40.400        20
40.420        33
40.440        27
40.460        27
40.480        20
40.500        53
40.520        27
40.540        20
40.560        20
40.580        47
40.600        40
40.620        40
40.640        27
40.660        20
40.680        40
40.700        13
40.720        20
40.740         7
40.760        20
40.780        47
40.800        27
40.820        47
40.840        20
40.860        20
40.880         7
40.900        13
40.920        13
40.940        20
40.960        33
40.980        27
41.000        20
41.020        27
41.040        33
41.060        13
41.080        53
41.100        47
41.120        13
41.140        27
41.160        20
41.180        27
41.200        20
41.220        33
41.240        47
41.260        40
41.280        60
41.300         7
41.320        27
41.340        47
41.360        40
41.380         7
41.400        20
41.420        47
41.440        20
41.460         0
41.480        53
41.500        13
41.520        27
41.540        33
41.560        33
41.580        27
41.600        47
41.620        33
41.640        40
41.660        53
41.680        47
41.700       113
41.720        80
41.740        67
41.760        40
41.780        33
41.800        47
41.820        40
41.840        47
41.860        27
41.880        27
41.900        20
41.920        33
41.940        33
41.960        13
41.980         7
42.000        47
42.020        20
42.040         7
42.060        40
42.080        47
42.100        27
42.120         0
42.140        33
42.160        13
42.180        20
42.200        40
42.220        40
42.240        60
42.260        27
42.280        20
42.300        33
42.320        27
42.340        20
42.360        40
42.380        13
42.400        33
42.420         7
42.440        13
42.460        27
42.480        20
42.500        53
42.520        33
42.540        27
42.560        33
42.580        27
42.600         7
42.620         0
42.640        27
42.660        27
42.680        27
42.700        47
42.720        20
42.740         7
42.760        13
42.780        40
42.800        27
42.820        27
42.840         0
42.860        20
42.880         7
42.900        20
42.920        27
42.940        33
42.960         7
42.980        53
43.000        13
43.020        27
43.040        40
43.060        40
43.080        40
43.100        73
43.120        20
43.140        27
43.160        13
43.180        40
43.200        20
43.220        27
43.240        20
43.260        73
43.280        80
43.300        67
43.320        73
43.340        73
43.360       113
43.380       120
43.400       127
43.420        47
43.440        60
43.460        80
43.480        73
43.500        73
43.520        93
43.540        47
43.560        27
43.580        27
43.600        40
43.620        13
43.640        33
43.660        20
43.680        27
43.700        27
43.720        27
43.740        20
43.760        27
43.780        60
43.800        27
43.820        27
43.840        67
43.860         0
43.880        33
43.900        27
43.920        27
43.940        47
43.960        27
43.980        20
44.000        27
44.020        20
44.040        33
44.060        40
44.080        27
44.100        67
44.120        27
44.140        27
44.160        33
44.180        47
44.200        33
44.220        47
44.240        13
44.260        40
44.280        27
44.300        20
44.320        13
44.340        33
44.360        33
44.380         7
44.400        33
44.420        40
44.440        40
44.460        13
44.480        27
44.500        20
44.520        13
44.540        13
44.560        40
44.580        13
44.600        27
44.620        47
44.640        40
44.660        40
44.680        20
44.700        20
44.720         7
44.740        27
44.760        27
44.780        20
44.800        33
44.820        27
44.840        27
44.860         7
44.880        33
44.900         0
44.920         7
44.940        27
44.960         0
44.980        20
45.000        13
45.020        40
45.040        47
45.060        33
45.080        20
45.100        40
45.120        27
45.140        27
45.160        27
45.180        13
45.200         0
45.220        13
45.240        20
45.260         7
45.280        13
45.300         7
45.320        13
45.340        27
45.360        13
45.380        40
45.400        27
45.420        20
45.440        20
45.460        20
45.480         7
45.500        20
45.520        13
45.540        13
45.560        20
45.580        13
45.600        13
45.620        20
45.640        13
45.660        27
45.680        33
45.700         7
45.720         7
45.740        13
45.760        27
45.780        13
45.800        33
45.820        27
45.840         7
45.860         0
45.880        27
45.900        20
45.920        27
45.940        47
45.960        33
45.980        33
46.000        33
46.020        27
46.040        33
46.060         7
46.080         0
46.100        33
46.120         7
46.140        40
46.160        13
46.180        47
46.200        27
46.220        20
46.240        40
46.260        13
46.280        20
46.300        33
46.320        27
46.340        33
46.360        40
46.380        20
46.400        13
46.420        27
46.440        40
46.460        73
46.480        33
46.500         0
46.520         0
46.540        27
46.560        47
46.580         7
46.600        27
46.620        40
46.640        20
46.660        27
46.680        20
46.700        33
46.720        40
46.740        13
46.760        33
46.780        27
46.800         0
46.820        13
46.840        20
46.860         7
46.880        47
46.900         7
46.920        20
46.940        20
46.960        13
46.980        33
47.000        20
47.020        13
47.040        20
47.060        13
47.080        20
47.100         7
47.120        20
47.140        27
47.160         7
47.180        27
47.200        20
47.220        33
47.240         7
47.260        13
47.280         7
47.300         0
47.320         7
47.340        13
47.360         7
47.380        13
47.400        33
47.420        20
47.440         7
47.460         0
47.480        20
47.500        40
47.520         7
47.540        13
47.560        13
47.580         7
47.600         0
47.620        27
47.640         7
47.660         7
47.680        40
47.700        40
47.720        27
47.740        33
47.760        13
47.780        13
47.800        27
47.820        13
47.840        33
47.860         7
47.880         7
47.900         0
47.920        40
47.940        20
47.960         0
47.980        27
48.000        13
48.020        40
48.040        20
48.060        13
48.080        20
48.100        20
48.120        20
48.140        13
48.160        40
48.180        13
48.200        13
48.220        40
48.240        20
48.260         7
48.280        13
48.300        33
48.320        20
48.340         0
48.360        13
48.380         7
48.400         7
48.420        13
48.440        27
48.460         0
48.480        13
48.500        27
48.520         7
48.540         7
48.560        27
48.580        13
48.600        27
48.620        13
48.640        13
48.660         0
48.680         0
48.700        13
48.720        13
48.740        13
48.760         7
48.780        27
48.800         0
48.820        60
48.840         7
48.860        33
48.880        13
48.900        33
48.920        13
48.940        20
48.960         7
48.980        33
49.000         7
49.020        33
49.040        40
49.060        20
49.080        27
49.100        40
49.120        13
49.140        13
49.160        20
49.180        27
49.200         7
49.220         7
49.240        27
49.260        27
49.280        20
49.300        20
49.320         7
49.340        27
49.360        13
49.380        20
49.400        13
49.420        33
49.440        13
49.460        33
49.480        20
49.500        33
49.520        33
49.540        20
49.560         0
49.580        13
49.600        13
49.620         7
49.640        40
49.660        13
49.680        13
49.700        20
49.720        13
49.740        20
49.760        27
49.780        13
49.800         0
49.820        20
49.840        20
49.860        40
49.880        40
49.900        33
49.920        13
49.940        33
49.960        33
49.980        47
50.000        20
50.020        27
50.040        33
50.060        13
50.080        13
50.100         7
50.120        20
50.140        27
50.160        27
50.180        13
50.200        27
50.220        20
50.240         7
50.260        13
50.280         7
50.300        40
50.320         7
50.340        20
50.360        27
50.380        20
50.400        13
50.420        27
50.440        40
50.460        13
50.480         0
50.500        20
50.520        13
50.540        20
50.560        33
50.580        13
50.600         7
50.620         7
50.640        47
50.660        20
50.680        13
50.700        20
50.720        20
50.740        20
50.760         0
50.780        20
50.800        33
50.820        27
50.840        33
50.860        13
50.880        20
50.900        27
50.920        27
50.940        20
50.960        27
50.980        20
51.000        13
51.020         7
51.040         7
51.060        27
51.080        13
51.100        13
51.120        33
51.140        20
51.160         7
51.180         7
51.200        33
51.220        13
51.240        20
51.260        27
51.280         7
51.300        33
51.320        27
51.340        27
51.360        20
51.380        40
51.400         0
51.420         7
51.440        27
51.460        33
51.480        20
51.500         7
51.520        27
51.540        20
51.560        20
51.580        13
51.600         7
51.620         7
51.640         7
51.660        27
51.680        20
51.700        40
51.720        40
51.740         7
51.760        33
51.780        20
51.800        20
51.820        20
51.840        13
51.860         7
51.880        27
51.900        40
51.920        27
51.940        27
51.960         7
51.980        33
52.000         7
52.020        33
52.040        33
52.060        27
52.080        20
52.100        20
52.120        33
52.140         7
52.160         7
52.180        40
52.200         7
52.220        13
52.240        33
52.260        20
52.280        20
52.300         7
52.320        13
52.340        27
52.360        20
52.380        13
52.400        20
52.420        27
52.440        27
52.460        20
52.480        20
52.500         7
52.520        20
52.540        47
52.560        47
52.580        33
52.600        67
52.620       107
52.640        60
52.660        47
52.680        27
52.700         7
52.720        47
52.740        33
52.760        40
52.780        47
52.800        80
52.820        20
52.840        40
52.860        20
52.880        27
52.900        27
52.920        20
52.940        20
52.960        13
52.980        33
53.000         7
53.020        27
53.040        20
53.060        13
53.080         7
53.100        27
53.120         0
53.140         7
53.160        20
53.180        20
53.200        27
53.220         0
53.240        27
53.260        13
53.280         0
53.300        20
53.320        20
53.340        20
53.360        27
53.380        13
53.400        33
53.420         0
53.440        20
53.460        33
53.480        33
53.500        27
53.520        13
53.540         0
53.560        20
53.580        13
53.600        20
53.620        20
53.640         0
53.660        13
53.680        47
53.700         7
53.720        27
53.740         7
53.760         0
53.780        27
53.800        13
53.820        27
53.840        20
53.860        13
53.880        13
53.900        20
53.920        13
53.940        33
53.960        13
53.980        33
54.000        20
54.020         0
54.040        27
54.060        13
54.080        27
54.100        13
54.120         7
54.140        20
54.160        13
54.180        33
54.200         7
54.220        33
54.240        13
54.260        47
54.280        40
54.300        53
54.320        40
54.340        33
54.360        60
54.380        53
54.400        40
54.420        33
54.440        60
54.460        87
54.480        67
54.500        93
54.520       107
54.540       200
54.560       107
54.580       160
54.600       133
54.620       127
54.640       173
54.660       133
54.680        87
54.700        87
54.720        87
54.740       193
54.760       147
54.780        87
54.800       100
54.820        47
54.840        87
54.860        73
54.880        47
54.900        67
54.920        53
54.940        53
54.960        40
54.980        40
55.000        67
55.020        60
55.040        33
55.060        27
55.080        13
55.100        33
55.120        27
55.140        47
55.160        20
55.180        13
55.200        40
55.220        40
55.240        13
55.260        47
55.280        20
55.300        40
55.320        20
55.340        27
55.360        20
55.380        13
55.400        13
55.420         0
55.440        20
55.460        40
55.480        27
55.500        20
55.520        33
55.540        27
55.560        13
55.580        27
55.600        20
55.620        47
55.640        47
55.660        13
55.680        13
55.700         7
55.720        27
55.740         7
55.760        20
55.780        33
55.800         7
55.820         0
55.840        33
55.860         0
55.880        40
55.900        13
55.920        20
55.940         7
55.960        20
55.980        47
56.000        13
56.020         0
56.040        27
56.060         7
56.080        13
56.100         7
56.120        20
56.140        13
56.160        27
56.180         7
56.200        13
56.220        13
56.240        40
56.260        27
56.280        40
56.300        20
56.320        20
56.340        13
56.360        33
56.380         0
56.400         7
56.420        13
56.440         0
56.460        13
56.480        13
56.500        20
56.520        13
56.540        20
56.560        20
56.580        33
56.600        13
56.620        13
56.640        20
56.660        40
56.680        27
56.700         7
56.720        20
56.740        13
56.760        20
56.780        33
56.800        27
56.820         0
56.840        47
56.860        27
56.880        13
56.900        13
56.920        20
56.940        20
56.960        13
56.980        13
57.000        40
57.020        13
57.040        20
57.060        47
57.080        20
57.100        20
57.120        20
57.140        27
57.160        27
57.180        53
57.200        20
57.220        27
57.240        13
57.260        20
57.280         0
57.300         7
57.320        27
57.340        27
57.360        20
57.380        40
57.400        40
57.420        40
57.440        47
57.460        53
57.480       127
57.500       167
57.520       293
57.540       280
57.560       247
57.580       147
57.600       140
57.620        73
57.640        80
57.660       133
57.680       127
57.700        87
57.720       180
57.740       120
57.760        53
57.780        27
57.800         7
57.820        33
57.840        20
57.860        13
57.880        27
57.900         7
57.920         7
57.940        33
57.960        13
57.980         7
58.000         7
58.020        13
58.040        13
58.060        20
58.080        20
58.100        33
58.120        20
58.140        13
58.160        13
58.180         7
58.200        20
58.220        20
58.240        13
58.260         0
58.280         7
58.300        20
58.320         7
58.340         0
58.360        20
58.380         7
58.400         7
58.420        27
58.440        13
58.460        20
58.480        27
58.500         7
58.520        27
58.540        13
58.560        20
58.580         7
58.600         0
58.620         7
58.640        13
58.660        13
58.680        27
58.700         7
58.720         0
58.740         0
58.760         0
58.780         7
58.800        13
58.820        13
58.840         7
58.860         7
58.880        13
58.900         7
58.920         7
58.940        20
58.960        13
58.980        13
59.000        20
59.020        20
59.040         0
59.060         7
59.080         0
59.100        40
59.120        20
59.140        27
59.160         7
59.180        27
59.200         7
59.220         0
59.240        20
59.260        13
59.280         7
59.300        20
59.320        27
59.340        20
59.360        13
59.380         7
59.400        20
59.420        27
59.440        40
59.460         7
59.480        27
59.500        20
59.520        27
59.540        40
59.560         7
59.580        13
59.600        13
59.620        13
59.640         0
59.660        13
59.680         0
59.700        13
59.720        20
59.740        13
59.760         7
59.780        27
59.800        20
59.820         0
59.840        20
59.860         7
59.880         7
59.900         7
59.920         7
59.940         7
59.960        13
59.980        13
60.000        13
