20.000        73
20.020        50
20.040        40
20.060        57
20.080        33
20.100        47
20.120        43
20.140        40
20.160        53
20.180        37
20.200        30
20.220        53
20.240        47
20.260        57
20.280        30
20.300        53
20.320        43
20.340        30
20.360        20
20.380        33
20.400        43
20.420        63
20.440        43
20.460        30
20.480        47
20.500        53
20.520        53
20.540        50
20.560        57
20.580        40
20.600        17
20.620        40
20.640        43
20.660        47
20.680        23
20.700        43
20.720        47
20.740        33
20.760        23
20.780        50
20.800        63
20.820        33
20.840        37
20.860        47
20.880        37
20.900        47
20.920        50
20.940        60
20.960        80
20.980        27
21.000        37
21.020        37
21.040        33
21.060        63
21.080        47
21.100        33
21.120        30
21.140        40
21.160        53
21.180        53
21.200        20
21.220        27
21.240        40
21.260        33
21.280        40
21.300        40
21.320        33
21.340        47
21.360        43
21.380        50
21.400        23
21.420        40
21.440        63
21.460        53
21.480        40
21.500        17
21.520        63
21.540        47
21.560        47
21.580        33
21.600        53
21.620        33
21.640        43
21.660        43
21.680        40
21.700        40
21.720        27
21.740        47
21.760        53
21.780        43
21.800        27
21.820        33
21.840        60
21.860        73
21.880        40
21.900        37
21.920        47
21.940        47
21.960        60
21.980        30
22.000        40
22.020        50
22.040        23
22.060        40
22.080        43
22.100         7
22.120        33
22.140        50
22.160        33
22.180        57
22.200        40
22.220        67
22.240        43
22.260        33
22.280        47
22.300        20
22.320        67
22.340        40
22.360        37
22.380        47
22.400        40
22.420        60
22.440        33
22.460        20
22.480        17
22.500        37
22.520        27
22.540        30
22.560        47
22.580        57
22.600        53
22.620        50
22.640        37
22.660        30
22.680        50
22.700        50
22.720        27
22.740        67
22.760        47
22.780        50
22.800        20
22.820        33
22.840        47
22.860        40
22.880        13
22.900        27
22.920        37
22.940        43
22.960        37
22.980        33
23.000        37
23.020        50
23.040        37
23.060        43
23.080        20
23.100        33
23.120        20
23.140        37
23.160        37
23.180        27
23.200        33
23.220        50
23.240        40
23.260        23
23.280        53
23.300        37
23.320        27
23.340        37
23.360        30
23.380        43
23.400        20
23.420        30
23.440        23
23.460        23
23.480        27
23.500        33
23.520        50
23.540        30
23.560        37
23.580        20
23.600        40
23.620        30
23.640        13
23.660        20
23.680        33
23.700        23
23.720        40
23.740        30
23.760        30
23.780        40
23.800        40
23.820        17
23.840        33
23.860        43
23.880        20
23.900        20
23.920        17
23.940        20
23.960        13
23.980        40
24.000        47
24.020        40
24.040        33
24.060        30
24.080        40
24.100        33
24.120        50
24.140        53
24.160        20
24.180        40
24.200        23
24.220        23
24.240        30
24.260        50
24.280        20
24.300        47
24.320        23
24.340        27
24.360        60
24.380        27
24.400        30
24.420        13
24.440        40
24.460        27
24.480        17
24.500        27
24.520        47
24.540        37
24.560        33
24.580        47
24.600        40
24.620        20
24.640        40
24.660        40
24.680        47
24.700        40
24.720        43
24.740        57
24.760        43
24.780        40
24.800        20
24.820        57
24.840        47
24.860        33
24.880        30
24.900        37
24.920        40
24.940        37
24.960        47
24.980        33
25.000        17
25.020        37
25.040        20
25.060        17
25.080        43
25.100        40
25.120        53
25.140        37
25.160        23
25.180        23
25.200        53
25.220        13
25.240        23
25.260        50
25.280        13
25.300        27
25.320        53
25.340        37
25.360        50
25.380        57
25.400        37
25.420        27
25.440        20
25.460        53
25.480        53
25.500        57
25.520        77
25.540        70
25.560        93
25.580        67
25.600        93
25.620        80
25.640        87
25.660        37
25.680        43
25.700        47
25.720        27
25.740        43
25.760        20
25.780        13
25.800        37
25.820        37
25.840        43
25.860        33
25.880        37
25.900        30
25.920        47
25.940        53
25.960        40
25.980        47
26.000        57
26.020        27
26.040        27
26.060        43
26.080        27
26.100        20
26.120        17
26.140        43
26.160        40
26.180        33
26.200        30
26.220        30
26.240        40
26.260        60
26.280        50
26.300        30
26.320        40
26.340        37
26.360        60
26.380        30
26.400        57
26.420        37
26.440        60
26.460        53
26.480        30
26.500        63
26.520        60
26.540        63
26.560        67
26.580        57
26.600        73
26.620        63
26.640        63
26.660        67
26.680        80
26.700        57
26.720        70
26.740        73
26.760        63
26.780        60
26.800        63
26.820        50
26.840        57
26.860        50
26.880        40
26.900        37
26.920        27
26.940        40
26.960        13
26.980        37
27.000        33
27.020        20
27.040        30
27.060        23
27.080        33
27.100        63
27.120        53
27.140        33
27.160        30
27.180        17
27.200        17
27.220        23
27.240        30
27.260        37
27.280        27
27.300        33
27.320        27
27.340        27
27.360        27
27.380        37
27.400        47
27.420        47
27.440        37
27.460        17
27.480        30
27.500        27
27.520        27
27.540        23
27.560        33
27.580        23
27.600        23
27.620        10
27.640        23
27.660        43
27.680        33
27.700        37
27.720        40
27.740        17
27.760        30
27.780        33
27.800        40
27.820        30
27.840        13
27.860        23
27.880        17
27.900        23
27.920        13
27.940        30
27.960        17
27.980        20
28.000        20
28.020        33
28.040        37
28.060        33
28.080        37
28.100        20
28.120        40
28.140        13
28.160        20
28.180        33
28.200        17
28.220        20
28.240        30
28.260        53
28.280        53
28.300        30
28.320        43
28.340        33
28.360        30
28.380        43
28.400        37
28.420        33
28.440        10
28.460        43
28.480        23
28.500        37
28.520        20
28.540        30
28.560        33
28.580        47
28.600        43
28.620        20
28.640        20
28.660        23
28.680        17
28.700        23
28.720        13
28.740        27
28.760        50
28.780        30
28.800        30
28.820        23
28.840        27
28.860        13
28.880        33
28.900        33
28.920        33
28.940        23
28.960        33
28.980        27
29.000        50
29.020        33
29.040        17
29.060        23
29.080        33
29.100        30
29.120        23
29.140        23
29.160        17
29.180        30
29.200        17
29.220        37
29.240        23
29.260        23
29.280        30
29.300        33
29.320        23
29.340        17
29.360        30
29.380        30
29.400        17
29.420        33
29.440        30
29.460        30
29.480        20
29.500        27
29.520        20
29.540        20
29.560        30
29.580        17
29.600        37
29.620        43
29.640        33
29.660        40
29.680        30
29.700        23
29.720        27
29.740        27
29.760        30
29.780        20
29.800        30
29.820        20
29.840        27
29.860        23
29.880        50
29.900        23
29.920        43
29.940        30
29.960        33
29.980        33
30.000        30
30.020        17
30.040        17
30.060        43
30.080        23
30.100        33
30.120        43
30.140        37
30.160        30
30.180        17
30.200        33
30.220        27
30.240         7
30.260        17
30.280        30
30.300        33
30.320        37
30.340        27
30.360        27
30.380        37
30.400        30
30.420        33
30.440        17
30.460        27
30.480        27
30.500        27
30.520        33
30.540        37
30.560        40
30.580        27
30.600        43
30.620        10
30.640        37
30.660        23
30.680        27
30.700        27
30.720        23
30.740        27
30.760        30
30.780        27
30.800        40
30.820        50
30.840        30
30.860        63
30.880        37
30.900        50
30.920        33
30.940        47
30.960        53
30.980        57
31.000        97
31.020       107
31.040       110
31.060       103
31.080       127
31.100       167
31.120       133
31.140       157
31.160       163
31.180       140
31.200       123
31.220       127
31.240       110
31.260        87
31.280        80
31.300        87
31.320        53
31.340        77
31.360        57
31.380        43
31.400        37
31.420        40
31.440        73
31.460        33
31.480        20
31.500        33
31.520        43
31.540        37
31.560        37
31.580        20
31.600        47
31.620        43
31.640        33
31.660        53
31.680        20
31.700        10
31.720        27
31.740        10
31.760        33
31.780        43
31.800        27
31.820        20
31.840        23
31.860        30
31.880        30
31.900        27
31.920        20
31.940        27
31.960        20
31.980        17
32.000        23
32.020        20
32.040        37
32.060        27
32.080        23
32.100        40
32.120        27
32.140        33
32.160        23
32.180        40
32.200        27
32.220        40
32.240        20
32.260        20
32.280        40
32.300        60
32.320        23
32.340        27
32.360        27
32.380        17
32.400        23
32.420        13
32.440        30
32.460        20
32.480        20
32.500        33
32.520        37
32.540        33
32.560        40
32.580        30
32.600        23
32.620        20
32.640        27
32.660        33
32.680        23
32.700        20
32.720        13
32.740        30
32.760        23
32.780        53
32.800         3
32.820        20
32.840        13
32.860        33
32.880        23
32.900        33
32.920        17
32.940        17
32.960        27
32.980        43
33.000        17
33.020        23
33.040        20
33.060        23
33.080        30
33.100        23
33.120        50
33.140        37
33.160        17
33.180        27
33.200        27
33.220        27
33.240        37
33.260        27
33.280        23
33.300        20
33.320        17
33.340        20
33.360        17
33.380        17
33.400         7
33.420        27
33.440        23
33.460         7
33.480        37
33.500        27
33.520        27
33.540        30
33.560        17
33.580        17
33.600        30
33.620        17
33.640        27
33.660        13
33.680        27
33.700        13
33.720        37
33.740        40
33.760        20
33.780        40
33.800        23
33.820        37
33.840        30
33.860        40
33.880        50
33.900        53
33.920        43
33.940        33
33.960        27
33.980        60
34.000        33
34.020        43
34.040        53
34.060        37
34.080        57
34.100        53
34.120        53
34.140        53
34.160        37
34.180        30
34.200        37
34.220        37
34.240        23
34.260        43
34.280        27
34.300        20
34.320        27
34.340        50
34.360        50
34.380        40
34.400        37
34.420        30
34.440        37
34.460        20
34.480        47
34.500        23
34.520        33
34.540        20
34.560        37
34.580        43
34.600        43
34.620        37
34.640        37
34.660        37
34.680        23
34.700        37
34.720        27
34.740        30
34.760        10
34.780        23
34.800        27
34.820        37
34.840        30
34.860        27
34.880        43
34.900        30
34.920        40
34.940        40
34.960        60
34.980        70
35.000        73
35.020        67
35.040        83
35.060       117
35.080       127
35.100       220
35.120       283
35.140       310
35.160       280
35.180       230
35.200       267
35.220       180
35.240       170
35.260       123
35.280        87
35.300        50
35.320        63
35.340        33
35.360        50
35.380        27
35.400        20
35.420        17
35.440        17
35.460        17
35.480        17
35.500        23
35.520        17
35.540        27
35.560        17
35.580        37
35.600        20
35.620        20
35.640        20
35.660        27
35.680        27
35.700        13
35.720        20
35.740        33
35.760        30
35.780        27
35.800        13
35.820        17
35.840        17
35.860        10
35.880        27
35.900        20
35.920        37
35.940        30
35.960        30
35.980        27
36.000        37
36.020        23
36.040        20
36.060        37
36.080        23
36.100        17
36.120        17
36.140        13
36.160        10
36.180        20
36.200        17
36.220        33
36.240        23
36.260        23
36.280        43
36.300        17
36.320        17
36.340        27
36.360        40
36.380        40
36.400        30
36.420         7
36.440        23
36.460        17
36.480        43
36.500        30
36.520        13
36.540        13
36.560        27
36.580         7
36.600        37
36.620        30
36.640        20
36.660        17
36.680        23
36.700        13
36.720        40
36.740        17
36.760        30
36.780        17
36.800        33
36.820        30
36.840        23
36.860        37
36.880        33
36.900        23
36.920        50
36.940        17
36.960        30
36.980        57
37.000        43
37.020        53
37.040        37
37.060        17
37.080        33
37.100        30
37.120        40
37.140        47
37.160        27
37.180        33
37.200        33
37.220        50
37.240        23
37.260        43
37.280        50
37.300        37
37.320        17
37.340        37
37.360        37
37.380        17
37.400        20
37.420        37
37.440        30
37.460        33
37.480        23
37.500        17
37.520        30
37.540        43
37.560        50
37.580        23
37.600        43
37.620        57
37.640        50
37.660        33
37.680        47
37.700        60
37.720        90
37.740        97
37.760       107
37.780       120
37.800        97
37.820        97
37.840        70
37.860        90
37.880       117
37.900       110
37.920       130
37.940        77
37.960       140
37.980       100
38.000       120
38.020       130
38.040       130
38.060       153
38.080       167
38.100       220
38.120       277
38.140       283
38.160       383
38.180       423
38.200       413
38.220       533
38.240       626
38.260       746
38.280       963
38.300      1073
38.320      1123
38.340      1213
38.360      1349
38.380      1203
38.400      1243
38.420      1393
38.440      1216
38.460      1150
38.480       986
38.500       896
38.520       806
38.540       643
38.560       446
38.580       410
38.600       327
38.620       270
38.640       230
38.660       180
38.680       153
38.700       137
38.720       110
38.740       123
38.760        80
38.780        70
38.800        77
38.820        90
38.840        63
38.860        47
38.880        53
38.900        30
38.920        57
38.940        43
38.960        47
38.980        50
39.000        33
39.020        57
39.040        60
39.060        43
39.080        60
39.100        53
39.120        60
39.140        40
39.160        37
39.180        63
39.200        63
39.220        27
39.240        47
39.260        23
39.280        50
39.300        37
39.320        30
39.340        40
39.360        37
39.380        27
39.400        30
39.420        43
39.440        23
39.460        43
39.480        27
39.500        20
39.520        23
39.540        20
39.560        33
39.580        33
39.600        43
39.620        27
39.640        27
39.660        33
39.680        30
39.700        50
39.720        17
39.740        43
39.760        17
39.780        37
39.800        23
39.820        20
39.840        37
39.860        40
39.880        10
39.900        17
39.920        17
39.940        27
39.960        53
39.980        23
40.000        33
40.020        13
40.040        13
40.060        27
40.080        23
40.100        27
40.120        37
40.140        23
40.160        20
40.180        37
40.200        20
40.220        50
40.240        33
40.260        10
40.280        23
40.300        23
40.320        17
40.340        17
40.360        23
40.380        20
40.400        27
40.420        53
40.440        13
40.460        27
40.480        17
40.500        30
40.520        17
40.540        17
40.560        17
40.580        27
40.600        33
40.620        17
40.640        23
40.660        27
40.680        13
40.700        27
40.720        23
40.740        17
40.760        20
40.780        30
40.800        27
40.820        37
40.840        23
40.860        20
40.880        20
40.900        27
40.920        27
40.940        27
40.960        27
40.980        13
41.000        20
41.020        30
41.040        30
41.060        20
41.080        30
41.100        37
41.120        23
41.140        17
41.160        23
41.180        40
41.200        17
41.220        23
41.240        10
41.260        47
41.280        13
41.300        40
41.320        37
41.340        30
41.360        20
41.380        23
41.400        27
41.420        37
41.440        53
41.460        40
41.480        27
41.500        27
41.520        23
41.540        57
41.560        60
41.580        23
41.600        33
41.620        33
41.640        43
41.660        57
41.680        80
41.700        63
41.720        43
41.740        23
41.760        70
41.780        37
41.800        53
41.820        27
41.840        13
41.860        33
41.880        40
41.900        13
41.920        13
41.940        10
41.960        17
41.980        13
42.000        40
42.020        23
42.040        27
42.060        17
42.080        17
42.100        27
42.120        30
42.140        23
42.160        40
42.180        30
42.200         7
42.220        17
42.240        13
42.260        33
42.280        27
42.300        17
42.320        43
42.340        20
42.360        37
42.380        30
42.400        13
42.420        20
42.440        53
42.460        23
42.480        13
42.500        13
42.520        27
42.540        20
42.560        30
42.580        30
42.600        20
42.620        17
42.640        33
42.660        10
42.680        30
42.700        13
42.720        17
42.740        30
42.760        33
42.780        30
42.800        27
42.820        33
42.840        23
42.860        23
42.880        37
42.900         7
42.920        10
42.940        20
42.960        13
42.980        27
43.000        23
43.020        30
43.040        10
43.060        13
43.080        23
43.100        17
43.120        40
43.140        27
43.160        53
43.180        30
43.200        37
43.220        43
43.240        47
43.260        60
43.280       100
43.300        97
43.320       173
43.340       177
43.360       297
43.380       317
43.400       280
43.420       167
43.440       113
43.460       187
43.480       143
43.500       120
43.520        97
43.540        67
43.560        27
43.580        23
43.600        10
43.620        27
43.640        23
43.660        33
43.680        23
43.700        27
43.720        27
43.740        17
43.760        23
43.780        27
43.800        27
43.820        17
43.840        37
43.860        23
43.880        20
43.900        20
43.920        33
43.940        17
43.960        30
43.980        33
44.000        10
44.020        20
44.040        20
44.060        27
44.080        20
44.100        23
44.120        17
44.140        17
44.160        17
44.180        17
44.200        20
44.220        17
44.240         3
44.260        27
44.280        20
44.300        10
44.320        23
44.340        17
44.360        33
44.380        27
44.400        23
44.420        17
44.440        33
44.460        20
44.480        40
44.500        27
44.520        33
44.540        30
44.560        40
44.580        27
44.600        37
44.620        33
44.640        17
44.660        23
44.680        20
44.700        40
44.720        40
44.740        13
44.760        33
44.780         7
44.800        17
44.820        30
44.840        33
44.860        27
44.880        20
44.900        30
44.920        27
44.940        23
44.960        13
44.980        23
45.000        23
45.020        23
45.040        17
45.060        30
45.080        13
45.100        27
45.120        20
45.140         7
45.160        20
45.180        27
45.200        17
45.220        13
45.240        30
45.260        23
45.280         7
45.300        23
45.320        13
45.340        30
45.360        13
45.380        17
45.400        30
45.420        17
45.440         7
45.460        20
45.480        13
45.500        10
45.520         7
45.540        23
45.560        10
45.580        13
45.600         7
45.620        37
45.640        10
45.660        13
45.680        13
45.700        20
45.720        27
45.740        17
45.760        20
45.780        23
45.800        17
45.820        10
45.840        20
45.860        23
45.880        13
45.900        17
45.920        20
45.940        13
45.960        23
45.980        17
46.000        23
46.020        33
46.040         7
46.060        10
46.080        27
46.100        27
46.120        20
46.140        17
46.160         3
46.180        20
46.200        10
46.220        20
46.240        20
46.260        17
46.280        10
46.300        27
46.320        13
46.340        23
46.360        27
46.380        10
46.400        10
46.420        20
46.440        13
46.460        27
46.480        10
46.500        13
46.520        20
46.540        17
46.560        13
46.580        27
46.600        13
46.620        23
46.640        17
46.660        13
46.680         7
46.700        20
46.720        13
46.740        20
46.760        13
46.780        20
46.800        13
46.820        10
46.840        23
46.860        13
46.880        10
46.900        30
46.920        17
46.940         3
46.960        13
46.980         3
47.000        17
47.020        10
47.040         7
47.060        13
47.080         7
47.100        17
47.120        27
47.140        13
47.160        27
47.180        13
47.200        10
47.220        13
47.240        23
47.260        20
47.280        17
47.300        13
47.320        13
47.340        30
47.360        23
47.380        13
47.400        17
47.420        10
47.440        27
47.460        33
47.480        10
47.500        13
47.520        17
47.540        13
47.560        23
47.580         7
47.600        13
47.620         3
47.640        20
47.660        27
47.680        17
47.700        17
47.720        17
47.740        10
47.760        10
47.780        17
47.800        20
47.820        23
47.840        10
47.860        17
47.880        23
47.900        13
47.920        33
47.940         7
47.960         0
47.980         7
48.000        17
48.020        17
48.040         7
48.060        13
48.080        10
48.100        20
48.120        10
48.140         7
48.160        13
48.180        10
48.200        17
48.220        37
48.240         7
48.260        23
48.280        13
48.300        10
48.320        10
48.340        17
48.360        20
48.380        13
48.400        17
48.420        20
48.440         0
48.460        17
48.480        17
48.500        10
48.520        23
48.540        20
48.560        20
48.580        13
48.600         7
48.620        20
48.640         7
48.660         7
48.680        20
48.700        17
48.720        13
48.740         7
48.760        17
48.780         7
48.800        10
48.820        10
48.840        23
48.860        20
48.880        30
48.900        33
48.920        17
48.940        13
48.960        27
48.980        20
49.000         7
49.020         3
49.040        20
49.060        10
49.080        17
49.100        10
49.120        23
49.140         3
49.160        13
49.180        17
49.200        20
49.220        17
49.240        17
49.260        13
49.280        20
49.300        27
49.320        10
49.340         7
49.360        23
49.380        10
49.400        10
49.420        17
49.440        10
49.460         7
49.480        17
49.500        10
49.520        23
49.540        20
49.560        20
49.580        23
49.600        13
49.620         7
49.640        17
49.660        10
49.680        17
49.700        23
49.720        17
49.740        10
49.760        10
49.780        10
49.800         7
49.820        13
49.840        13
49.860         0
49.880        10
49.900        30
49.920        13
49.940        10
49.960        13
49.980        17
50.000        17
50.020        23
50.040         3
50.060        13
50.080        17
50.100         7
50.120        10
50.140        13
50.160        27
50.180        17
50.200         7
50.220        17
50.240        23
50.260        13
50.280        33
50.300        10
50.320        13
50.340        10
50.360        27
50.380        10
50.400        10
50.420        13
50.440        17
50.460        13
50.480         7
50.500        23
50.520        20
50.540        13
50.560        13
50.580        10
50.600         3
50.620        30
50.640        13
50.660        17
50.680        20
50.700        17
50.720        17
50.740        20
50.760         7
50.780        13
50.800        17
50.820        13
50.840        17
50.860        10
50.880        20
50.900        10
50.920         3
50.940         3
50.960        17
50.980         3
51.000        10
51.020         7
51.040        10
51.060         0
51.080        23
51.100        17
51.120         7
51.140        10
51.160        20
51.180        20
51.200        17
51.220        20
51.240        13
51.260         7
51.280         7
51.300        30
51.320        13
51.340        17
51.360         3
51.380         7
51.400        30
51.420        10
51.440         3
51.460        10
51.480         3
51.500        20
51.520        10
51.540        23
51.560        17
51.580        20
51.600        30
51.620        17
51.640        10
51.660        13
51.680        13
51.700        13
51.720        10
51.740        27
51.760        23
51.780        20
51.800        10
51.820        20
51.840        37
51.860        23
51.880        23
51.900        23
51.920        30
51.940        17
51.960        37
51.980        33
52.000        27
52.020        37
52.040        17
52.060        43
52.080        20
52.100        20
52.120        43
52.140        13
52.160        17
52.180        17
52.200        13
52.220        23
52.240        23
52.260        17
52.280        27
52.300        13
52.320         7
52.340        23
52.360        17
52.380        37
52.400        23
52.420        17
52.440        27
52.460        40
52.480        30
52.500        50
52.520        70
52.540        57
52.560        70
52.580        77
52.600        40
52.620        37
52.640        43
52.660        30
52.680        30
52.700        50
52.720        43
52.740        30
52.760        37
52.780        13
52.800         3
52.820         7
52.840        17
52.860        23
52.880        23
52.900        20
52.920        20
52.940        13
52.960         7
52.980        10
53.000        20
53.020        10
53.040        10
53.060        10
53.080        20
53.100         7
53.120        20
53.140        20
53.160        13
53.180        20
53.200         3
53.220        27
53.240        13
53.260        10
53.280        13
53.300        13
53.320        27
53.340         3
53.360        17
53.380         3
53.400        20
53.420        13
53.440        23
53.460        10
53.480        43
53.500        10
53.520         7
53.540         7
53.560        17
53.580        10
53.600        20
53.620         0
53.640        10
53.660        20
53.680        13
53.700        17
53.720        10
53.740        13
53.760        10
53.780         7
53.800         7
53.820        23
53.840        10
53.860        20
53.880         7
53.900        13
53.920        10
53.940        17
53.960        17
53.980        17
54.000         7
54.020         3
54.040        17
54.060         7
54.080        20
54.100        23
54.120        17
54.140         7
54.160        17
54.180        13
54.200        23
54.220        17
54.240         7
54.260        17
54.280        23
54.300        10
54.320        30
54.340        10
54.360         7
54.380        23
54.400        13
54.420        17
54.440        23
54.460         0
54.480        13
54.500         7
54.520        10
54.540         7
54.560        20
54.580        10
54.600        10
54.620        13
54.640        23
54.660        20
54.680        23
54.700        27
54.720        20
54.740        23
54.760        13
54.780        30
54.800        23
54.820        20
54.840        17
54.860        27
54.880        17
54.900        23
54.920        23
54.940        33
54.960        13
54.980        13
55.000        20
55.020        27
55.040        40
55.060        43
55.080        37
55.100        33
55.120        33
55.140        27
55.160        60
55.180        43
55.200        73
55.220        47
55.240        73
55.260        60
55.280        67
55.300       103
55.320       107
55.340       113
55.360       103
55.380       103
55.400       110
55.420       100
55.440        90
55.460       123
55.480        93
55.500       127
55.520       103
55.540       113
55.560        80
55.580        97
55.600        73
55.620        97
55.640        73
55.660        70
55.680        77
55.700        37
55.720        13
55.740        50
55.760        50
55.780        30
55.800        37
55.820        20
55.840        33
55.860        20
55.880        23
55.900        20
55.920        20
55.940        17
55.960        20
55.980        10
56.000        13
56.020        17
56.040        17
56.060         7
56.080        17
56.100         7
56.120        17
56.140        20
56.160         7
56.180        13
56.200        10
56.220        17
56.240        13
56.260        27
56.280        10
56.300         7
56.320        17
56.340        10
56.360        10
56.380        27
56.400        17
56.420         3
56.440        13
56.460        10
56.480        17
56.500        17
56.520         7
56.540        10
56.560        13
56.580        13
56.600        17
56.620         3
56.640         7
56.660        13
56.680        17
56.700         7
56.720         3
56.740        10
56.760        10
56.780        17
56.800        17
56.820         7
56.840        33
56.860        17
56.880        20
56.900        13
56.920        30
56.940        17
56.960        17
56.980         7
57.000        10
57.020        10
57.040        17
57.060        13
57.080        20
57.100        17
57.120        13
57.140        27
57.160        13
57.180        20
57.200        13
57.220        17
57.240        27
57.260        27
57.280        30
57.300        13
57.320        30
57.340        27
57.360        37
57.380        43
57.400        57
57.420        97
57.440       127
57.460       233
57.480       240
57.500       280
57.520       327
57.540       317
57.560       217
57.580       157
57.600       127
57.620       130
57.640       173
57.660       213
57.680       167
57.700       147
57.720        77
57.740        57
57.760        43
57.780        23
57.800        33
57.820        27
57.840        13
57.860        13
57.880        30
57.900        13
57.920        10
57.940        13
57.960        27
57.980         7
58.000        13
58.020        20
58.040         7
58.060        17
58.080         3
58.100        30
58.120         0
58.140        27
58.160        10
58.180        10
58.200        13
58.220        20
58.240        20
58.260         3
58.280         7
58.300        10
58.320        17
58.340        17
58.360         7
58.380        27
58.400        23
58.420        30
58.440        10
58.460        13
58.480         7
58.500        23
58.520        17
58.540        10
58.560        10
58.580        20
58.600        17
58.620         3
58.640        13
58.660        13
58.680        17
58.700         7
58.720        20
58.740        17
58.760        23
58.780         7
58.800        30
58.820        10
58.840         7
58.860        13
58.880         7
58.900        13
58.920         7
58.940         3
58.960        13
58.980        10
59.000        13
59.020        23
59.040        10
59.060        13
59.080         3
59.100        10
59.120        10
59.140        20
59.160         7
59.180        17
59.200        20
59.220        10
59.240        27
59.260        10
59.280         7
59.300        17
59.320        13
59.340        20
59.360         7
59.380        13
59.400        10
59.420        10
59.440        17
59.460         7
59.480        17
59.500        10
59.520        13
59.540        20
59.560        13
59.580         0
59.600        37
59.620        10
59.640        13
59.660        17
59.680         3
59.700         7
59.720        37
59.740        13
59.760        23
59.780        43
59.800         7
59.820         0
59.840         0
59.860         7
59.880         0
59.900         3
59.920         3
59.940         0
59.960         0
59.980         0
60.000         0
