20.000         0
20.020         0
20.040         0
20.060         0
20.080         0
20.100         0
20.120         0
20.140         0
20.160         0
20.180         0
20.200        33
20.220        53
20.240        47
20.260        37
20.280        30
20.300        50
20.320        53
20.340        47
20.360        57
20.380        47
20.400        50
20.420        53
20.440        67
20.460        23
20.480        27
20.500        47
20.520        33
20.540        77
20.560        27
20.580        50
20.600        37
20.620        47
20.640        47
20.660        33
20.680        53
20.700        47
20.720        57
20.740        37
20.760        43
20.780        40
20.800        53
20.820        47
20.840        23
20.860        40
20.880        30
20.900        70
20.920        43
20.940        40
20.960        67
20.980        30
21.000        33
21.020        47
21.040        50
21.060        43
21.080        43
21.100        53
21.120        47
21.140        47
21.160        47
21.180        47
21.200        60
21.220        17
21.240        37
21.260        30
21.280        53
21.300        33
21.320        50
21.340        40
21.360        33
21.380        53
21.400        47
21.420        40
21.440        33
21.460        30
21.480        50
21.500        30
21.520        47
21.540        47
21.560        40
21.580        37
21.600        43
21.620        40
21.640        30
21.660        43
21.680        33
21.700        43
21.720        53
21.740        57
21.760        47
21.780        43
21.800        37
21.820        47
21.840        47
21.860        50
21.880        27
21.900        40
21.920        30
21.940        60
21.960        27
21.980        33
22.000        63
22.020        53
22.040        37
22.060        43
22.080        47
22.100        57
22.120        53
22.140        27
22.160        63
22.180        53
22.200        57
22.220        53
22.240        23
22.260        40
22.280        43
22.300        50
22.320        43
22.340        30
22.360        27
22.380        47
22.400        20
22.420        60
22.440        20
22.460        67
22.480        63
22.500        37
22.520        30
22.540        53
22.560        30
22.580        40
22.600        50
22.620        37
22.640        37
22.660        30
22.680        40
22.700        30
22.720        30
22.740        37
22.760        53
22.780        27
22.800        30
22.820        43
22.840        37
22.860        43
22.880        30
22.900        20
22.920        27
22.940        43
22.960        37
22.980        37
23.000        50
23.020        27
23.040        53
23.060        47
23.080        40
23.100        57
23.120        50
23.140        53
23.160        40
23.180        37
23.200        43
23.220        30
23.240        40
23.260        43
23.280        27
23.300        30
23.320        33
23.340        33
23.360        33
23.380        33
23.400        53
23.420        30
23.440        27
23.460        47
23.480        43
23.500        43
23.520        20
23.540        33
23.560        37
23.580        33
23.600        17
23.620        37
23.640        17
23.660        40
23.680        23
23.700        47
23.720        33
23.740        53
23.760        47
23.780        27
23.800        37
23.820        27
23.840        57
23.860        20
23.880        23
23.900        20
23.920        43
23.940        30
23.960        30
23.980        37
24.000        27
24.020        33
24.040        53
24.060        33
24.080        23
24.100        27
24.120        43
24.140        30
24.160        37
24.180        30
24.200        37
24.220        23
24.240        23
24.260        23
24.280        33
24.300        90
24.320        33
24.340        50
24.360        30
24.380        23
24.400        33
24.420        33
24.440        37
24.460        27
24.480        43
24.500        27
24.520        37
24.540        50
24.560        47
24.580        23
24.600        33
24.620        27
24.640        33
24.660        27
24.680        23
24.700        30
24.720        33
24.740        40
24.760        17
24.780        50
24.800        57
24.820        27
24.840        47
24.860        33
24.880        37
24.900        43
24.920        27
24.940        33
24.960        43
24.980        37
25.000        53
25.020        23
25.040        33
25.060        23
25.080        30
25.100        30
25.120        47
25.140        33
25.160        30
25.180        47
25.200        27
25.220        13
25.240        37
25.260        37
25.280        33
25.300        20
25.320        30
25.340        40
25.360        47
25.380        40
25.400        37
25.420        53
25.440        40
25.460        57
25.480        47
25.500        27
25.520        40
25.540        23
25.560        67
25.580        73
25.600        83
25.620        87
25.640        80
25.660        57
25.680        60
25.700        67
25.720        43
25.740        23
25.760        37
25.780        23
25.800        53
25.820        37
25.840        30
25.860        47
25.880        40
25.900        30
25.920        37
25.940        37
25.960        33
25.980        40
26.000        27
26.020        20
26.040        37
26.060        53
26.080        50
26.100        23
26.120        13
26.140        30
26.160        37
26.180        27
26.200        47
26.220        17
26.240        33
26.260        37
26.280        40
26.300        37
26.320        33
26.340        20
26.360        47
26.380        33
26.400        27
26.420        50
26.440        33
26.460        33
26.480        27
26.500        40
26.520        43
26.540        20
26.560        30
26.580        23
26.600        47
26.620        43
26.640        33
26.660        37
26.680        50
26.700        30
26.720        23
26.740        33
26.760        27
26.780        23
26.800        30
26.820        40
26.840        23
26.860        33
26.880        30
26.900        33
26.920        23
26.940        20
26.960        20
26.980        20
27.000        57
27.020        37
27.040        40
27.060        27
27.080        43
27.100        27
27.120        37
27.140        27
27.160        40
27.180        47
27.200        40
27.220        43
27.240        33
27.260        23
27.280        27
27.300        20
27.320        47
27.340        50
27.360        33
27.380        27
27.400        20
27.420        30
27.440        53
27.460        13
27.480        17
27.500        40
27.520        17
27.540        30
27.560        47
27.580        37
27.600        17
27.620        23
27.640        27
27.660        53
27.680        30
27.700        17
27.720        27
27.740        17
27.760        37
27.780        17
27.800        23
27.820        33
27.840        40
27.860        30
27.880        27
27.900        23
27.920        27
27.940        33
27.960        40
27.980        13
28.000        47
28.020        30
28.040        30
28.060        37
28.080        23
28.100        30
28.120        37
28.140        37
28.160        33
28.180        37
28.200        43
28.220        27
28.240        50
28.260        37
28.280        23
28.300        47
28.320        47
28.340        40
28.360        43
28.380        80
28.400        50
28.420        47
28.440        43
28.460        27
28.480        50
28.500        30
28.520        17
28.540        23
28.560        40
28.580        40
28.600        40
28.620        43
28.640        30
28.660        27
28.680        30
28.700        43
28.720        30
28.740        20
28.760        37
28.780        30
28.800        33
28.820        30
28.840        33
28.860        17
28.880        33
28.900        43
28.920        37
28.940        27
28.960        20
28.980        30
29.000        40
29.020        40
29.040        17
29.060        17
29.080        23
29.100        23
29.120        50
29.140        20
29.160        23
29.180        37
29.200        23
29.220        40
29.240        33
29.260        17
29.280        27
29.300        23
29.320        30
29.340        50
29.360        30
29.380        43
29.400        13
29.420        23
29.440        43
29.460        37
29.480        23
29.500        23
29.520        43
29.540        23
29.560        37
29.580        27
29.600        27
29.620        30
29.640        37
29.660        20
29.680        37
29.700        30
29.720        37
29.740        37
29.760        40
29.780        47
29.800        27
29.820        27
29.840        30
29.860        30
29.880        30
29.900        13
29.920        30
29.940        33
29.960        40
29.980        23
30.000        40
30.020        23
30.040        60
30.060        50
30.080        33
30.100        37
30.120        53
30.140        40
30.160        50
30.180        57
30.200        70
30.220       100
30.240        80
30.260       100
30.280       117
30.300       133
30.320       153
30.340       173
30.360       200
30.380       167
30.400       200
30.420       180
30.440       197
30.460       273
30.480       430
30.500       320
30.520       383
30.540       417
30.560       300
30.580       320
30.600       313
30.620       230
30.640       240
30.660       220
30.680       177
30.700       130
30.720       103
30.740       137
30.760        70
30.780        60
30.800        57
30.820        60
30.840        50
30.860        37
30.880        37
30.900        50
30.920        33
30.940        20
30.960        23
30.980        33
31.000        33
31.020        33
31.040        63
31.060        27
31.080        13
31.100        30
31.120        53
31.140        23
31.160        17
31.180        27
31.200        23
31.220        53
31.240        30
31.260        20
31.280        30
31.300        17
31.320        27
31.340        43
31.360        53
31.380         7
31.400        27
31.420        27
31.440        47
31.460        27
31.480        17
31.500        23
31.520        30
31.540        37
31.560        20
31.580        37
31.600        17
31.620        27
31.640        33
31.660        23
31.680        17
31.700        17
31.720        33
31.740        37
31.760        23
31.780        13
31.800        27
31.820        20
31.840        23
31.860        37
31.880        30
31.900        40
31.920        23
31.940        13
31.960        37
31.980        37
32.000        20
32.020        10
32.040        23
32.060        37
32.080        20
32.100        10
32.120        23
32.140        20
32.160        17
32.180        17
32.200        23
32.220        20
32.240        30
32.260        30
32.280        40
32.300        20
32.320        30
32.340        17
32.360        17
32.380        50
32.400        23
32.420        17
32.440        30
32.460        20
32.480        23
32.500        43
32.520        17
32.540        23
32.560        10
32.580        23
32.600        30
32.620        30
32.640        30
32.660        37
32.680        27
32.700        13
32.720        27
32.740        20
32.760        17
32.780        20
32.800        37
32.820        33
32.840        20
32.860        23
32.880        27
32.900        27
32.920        27
32.940        23
32.960        20
32.980        33
33.000        33
33.020        37
33.040        40
33.060        30
33.080        23
33.100        20
33.120        20
33.140        10
33.160        30
33.180        17
33.200        30
33.220        33
33.240        13
33.260        30
33.280        33
33.300        37
33.320        30
33.340        17
33.360        17
33.380        17
33.400        20
33.420        23
33.440        17
33.460        33
33.480        30
33.500        30
33.520        30
33.540        13
33.560        17
33.580        17
33.600        23
33.620        20
33.640        20
33.660        30
33.680        10
33.700        23
33.720        37
33.740        27
33.760        17
33.780        33
33.800        40
33.820        30
33.840        27
33.860        37
33.880        27
33.900        33
33.920        20
33.940        53
33.960        20
33.980        57
34.000        20
34.020        40
34.040        20
34.060        33
34.080        17
34.100        27
34.120        30
34.140        10
34.160        30
34.180        20
34.200        40
34.220        23
34.240        37
34.260        33
34.280        10
34.300        40
34.320        33
34.340        53
34.360        37
34.380        27
34.400        23
34.420        27
34.440        33
34.460        23
34.480        33
34.500        23
34.520        27
34.540        17
34.560        27
34.580        30
34.600        13
34.620        37
34.640        37
34.660        23
34.680        17
34.700        17
34.720        40
34.740        50
34.760        13
34.780        33
34.800        30
34.820        23
34.840        13
34.860        23
34.880         7
34.900        23
34.920        30
34.940        37
34.960        20
34.980        33
35.000        47
35.020        57
35.040       120
35.060        87
35.080        70
35.100        80
35.120        80
35.140       120
35.160       260
35.180       426
35.200       423
35.220       367
35.240       200
35.260       180
35.280       237
35.300       223
35.320       123
35.340        67
35.360        33
35.380        43
35.400        40
35.420        37
35.440        20
35.460        60
35.480        30
35.500        27
35.520        20
35.540        37
35.560        37
35.580        17
35.600        10
35.620        30
35.640        23
35.660        23
35.680        37
35.700        27
35.720        37
35.740        20
35.760        13
35.780        20
35.800        13
35.820        13
35.840        20
35.860        13
35.880        30
35.900        27
35.920        37
35.940        10
35.960        17
35.980        17
36.000        17
36.020        20
36.040        33
36.060        17
36.080        13
36.100        27
36.120         7
36.140        30
36.160        20
36.180        23
36.200        33
36.220        50
36.240        20
36.260        33
36.280        23
36.300        43
36.320        20
36.340        23
36.360        10
36.380        50
36.400        23
36.420        30
36.440        33
36.460        40
36.480        27
36.500        30
36.520        23
36.540        23
36.560        30
36.580        23
36.600        30
36.620        47
36.640        27
36.660        43
36.680        47
36.700        47
36.720         7
36.740        23
36.760        13
36.780        37
36.800        20
36.820        30
36.840        30
36.860        50
36.880        40
36.900        30
36.920        17
36.940        53
36.960        33
36.980        47
37.000        47
37.020        37
37.040        37
37.060        47
37.080        47
37.100        47
37.120        43
37.140        40
37.160        60
37.180        87
37.200        57
37.220        70
37.240       123
37.260        80
37.280       100
37.300       173
37.320       190
37.340       160
37.360       207
37.380       293
37.400       347
37.420       423
37.440       453
37.460       566
37.480       666
37.500       723
37.520       790
37.540      1023
37.560       946
37.580      1106
37.600      1106
37.620       976
37.640       960
37.660       916
37.680       850
37.700       776
37.720       583
37.740       503
37.760       417
37.780       320
37.800       293
37.820       237
37.840       197
37.860       160
37.880       117
37.900        77
37.920        77
37.940       103
37.960        67
37.980        63
38.000        57
38.020        33
38.040        50
38.060        53
38.080        53
38.100        53
38.120        37
38.140        30
38.160        33
38.180        33
38.200        33
38.220        33
38.240        40
38.260        43
38.280        33
38.300        30
38.320        30
38.340        33
38.360        47
38.380        37
38.400        37
38.420        27
38.440        33
38.460        20
38.480        43
38.500        17
38.520        20
38.540        27
38.560        30
38.580        40
38.600        33
38.620        17
38.640        37
38.660        20
38.680        27
38.700         7
38.720        27
38.740        30
38.760        20
38.780        33
38.800        30
38.820        40
38.840        30
38.860        17
38.880        20
38.900        33
38.920        27
38.940        37
38.960        27
38.980        43
39.000        20
39.020        20
39.040        23
39.060        23
39.080        20
39.100        30
39.120        30
39.140        17
39.160        40
39.180        37
39.200        37
39.220        33
39.240        20
39.260        17
39.280        40
39.300        20
39.320        20
39.340        30
39.360        13
39.380        27
39.400        27
39.420        30
39.440        13
39.460        50
39.480        27
39.500        23
39.520        33
39.540        40
39.560        23
39.580        13
39.600        30
39.620        23
39.640        20
39.660        17
39.680        23
39.700        27
39.720        27
39.740        30
39.760        33
39.780        17
39.800        37
39.820        23
39.840        37
39.860        23
39.880        20
39.900        30
39.920        30
39.940        13
39.960        40
39.980         7
40.000        30
40.020        23
40.040        27
40.060        27
40.080        10
40.100        27
40.120        20
40.140        10
40.160        43
40.180        23
40.200        17
40.220        17
40.240        20
40.260        23
40.280         7
40.300        20
40.320        13
40.340        17
40.360        17
40.380        20
40.400        30
40.420        13
40.440        27
40.460        17
40.480        27
40.500        23
40.520        17
40.540        37
40.560        20
40.580        20
40.600        20
40.620        30
40.640        33
40.660        17
40.680        33
40.700        43
40.720        20
40.740        27
40.760        20
40.780        37
40.800        37
40.820        20
40.840        23
40.860        10
40.880         7
40.900        13
40.920        20
40.940        33
40.960        33
40.980        27
41.000        10
41.020        30
41.040        20
41.060        27
41.080        37
41.100        33
41.120        17
41.140        47
41.160        73
41.180        33
41.200        50
41.220        40
41.240        40
41.260        43
41.280        40
41.300        37
41.320        27
41.340        27
41.360        20
41.380        23
41.400        17
41.420        27
41.440        17
41.460        17
41.480        17
41.500        30
41.520        17
41.540        20
41.560        23
41.580        33
41.600        27
41.620        27
41.640        33
41.660        37
41.680        63
41.700        57
41.720       120
41.740        60
41.760        33
41.780        50
41.800        50
41.820        37
41.840        67
41.860        57
41.880        50
41.900        30
41.920        23
41.940        17
41.960        17
41.980        17
42.000        37
42.020        33
42.040        27
42.060        17
42.080        13
42.100        27
42.120        20
42.140        23
42.160        23
42.180        17
42.200        13
42.220        17
42.240        30
42.260        17
42.280        27
42.300        27
42.320        17
42.340        17
42.360        27
42.380        13
42.400        23
42.420         7
42.440        20
42.460        13
42.480        17
42.500        23
42.520         3
42.540        23
42.560        10
42.580        27
42.600        13
42.620        17
42.640        23
42.660        13
42.680        23
42.700         0
42.720        43
42.740        23
42.760        23
42.780        27
42.800        40
42.820        33
42.840        30
42.860        10
42.880        23
42.900        17
42.920        27
42.940        13
42.960        10
42.980        20
43.000        20
43.020        23
43.040        13
43.060        30
43.080        37
43.100        33
43.120        33
43.140        27
43.160        27
43.180         3
43.200        17
43.220        23
43.240        23
43.260        43
43.280        27
43.300        60
43.320        77
43.340        87
43.360       173
43.380       237
43.400       187
43.420       137
43.440        83
43.460       130
43.480       107
43.500       113
43.520       100
43.540        43
43.560        33
43.580        33
43.600        43
43.620        13
43.640        33
43.660        27
43.680        23
43.700        20
43.720        17
43.740        33
43.760        20
43.780        27
43.800        20
43.820        17
43.840        27
43.860        23
43.880        10
43.900        27
43.920        23
43.940        20
43.960        13
43.980        17
44.000         7
44.020        27
44.040        13
44.060        27
44.080        13
44.100        13
44.120        17
44.140        23
44.160        27
44.180        13
44.200        10
44.220        13
44.240        23
44.260        20
44.280        20
44.300        23
44.320        17
44.340        13
44.360        30
44.380        17
44.400        17
44.420        13
44.440        13
44.460        10
44.480        20
44.500        27
44.520        10
44.540        17
44.560        17
44.580        10
44.600        33
44.620         7
44.640        23
44.660        17
44.680        27
44.700        30
44.720        17
44.740        17
44.760        10
44.780        17
44.800        33
44.820        23
44.840        23
44.860        30
44.880        13
44.900        10
44.920        30
44.940        17
44.960        17
44.980        20
45.000        20
45.020         3
45.040        17
45.060        33
45.080        13
45.100        23
45.120        17
45.140        17
45.160        20
45.180        33
45.200        30
45.220        10
45.240        37
45.260        17
45.280        27
45.300        27
45.320        10
45.340         3
45.360        37
45.380        23
45.400        10
45.420         7
45.440        40
45.460        23
45.480        13
45.500        17
45.520        17
45.540        17
45.560        13
45.580        23
45.600        17
45.620        13
45.640        23
45.660        10
45.680        27
45.700        20
45.720         7
45.740        27
45.760        47
45.780        23
45.800        10
45.820        17
45.840        30
45.860        20
45.880        23
45.900        30
45.920        17
45.940        20
45.960        33
45.980        27
46.000        30
46.020        37
46.040        30
46.060        27
46.080        27
46.100        17
46.120        23
46.140        30
46.160        17
46.180        30
46.200        23
46.220        27
46.240        20
46.260        23
46.280        17
46.300        23
46.320        13
46.340        27
46.360        17
46.380        20
46.400        13
46.420         3
46.440        13
46.460        13
46.480        33
46.500        10
46.520        27
46.540        20
46.560        33
46.580        30
46.600        23
46.620        13
46.640        10
46.660         7
46.680        10
46.700        27
46.720         7
46.740        17
46.760        10
46.780        30
46.800        30
46.820        20
46.840        17
46.860        17
46.880        13
46.900         7
46.920        17
46.940        20
46.960        23
46.980        40
47.000        20
47.020        17
47.040        27
47.060        13
47.080         3
47.100        13
47.120        20
47.140        17
47.160         7
47.180        10
47.200        17
47.220        20
47.240        10
47.260        20
47.280         7
47.300        10
47.320         3
47.340        10
47.360        10
47.380         3
47.400        17
47.420        10
47.440        27
47.460         7
47.480        27
47.500        33
47.520        20
47.540        20
47.560        27
47.580        13
47.600        13
47.620        13
47.640        13
47.660        17
47.680        10
47.700        17
47.720        13
47.740        20
47.760        30
47.780        27
47.800        13
47.820         7
47.840        17
47.860        17
47.880        23
47.900        27
47.920        17
47.940        10
47.960        20
47.980        20
48.000         7
48.020        17
48.040        20
48.060        20
48.080        23
48.100        17
48.120         3
48.140        27
48.160        13
48.180         3
48.200        23
48.220        13
48.240        20
48.260        20
48.280        13
48.300        27
48.320        30
48.340        10
48.360        17
48.380         7
48.400        13
48.420        10
48.440        20
48.460        17
48.480        33
48.500        13
48.520         3
48.540         3
48.560        23
48.580        13
48.600        13
48.620         3
48.640         7
48.660        20
48.680        20
48.700        17
48.720        13
48.740        17
48.760        43
48.780        17
48.800        27
48.820        10
48.840        17
48.860        17
48.880        10
48.900        10
48.920        10
48.940         3
48.960        10
48.980        40
49.000        13
49.020        37
49.040        17
49.060        23
49.080        30
49.100        20
49.120        20
49.140        20
49.160        10
49.180        30
49.200         0
49.220        13
49.240        13
49.260        17
49.280         0
49.300        20
49.320        13
49.340        10
49.360        23
49.380        13
49.400        13
49.420        13
49.440        47
49.460        10
49.480        10
49.500         7
49.520        10
49.540        37
49.560        23
49.580        17
49.600         7
49.620        17
49.640        13
49.660        17
49.680        13
49.700        13
49.720        17
49.740        20
49.760        10
49.780        10
49.800        30
49.820         7
49.840         3
49.860        17
49.880        17
49.900        20
49.920        10
49.940        10
49.960        27
49.980        23
50.000        17
50.020        20
50.040        13
50.060        10
50.080        20
50.100        13
50.120        17
50.140        13
50.160        17
50.180        23
50.200        17
50.220        27
50.240        20
50.260        27
50.280        23
50.300        30
50.320        20
50.340        10
50.360        27
50.380        43
50.400        20
50.420        23
50.440         7
50.460        20
50.480        37
50.500        27
50.520        20
50.540        23
50.560         7
50.580        33
50.600        10
50.620        13
50.640        10
50.660        10
50.680        10
50.700        10
50.720        13
50.740        10
50.760        20
50.780        20
50.800         7
50.820        10
50.840         7
50.860        13
50.880        20
50.900        10
50.920        17
50.940        17
50.960        13
50.980        23
51.000        23
51.020        13
51.040        13
51.060        13
51.080        17
51.100        13
51.120        13
51.140        30
51.160        27
51.180         7
51.200        17
51.220        17
51.240        17
51.260         7
51.280        10
51.300        10
51.320        17
51.340        13
51.360        10
51.380        10
51.400        17
51.420        17
51.440        17
51.460         0
51.480        10
51.500        17
51.520         0
51.540        27
51.560        23
51.580        23
51.600        20
51.620        30
51.640        27
51.660         7
51.680        20
51.700        10
51.720        13
51.740        10
51.760        27
51.780        10
51.800        13
51.820        10
51.840        17
51.860        17
51.880        17
51.900        17
51.920        20
51.940        20
51.960        17
51.980        10
52.000        17
52.020         7
52.040        13
52.060         3
52.080        13
52.100        10
52.120         0
52.140        13
52.160        17
52.180        10
52.200        27
52.220        27
52.240         7
52.260        17
52.280         3
52.300        13
52.320        17
52.340        13
52.360        13
52.380        13
52.400        50
52.420        17
52.440        23
52.460        27
52.480        23
52.500        30
52.520        37
52.540        37
52.560        60
52.580        70
52.600        50
52.620        40
52.640        47
52.660        60
52.680        47
52.700        23
52.720        13
52.740        33
52.760        37
52.780        13
52.800         3
52.820        23
52.840        17
52.860         0
52.880        17
52.900         7
52.920        13
52.940        10
52.960         7
52.980        20
53.000         3
53.020        27
53.040        10
53.060        17
53.080         3
53.100         7
53.120        30
53.140        17
53.160        20
53.180        10
53.200        20
53.220        13
53.240         7
53.260        17
53.280        10
53.300        20
53.320        17
53.340        17
53.360        23
53.380        13
53.400         7
53.420         7
53.440        10
53.460         7
53.480         7
53.500        27
53.520        23
53.540        10
53.560         7
53.580        20
53.600        30
53.620        13
53.640        33
53.660        20
53.680        20
53.700        17
53.720        17
53.740        27
53.760        27
53.780         7
53.800        17
53.820        33
53.840        27
53.860        20
53.880        13
53.900        20
53.920        37
53.940        23
53.960        20
53.980        47
54.000        67
54.020        17
54.040        30
54.060        37
54.080        50
54.100        37
54.120        67
54.140        73
54.160        80
54.180        80
54.200       100
54.220        73
54.240        80
54.260        70
54.280        73
54.300        73
54.320        63
54.340        67
54.360        57
54.380        57
54.400        40
54.420        40
54.440        40
54.460        20
54.480        30
54.500        47
54.520        33
54.540        30
54.560        17
54.580        20
54.600        17
54.620        23
54.640        13
54.660        20
54.680        27
54.700        27
54.720        20
54.740        17
54.760        10
54.780        17
54.800         7
54.820        20
54.840         0
54.860        13
54.880        13
54.900        17
54.920        10
54.940        13
54.960        20
54.980        20
55.000        13
55.020        17
55.040        10
55.060        17
55.080        10
55.100        23
55.120        23
55.140        17
55.160        17
55.180        10
55.200        13
55.220        17
55.240        17
55.260         7
55.280        17
55.300        10
55.320        20
55.340        10
55.360        17
55.380        13
55.400        10
55.420        13
55.440        13
55.460        10
55.480        13
55.500        27
55.520        17
55.540        13
55.560        10
55.580        20
55.600        20
55.620        17
55.640         7
55.660        13
55.680        17
55.700         7
55.720         7
55.740        23
55.760        17
55.780        33
55.800         7
55.820        23
55.840         3
55.860        23
55.880         7
55.900        27
55.920        10
55.940         7
55.960         3
55.980        10
56.000         3
56.020         3
56.040        13
56.060         7
56.080        10
56.100        13
56.120        20
56.140         7
56.160        10
56.180        17
56.200        20
56.220        17
56.240        13
56.260        13
56.280        17
56.300         7
56.320        13
56.340         7
56.360        20
56.380        13
56.400        40
56.420        30
56.440        10
56.460        17
56.480        13
56.500        23
56.520        13
56.540        10
56.560        20
56.580        13
56.600         7
56.620         3
56.640        17
56.660        17
56.680        20
56.700        17
56.720         3
56.740        13
56.760        17
56.780         7
56.800        20
56.820        17
56.840        27
56.860        20
56.880        17
56.900        20
56.920        10
56.940        13
56.960         7
56.980        10
57.000        17
57.020        10
57.040        20
57.060        17
57.080        20
57.100        20
57.120        17
57.140        20
57.160        17
57.180        20
57.200        10
57.220        23
57.240        23
57.260         7
57.280        20
57.300        30
57.320         3
57.340        40
57.360        30
57.380        27
57.400        13
57.420        30
57.440        27
57.460        37
57.480        77
57.500       157
57.520       257
57.540       293
57.560       313
57.580       267
57.600       143
57.620       117
57.640       133
57.660        93
57.680       143
57.700       163
57.720       127
57.740       110
57.760       103
57.780        47
57.800        23
57.820        30
57.840        17
57.860        20
57.880         7
57.900        23
57.920        23
57.940        20
57.960        17
57.980        13
58.000        20
58.020        20
58.040         7
58.060        10
58.080        30
58.100        17
58.120        10
58.140        17
58.160        13
58.180         7
58.200        10
58.220        23
58.240        10
58.260        13
58.280        10
58.300        10
58.320        20
58.340        10
58.360        10
58.380        23
58.400        10
58.420        13
58.440        20
58.460        17
58.480        13
58.500        23
58.520        17
58.540        13
58.560         7
58.580        10
58.600         3
58.620        13
58.640         7
58.660         7
58.680        10
58.700        23
58.720        13
58.740        10
58.760        23
58.780        30
58.800        17
58.820        17
58.840        23
58.860        30
58.880        17
58.900        10
58.920        13
58.940         7
58.960        20
58.980        17
59.000        20
59.020         3
59.040         7
59.060        13
59.080        23
59.100        13
59.120        10
59.140        13
59.160        10
59.180        10
59.200        27
59.220        13
59.240        13
59.260        13
59.280        13
59.300        13
59.320        17
59.340        10
59.360         7
59.380        10
59.400        23
59.420        13
59.440        10
59.460        13
59.480        20
59.500        17
59.520        17
59.540        13
59.560        10
59.580        10
59.600        10
59.620         7
59.640        13
59.660        37
59.680        10
59.700        13
59.720         7
59.740        13
59.760        10
59.780        10
59.800        30
59.820         7
59.840        17
59.860        17
59.880         7
59.900        20
59.920        17
59.940        20
59.960         7
59.980        13
60.000        17
