20.000        70
20.020        43
20.040        33
20.060        20
20.080        37
20.100        63
20.120        47
20.140        47
20.160        13
20.180        23
20.200        50
20.220        53
20.240        37
20.260        37
20.280        47
20.300        47
20.320        60
20.340        27
20.360        30
20.380        33
20.400        47
20.420        43
20.440        70
20.460        50
20.480        57
20.500        87
20.520        53
20.540        27
20.560        37
20.580        33
20.600        67
20.620        37
20.640        30
20.660        30
20.680        17
20.700        37
20.720        27
20.740        33
20.760        23
20.780        60
20.800        67
20.820        23
20.840        60
20.860        30
20.880        17
20.900        60
20.920        40
20.940        27
20.960        47
20.980        30
21.000        37
21.020        23
21.040        43
21.060        40
21.080        30
21.100        67
21.120        53
21.140        40
21.160        60
21.180        27
21.200        47
21.220        53
21.240        43
21.260        53
21.280        37
21.300        10
21.320        30
21.340        37
21.360        63
21.380        33
21.400        47
21.420        37
21.440        27
21.460        33
21.480        13
21.500        20
21.520        50
21.540        30
21.560        33
21.580        30
21.600        40
21.620        33
21.640        43
21.660        33
21.680        60
21.700        33
21.720        43
21.740        67
21.760        33
21.780        60
21.800        17
21.820        40
21.840        50
21.860        50
21.880        40
21.900        27
21.920        33
21.940        20
21.960        30
21.980        23
22.000        47
22.020        27
22.040        43
22.060        33
22.080        23
22.100        37
22.120        37
22.140        57
22.160        37
22.180        40
22.200        50
22.220        33
22.240        43
22.260        50
22.280        40
22.300        57
22.320        40
22.340        33
22.360        30
22.380        37
22.400        50
22.420        33
22.440        27
22.460        37
22.480        50
22.500        27
22.520        30
22.540        27
22.560        30
22.580        43
22.600        27
22.620        17
22.640        43
22.660        33
22.680        23
22.700        20
22.720        33
22.740        53
22.760        33
22.780        33
22.800        43
22.820        40
22.840        33
22.860        50
22.880        50
22.900        47
22.920        30
22.940        47
22.960        27
22.980        27
23.000        40
23.020        53
23.040         7
23.060        47
23.080        60
23.100        33
23.120        37
23.140        33
23.160        40
23.180        30
23.200        37
23.220        27
23.240        23
23.260        43
23.280        27
23.300        37
23.320        40
23.340        50
23.360        37
23.380        33
23.400        40
23.420        17
23.440        37
23.460        50
23.480        47
23.500        40
23.520        53
23.540        37
23.560        37
23.580        20
23.600        43
23.620        30
23.640        37
23.660        20
23.680        33
23.700        30
23.720        33
23.740        50
23.760        43
23.780        27
23.800        27
23.820        33
23.840        37
23.860        37
23.880        47
23.900        13
23.920        23
23.940        40
23.960        33
23.980        57
24.000        23
24.020        23
24.040        40
24.060        43
24.080        23
24.100        33
24.120        37
24.140        27
24.160        30
24.180        23
24.200        27
24.220        43
24.240        40
24.260        37
24.280        30
24.300        30
24.320        23
24.340        17
24.360        33
24.380        37
24.400        40
24.420        40
24.440        40
24.460        33
24.480        57
24.500        47
24.520        20
24.540        23
24.560        57
24.580        33
24.600        33
24.620        43
24.640        17
24.660        43
24.680        33
24.700        27
24.720        40
24.740        20
24.760        23
24.780        20
24.800        37
24.820        13
24.840        27
24.860        27
24.880        30
24.900        33
24.920        37
24.940        47
24.960        27
24.980        43
25.000        27
25.020        17
25.040        50
25.060        33
25.080        33
25.100        60
25.120        40
25.140        17
25.160        33
25.180        33
25.200        33
25.220        30
25.240        40
25.260        27
25.280        47
25.300        53
25.320        43
25.340        53
25.360        60
25.380        53
25.400        73
25.420        57
25.440        77
25.460       113
25.480       133
25.500       223
25.520       290
25.540       333
25.560       283
25.580       337
25.600       297
25.620       203
25.640       173
25.660       160
25.680        90
25.700        63
25.720        27
25.740        47
25.760        33
25.780        17
25.800        37
25.820        27
25.840        30
25.860        13
25.880        37
25.900        20
25.920        30
25.940        50
25.960        13
25.980        33
26.000        50
26.020        20
26.040        33
26.060        37
26.080        33
26.100        27
26.120        37
26.140        27
26.160        50
26.180        40
26.200        27
26.220        33
26.240        40
26.260        40
26.280        57
26.300        23
26.320        17
26.340        30
26.360        43
26.380        37
26.400        30
26.420        17
26.440        23
26.460        30
26.480        30
26.500        43
26.520        27
26.540        23
26.560        23
26.580        40
26.600        27
26.620        30
26.640        37
26.660        33
26.680        30
26.700        37
26.720        33
26.740        43
26.760        30
26.780        23
26.800        40
26.820        27
26.840        23
26.860        53
26.880        23
26.900        20
26.920        40
26.940        40
26.960        17
26.980        60
27.000        37
27.020        17
27.040        13
27.060        23
27.080        30
27.100        30
27.120        33
27.140        23
27.160        30
27.180        30
27.200        33
27.220        37
27.240        23
27.260        40
27.280        23
27.300        30
27.320         7
27.340        23
27.360        30
27.380        30
27.400        10
27.420        27
27.440        27
27.460        17
27.480        37
27.500        40
27.520        40
27.540        37
27.560        17
27.580        37
27.600        17
27.620        30
27.640        27
27.660        37
27.680        27
27.700        47
27.720        23
27.740        30
27.760        20
27.780        20
27.800        50
27.820        30
27.840        27
27.860        27
27.880        47
27.900        43
27.920        20
27.940        40
27.960        33
27.980        23
28.000        23
28.020        33
28.040        23
28.060        27
28.080        17
28.100        20
28.120        27
28.140        17
28.160        53
28.180        20
28.200        33
28.220        27
28.240        20
28.260        33
28.280        17
28.300        23
28.320        37
28.340        43
28.360        33
28.380        40
28.400        37
28.420        30
28.440        33
28.460        27
28.480        27
28.500        27
28.520        47
28.540        33
28.560        43
28.580        37
28.600        23
28.620        23
28.640        20
28.660        47
28.680        27
28.700        27
28.720        23
28.740        20
28.760        43
28.780        20
28.800        43
28.820        37
28.840        30
28.860        27
28.880        17
28.900        20
28.920        17
28.940        30
28.960         7
28.980        20
29.000        20
29.020        30
29.040        30
29.060        37
29.080         7
29.100        33
29.120        17
29.140        30
29.160        13
29.180        20
29.200        40
29.220        10
29.240        33
29.260        27
29.280        20
29.300        17
29.320        30
29.340        20
29.360        10
29.380        30
29.400        23
29.420        13
29.440        20
29.460        30
29.480        30
29.500         7
29.520        30
29.540        27
29.560        23
29.580        30
29.600        23
29.620        27
29.640        33
29.660        27
29.680        17
29.700        17
29.720        17
29.740        20
29.760        20
29.780        30
29.800        33
29.820        30
29.840        30
29.860        13
29.880        33
29.900        30
29.920        20
29.940        17
29.960        23
29.980        33
30.000        30
30.020        13
30.040        20
30.060        50
30.080        33
30.100        20
30.120        20
30.140        30
30.160        23
30.180        30
30.200        13
30.220        23
30.240        40
30.260        23
30.280        27
30.300        27
30.320        13
30.340        33
30.360        43
30.380        23
30.400        23
30.420        27
30.440        13
30.460        17
30.480        17
30.500        37
30.520        10
30.540        33
30.560        37
30.580        17
30.600        40
30.620        23
30.640        33
30.660        23
30.680        27
30.700        43
30.720        37
30.740        27
30.760        23
30.780        47
30.800        27
30.820        33
30.840        20
30.860        23
30.880        13
30.900        33
30.920        27
30.940        33
30.960        33
30.980        17
31.000        27
31.020        17
31.040        27
31.060        57
31.080        43
31.100        17
31.120        33
31.140        27
31.160        23
31.180        20
31.200        20
31.220        43
31.240        27
31.260        17
31.280        30
31.300        33
31.320        27
31.340        43
31.360        20
31.380        17
31.400        30
31.420        50
31.440        30
31.460        33
31.480        23
31.500        27
31.520        37
31.540        27
31.560        23
31.580        27
31.600        20
31.620        23
31.640        37
31.660        30
31.680        60
31.700        30
31.720        20
31.740         7
31.760        27
31.780        23
31.800        13
31.820        13
31.840        37
31.860        30
31.880         7
31.900        20
31.920        33
31.940        30
31.960        43
31.980        33
32.000        20
32.020        33
32.040        20
32.060        23
32.080        27
32.100        23
32.120        30
32.140        20
32.160        33
32.180        23
32.200        23
32.220        47
32.240        17
32.260        30
32.280        23
32.300        23
32.320        17
32.340        23
32.360        30
32.380        27
32.400        20
32.420        33
32.440        33
32.460        20
32.480        27
32.500        23
32.520        27
32.540        10
32.560        27
32.580        27
32.600        37
32.620        23
32.640        27
32.660        27
32.680        27
32.700        17
32.720        23
32.740        27
32.760        43
32.780        17
32.800        23
32.820        20
32.840        20
32.860        20
32.880        33
32.900        23
32.920        17
32.940        27
32.960        20
32.980        27
33.000        47
33.020        33
33.040        40
33.060        37
33.080        20
33.100        20
33.120        13
33.140        13
33.160        27
33.180        20
33.200        20
33.220        50
33.240        20
33.260        13
33.280        27
33.300        17
33.320        17
33.340        13
33.360         7
33.380        13
33.400        33
33.420        23
33.440        13
33.460        20
33.480        23
33.500        40
33.520        40
33.540        13
33.560        23
33.580        13
33.600        30
33.620        17
33.640        23
33.660        20
33.680        17
33.700        23
33.720        17
33.740        27
33.760        47
33.780        17
33.800        40
33.820        23
33.840        17
33.860        20
33.880        30
33.900        33
33.920        17
33.940        23
33.960        20
33.980        37
34.000        33
34.020        20
34.040        17
34.060        33
34.080        23
34.100        23
34.120        13
34.140        37
34.160        27
34.180        43
34.200        27
34.220        20
34.240        23
34.260        17
34.280        33
34.300         7
34.320        10
34.340        40
34.360        13
34.380        20
34.400        17
34.420        40
34.440         7
34.460        23
34.480        13
34.500        30
34.520        37
34.540        23
34.560        30
34.580        30
34.600        20
34.620        27
34.640        13
34.660        10
34.680        20
34.700        33
34.720        27
34.740        23
34.760        23
34.780        23
34.800        43
34.820        33
34.840        53
34.860        43
34.880        20
34.900        43
34.920        37
34.940        63
34.960        73
34.980        77
35.000       120
35.020       123
35.040       190
35.060       257
35.080       313
35.100       360
35.120       446
35.140       616
35.160       683
35.180       690
35.200       580
35.220       423
35.240       293
35.260       337
35.280       310
35.300       187
35.320        93
35.340        67
35.360        47
35.380        30
35.400        33
35.420        37
35.440        27
35.460        30
35.480        27
35.500        10
35.520        13
35.540        37
35.560         3
35.580        17
35.600        23
35.620        27
35.640        27
35.660        27
35.680        13
35.700        27
35.720        40
35.740        17
35.760        23
35.780        33
35.800        10
35.820        27
35.840        40
35.860        17
35.880        17
35.900        17
35.920        27
35.940        13
35.960        30
35.980        17
36.000        20
36.020        33
36.040        30
36.060        17
36.080        23
36.100        20
36.120        20
36.140        20
36.160        40
36.180        23
36.200        13
36.220        17
36.240        20
36.260        20
36.280        17
36.300        10
36.320        27
36.340        13
36.360        37
36.380        27
36.400        27
36.420        23
36.440        40
36.460        20
36.480        33
36.500        33
36.520        17
36.540        13
36.560        17
36.580        17
36.600        43
36.620        23
36.640        23
36.660        23
36.680        10
36.700        17
36.720        27
36.740        40
36.760        33
36.780        20
36.800        33
36.820        20
36.840        13
36.860        20
36.880        33
36.900        20
36.920        30
36.940        30
36.960        27
36.980        37
37.000        47
37.020        30
37.040        33
37.060        20
37.080        33
37.100        23
37.120        27
37.140        27
37.160        23
37.180        27
37.200        37
37.220        33
37.240        23
37.260        30
37.280        10
37.300        23
37.320        23
37.340        10
37.360        17
37.380        33
37.400        20
37.420        20
37.440        37
37.460        20
37.480        20
37.500        33
37.520        20
37.540        33
37.560        23
37.580        17
37.600        17
37.620        30
37.640        23
37.660        23
37.680        53
37.700       103
37.720       123
37.740       157
37.760       180
37.780       163
37.800       137
37.820       147
37.840       133
37.860       130
37.880        90
37.900        93
37.920        53
37.940        20
37.960        37
37.980        40
38.000        20
38.020        37
38.040        17
38.060        10
38.080        20
38.100        17
38.120        47
38.140        20
38.160        23
38.180         7
38.200        20
38.220        17
38.240        17
38.260        30
38.280        23
38.300        23
38.320         3
38.340        23
38.360        17
38.380        20
38.400        17
38.420        23
38.440        30
38.460        17
38.480        23
38.500        17
38.520        13
38.540        10
38.560        13
38.580        37
38.600        17
38.620        33
38.640        13
38.660        13
38.680        20
38.700        13
38.720        23
38.740        13
38.760        20
38.780        20
38.800        20
38.820        30
38.840        13
38.860        17
38.880        40
38.900        10
38.920        20
38.940        10
38.960        27
38.980        23
39.000        27
39.020        20
39.040        27
39.060        30
39.080        33
39.100        23
39.120        10
39.140        13
39.160        30
39.180        27
39.200        17
39.220        20
39.240        13
39.260        13
39.280        13
39.300        27
39.320         7
39.340        10
39.360        23
39.380        20
39.400        17
39.420         7
39.440         3
39.460        30
39.480        23
39.500        10
39.520        23
39.540        23
39.560        20
39.580        20
39.600         7
39.620        20
39.640        20
39.660        23
39.680        23
39.700        20
39.720        10
39.740        10
39.760        13
39.780        10
39.800        17
39.820        27
39.840        10
39.860        10
39.880        13
39.900        23
39.920        17
39.940        17
39.960        17
39.980        30
40.000         7
40.020        27
40.040        27
40.060         7
40.080         7
40.100         7
40.120        23
40.140        13
40.160        23
40.180        23
40.200        33
40.220         7
40.240        10
40.260        27
40.280        30
40.300        20
40.320        13
40.340        23
40.360        17
40.380        30
40.400        10
40.420        27
40.440        23
40.460        17
40.480        47
40.500        23
40.520         7
40.540        30
40.560        37
40.580        13
40.600        10
40.620         3
40.640        27
40.660        10
40.680        27
40.700        13
40.720        27
40.740        20
40.760        23
40.780        27
40.800        33
40.820        13
40.840        27
40.860        40
40.880        30
40.900        30
40.920        10
40.940        23
40.960        17
40.980        13
41.000        13
41.020        10
41.040        10
41.060         7
41.080        10
41.100        13
41.120        20
41.140        27
41.160        27
41.180        13
41.200        17
41.220        23
41.240        23
41.260        13
41.280        20
41.300        20
41.320        10
41.340        10
41.360        17
41.380        20
41.400        10
41.420        17
41.440        27
41.460        20
41.480        27
41.500        20
41.520        20
41.540        37
41.560        47
41.580        43
41.600        40
41.620        30
41.640        70
41.660        90
41.680        90
41.700        87
41.720        67
41.740        50
41.760        60
41.780        57
41.800        53
41.820        40
41.840        57
41.860        20
41.880        17
41.900        30
41.920        30
41.940        13
41.960        13
41.980        30
42.000        20
42.020        23
42.040        10
42.060         7
42.080        23
42.100        13
42.120         7
42.140        23
42.160        27
42.180        10
42.200        13
42.220        17
42.240        13
42.260        17
42.280         0
42.300        13
42.320        30
42.340         7
42.360        13
42.380        20
42.400        13
42.420        20
42.440        13
42.460         7
42.480        17
42.500        23
42.520        17
42.540        20
42.560        27
42.580        10
42.600        20
42.620        30
42.640        20
42.660        10
42.680        23
42.700        33
42.720        17
42.740        10
42.760        20
42.780        10
42.800        20
42.820        30
42.840        23
42.860        23
42.880        30
42.900        20
42.920        13
42.940        13
42.960         3
42.980        17
43.000        27
43.020        13
43.040        30
43.060        17
43.080        20
43.100        20
43.120        30
43.140        37
43.160        50
43.180        77
43.200        43
43.220       103
43.240       107
43.260       180
43.280       147
43.300       253
43.320       403
43.340       536
43.360       653
43.380       510
43.400       426
43.420       380
43.440       320
43.460       293
43.480       317
43.500       323
43.520       203
43.540       130
43.560        87
43.580        53
43.600        33
43.620        13
43.640        27
43.660        10
43.680        10
43.700        20
43.720        20
43.740        23
43.760        17
43.780        20
43.800        20
43.820        23
43.840        20
43.860        23
43.880        20
43.900        13
43.920        33
43.940        10
43.960        17
43.980        13
44.000        23
44.020        10
44.040        17
44.060        13
44.080        17
44.100        23
44.120        20
44.140        17
44.160        27
44.180        13
44.200        13
44.220        20
44.240         7
44.260        23
44.280        10
44.300         7
44.320        30
44.340        10
44.360         7
44.380        20
44.400        13
44.420         7
44.440         7
44.460        23
44.480        10
44.500        13
44.520        20
44.540        23
44.560         7
44.580        23
44.600        13
44.620        30
44.640        20
44.660        17
44.680         7
44.700        27
44.720        23
44.740        20
44.760        37
44.780        13
44.800        10
44.820        27
44.840         7
44.860        10
44.880         3
44.900        23
44.920         7
44.940        20
44.960        27
44.980        23
45.000        17
45.020        13
45.040        37
45.060        17
45.080        13
45.100        23
45.120        23
45.140        33
45.160        13
45.180        23
45.200        17
45.220         7
45.240        23
45.260        33
45.280         3
45.300        20
45.320         7
45.340        13
45.360        13
45.380        13
45.400         3
45.420        13
45.440        13
45.460        33
45.480         3
45.500        13
45.520        17
45.540        23
45.560        17
45.580        17
45.600        17
45.620        23
45.640        13
45.660        17
45.680        10
45.700        23
45.720        13
45.740        37
45.760        13
45.780        13
45.800         7
45.820        13
45.840        27
45.860        13
45.880         7
45.900         7
45.920         7
45.940        13
45.960         7
45.980        23
46.000         7
46.020         7
46.040        23
46.060        20
46.080        30
46.100        17
46.120        17
46.140        17
46.160        17
46.180        23
46.200        30
46.220        27
46.240        30
46.260        23
46.280        17
46.300        13
46.320        17
46.340        17
46.360        17
46.380        23
46.400        20
46.420        37
46.440        10
46.460         7
46.480        20
46.500         7
46.520         7
46.540        20
46.560        20
46.580         3
46.600        13
46.620        10
46.640        17
46.660        17
46.680        10
46.700        10
46.720         7
46.740        17
46.760        17
46.780        37
46.800        13
46.820        23
46.840        13
46.860         7
46.880        20
46.900        13
46.920        10
46.940        10
46.960        20
46.980        13
47.000        13
47.020        20
47.040        13
47.060        10
47.080        17
47.100        10
47.120        13
47.140        10
47.160        13
47.180        20
47.200        17
47.220        23
47.240        10
47.260         7
47.280        23
47.300        23
47.320        20
47.340         3
47.360        13
47.380        30
47.400        30
47.420        17
47.440        13
47.460         3
47.480        10
47.500        20
47.520         7
47.540        10
47.560        13
47.580        13
47.600        17
47.620        10
47.640        17
47.660        10
47.680        13
47.700        20
47.720        30
47.740        10
47.760        20
47.780        13
47.800        13
47.820         0
47.840        10
47.860        17
47.880        17
47.900        10
47.920        10
47.940        30
47.960        30
47.980        10
48.000        30
48.020        13
48.040        17
48.060        23
48.080        10
48.100        10
48.120        17
48.140        23
48.160        20
48.180        10
48.200        13
48.220        17
48.240        17
48.260         3
48.280        27
48.300        30
48.320         7
48.340         7
48.360         7
48.380         7
48.400        17
48.420        13
48.440        10
48.460        13
48.480        17
48.500        10
48.520        17
48.540        10
48.560        10
48.580         7
48.600        23
48.620        10
48.640        13
48.660         7
48.680        10
48.700         7
48.720        10
48.740        27
48.760        17
48.780        20
48.800         7
48.820         7
48.840        27
48.860         7
48.880        27
48.900         7
48.920        23
48.940        13
48.960         0
48.980        17
49.000        13
49.020        17
49.040        13
49.060        10
49.080        13
49.100         7
49.120        13
49.140         7
49.160        17
49.180        10
49.200        17
49.220        27
49.240        13
49.260        10
49.280        13
49.300        20
49.320        23
49.340        10
49.360        13
49.380        23
49.400         7
49.420        13
49.440        20
49.460        13
49.480        13
49.500        10
49.520         7
49.540        27
49.560        23
49.580        27
49.600        10
49.620         3
49.640         7
49.660        20
49.680         7
49.700         7
49.720        17
49.740        10
49.760        23
49.780        10
49.800         7
49.820        10
49.840        10
49.860        20
49.880        20
49.900         7
49.920        17
49.940         7
49.960        23
49.980        23
50.000         7
50.020        13
50.040         7
50.060        13
50.080        17
50.100        10
50.120        23
50.140        10
50.160         7
50.180        20
50.200        20
50.220        23
50.240        13
50.260        13
50.280         7
50.300        10
50.320        10
50.340        30
50.360        13
50.380        10
50.400         3
50.420        17
50.440        33
50.460        17
50.480         3
50.500        20
50.520        23
50.540        13
50.560        17
50.580        13
50.600        13
50.620        17
50.640        20
50.660         7
50.680        13
50.700        13
50.720        17
50.740         3
50.760        17
50.780        10
50.800         3
50.820        13
50.840        20
50.860        10
50.880        10
50.900        20
50.920        20
50.940        23
50.960         3
50.980        20
51.000        10
51.020        17
51.040         0
51.060        10
51.080        13
51.100        20
51.120        13
51.140         3
51.160        23
51.180         3
51.200         7
51.220        23
51.240         7
51.260         7
51.280        13
51.300        17
51.320         3
51.340        20
51.360         7
51.380        17
51.400        17
51.420         3
51.440        23
51.460        17
51.480        23
51.500        13
51.520        13
51.540        20
51.560        20
51.580        30
51.600         0
51.620        27
51.640         3
51.660        13
51.680         7
51.700        20
51.720         3
51.740        10
51.760        10
51.780        23
51.800         7
51.820         3
51.840        30
51.860        23
51.880        13
51.900        23
51.920        10
51.940         3
51.960         7
51.980        17
52.000        10
52.020         7
52.040        10
52.060         7
52.080        17
52.100         3
52.120        17
52.140        10
52.160        23
52.180        23
52.200         3
52.220        10
52.240        10
52.260        10
52.280        23
52.300        13
52.320        33
52.340         3
52.360        27
52.380        23
52.400        33
52.420        23
52.440        47
52.460        80
52.480        87
52.500       143
52.520       207
52.540       180
52.560       193
52.580       263
52.600       267
52.620       223
52.640       127
52.660       150
52.680       147
52.700        87
52.720       147
52.740       117
52.760        50
52.780        47
52.800        33
52.820        27
52.840        20
52.860        23
52.880        23
52.900        20
52.920        20
52.940        23
52.960        13
52.980        23
53.000        20
53.020         3
53.040        17
53.060        13
53.080        13
53.100         3
53.120         0
53.140        20
53.160        37
53.180        27
53.200        17
53.220        13
53.240        30
53.260        13
53.280        10
53.300        10
53.320         7
53.340        10
53.360        20
53.380         3
53.400         3
53.420        10
53.440        10
53.460        17
53.480        23
53.500        10
53.520        17
53.540        13
53.560        10
53.580         0
53.600        13
53.620        17
53.640         3
53.660         0
53.680        13
53.700        10
53.720        10
53.740         7
53.760         0
53.780         3
53.800        10
53.820        10
53.840        10
53.860         3
53.880        17
53.900        17
53.920         7
53.940        17
53.960        10
53.980        10
54.000         7
54.020        20
54.040         3
54.060        30
54.080         7
54.100        10
54.120         7
54.140         7
54.160        23
54.180        13
54.200        20
54.220        20
54.240        10
54.260        13
54.280        17
54.300        10
54.320         7
54.340        13
54.360        20
54.380         3
54.400        23
54.420        20
54.440         0
54.460        13
54.480         7
54.500        23
54.520         3
54.540         7
54.560         0
54.580        20
54.600        20
54.620        13
54.640        13
54.660         7
54.680        10
54.700         3
54.720        10
54.740        17
54.760        10
54.780        13
54.800         7
54.820        13
54.840         7
54.860        33
54.880        23
54.900        20
54.920         7
54.940        13
54.960        17
54.980        10
55.000        10
55.020         3
55.040         7
55.060        10
55.080        10
55.100         3
55.120        10
55.140        17
55.160        13
55.180        17
55.200        10
55.220        13
55.240         7
55.260        20
55.280        20
55.300        10
55.320        10
55.340         3
55.360        27
55.380         3
55.400        27
55.420         3
55.440        10
55.460        10
55.480        20
55.500        17
55.520         7
55.540         7
55.560        10
55.580        17
55.600        13
55.620         7
55.640        17
55.660        23
55.680        13
55.700        10
55.720        17
55.740        20
55.760        27
55.780        20
55.800        27
55.820        17
55.840        13
55.860        13
55.880        13
55.900        13
55.920         7
55.940        20
55.960        37
55.980        23
56.000        10
56.020        20
56.040        10
56.060        13
56.080        20
56.100         7
56.120        23
56.140        27
56.160        20
56.180        20
56.200        17
56.220         0
56.240        30
56.260        17
56.280        13
56.300        17
56.320        23
56.340        20
56.360        17
56.380        10
56.400         3
56.420        10
56.440        30
56.460         0
56.480         7
56.500         0
56.520        20
56.540        23
56.560        10
56.580        10
56.600        10
56.620         7
56.640        20
56.660        10
56.680        13
56.700         7
56.720        27
56.740        20
56.760        10
56.780        13
56.800        17
56.820        13
56.840        27
56.860        20
56.880        10
56.900         7
56.920         7
56.940        17
56.960        30
56.980        23
57.000        13
57.020         3
57.040        23
57.060        40
57.080        17
57.100        27
57.120        20
57.140        10
57.160        13
57.180        10
57.200        23
57.220        30
57.240        37
57.260        40
57.280        40
57.300        53
57.320        60
57.340        80
57.360        83
57.380        90
57.400       160
57.420       177
57.440       207
57.460       426
57.480       706
57.500       996
57.520      1000
57.540       863
57.560       646
57.580       440
57.600       230
57.620       290
57.640       350
57.660       466
57.680       556
57.700       433
57.720       290
57.740       173
57.760        90
57.780        80
57.800        53
57.820        67
57.840        37
57.860        30
57.880        13
57.900        23
57.920        23
57.940        20
57.960         7
57.980        13
58.000        13
58.020        10
58.040        20
58.060        20
58.080        23
58.100        13
58.120        13
58.140         3
58.160        23
58.180        17
58.200        23
58.220        20
58.240         7
58.260        20
58.280        13
58.300        17
58.320        13
58.340        10
58.360        10
58.380        13
58.400         3
58.420        10
58.440        23
58.460        17
58.480        10
58.500        17
58.520        20
58.540        23
58.560        17
58.580        20
58.600        13
58.620        13
58.640        10
58.660         7
58.680        23
58.700        20
58.720         3
58.740        17
58.760        13
58.780         3
58.800        17
58.820        10
58.840        13
58.860        10
58.880        17
58.900        10
58.920        30
58.940        13
58.960         7
58.980        30
59.000        10
59.020         3
59.040        13
59.060        10
59.080        13
59.100        17
59.120        27
59.140        17
59.160        17
59.180         3
59.200        13
59.220         3
59.240         0
59.260        13
59.280        13
59.300        20
59.320        17
59.340        23
59.360        13
59.380        17
59.400        10
59.420        20
59.440        10
59.460        17
59.480        17
59.500        23
59.520        13
59.540        30
59.560        23
59.580        10
59.600         3
59.620        23
59.640        20
59.660        13
59.680        10
59.700        17
59.720        27
59.740        20
59.760         0
59.780         0
59.800         0
59.820         0
59.840         0
59.860         0
59.880         0
59.900         0
59.920         0
59.940         0
59.960         0
59.980         0
60.000         0
