20.000         0
20.020         0
20.040        30
20.060        23
20.080        57
20.100        40
20.120        37
20.140        50
20.160        40
20.180        57
20.200        37
20.220        47
20.240        33
20.260        60
20.280        53
20.300        67
20.320        57
20.340        37
20.360        57
20.380        43
20.400        33
20.420        57
20.440        33
20.460        50
20.480        37
20.500        47
20.520        47
20.540        47
20.560        53
20.580        47
20.600        40
20.620        57
20.640        37
20.660        37
20.680        50
20.700        40
20.720        37
20.740        57
20.760        33
20.780        30
20.800        40
20.820        17
20.840        53
20.860        33
20.880        40
20.900        33
20.920        37
20.940        20
20.960        43
20.980        60
21.000        60
21.020        30
21.040        67
21.060        47
21.080        57
21.100        63
21.120        60
21.140        53
21.160        50
21.180        57
21.200        43
21.220        33
21.240        40
21.260        20
21.280        40
21.300        70
21.320        23
21.340        57
21.360        57
21.380        60
21.400        43
21.420        40
21.440        43
21.460        47
21.480        63
21.500        43
21.520        53
21.540        40
21.560        60
21.580        43
21.600        53
21.620        57
21.640        37
21.660        60
21.680        57
21.700        70
21.720        60
21.740        77
21.760        57
21.780        33
21.800        27
21.820        33
21.840        37
21.860        47
21.880        53
21.900        33
21.920        53
21.940        33
21.960        23
21.980        30
22.000        43
22.020        47
22.040        43
22.060        27
22.080        57
22.100        33
22.120        27
22.140        27
22.160        37
22.180        27
22.200        33
22.220        77
22.240        40
22.260        23
22.280        40
22.300        37
22.320        50
22.340        30
22.360        30
22.380        43
22.400        27
22.420        30
22.440        30
22.460        43
22.480        23
22.500        37
22.520        20
22.540        30
22.560        63
22.580        43
22.600        40
22.620        33
22.640        40
22.660        50
22.680        37
22.700        20
22.720        27
22.740        30
22.760        30
22.780        20
22.800        23
22.820        40
22.840        43
22.860        40
22.880        53
22.900        40
22.920        53
22.940        33
22.960        37
22.980        37
23.000        53
23.020        17
23.040        40
23.060        40
23.080        47
23.100        43
23.120        43
23.140        27
23.160        60
23.180        27
23.200        27
23.220        43
23.240        40
23.260        23
23.280        57
23.300        27
23.320        30
23.340        43
23.360        27
23.380        23
23.400        23
23.420        43
23.440        43
23.460        27
23.480        27
23.500        20
23.520        47
23.540        43
23.560        47
23.580        23
23.600        17
23.620        47
23.640        47
23.660        33
23.680        47
23.700        40
23.720        33
23.740        43
23.760        40
23.780        23
23.800        50
23.820        27
23.840        33
23.860        23
23.880        13
23.900        43
23.920        37
23.940        27
23.960        33
23.980        37
24.000        23
24.020        43
24.040        37
24.060        27
24.080        27
24.100        43
24.120        23
24.140        43
24.160        37
24.180        37
24.200        27
24.220        10
24.240        40
24.260        40
24.280        37
24.300        30
24.320        50
24.340        37
24.360        37
24.380        30
24.400        30
24.420        17
24.440        30
24.460        47
24.480        20
24.500        23
24.520        40
24.540        40
24.560        50
24.580        47
24.600        43
24.620        40
24.640        27
24.660        50
24.680        53
24.700        33
24.720        30
24.740        47
24.760        27
24.780        40
24.800        33
24.820        17
24.840        47
24.860        47
24.880        57
24.900        13
24.920        33
24.940        20
24.960        43
24.980        20
25.000        23
25.020        30
25.040        27
25.060        33
25.080        27
25.100        27
25.120        30
25.140        40
25.160        17
25.180        33
25.200        33
25.220        43
25.240        20
25.260        57
25.280        40
25.300        37
25.320        40
25.340        43
25.360        43
25.380        50
25.400        33
25.420        53
25.440        30
25.460        40
25.480        47
25.500        47
25.520        57
25.540        30
25.560        40
25.580        30
25.600        20
25.620        40
25.640        33
25.660        30
25.680        50
25.700        40
25.720        40
25.740        43
25.760        30
25.780        17
25.800        27
25.820        40
25.840        20
25.860        33
25.880        30
25.900        20
25.920        40
25.940        47
25.960        13
25.980        30
26.000        37
26.020        40
26.040        20
26.060        17
26.080        43
26.100        23
26.120        37
26.140        23
26.160        37
26.180        40
26.200        33
26.220        30
26.240        33
26.260        30
26.280        40
26.300        40
26.320        33
26.340        63
26.360        50
26.380        40
26.400        23
26.420        23
26.440        13
26.460        33
26.480        40
26.500        27
26.520        37
26.540        40
26.560        40
26.580        20
26.600        57
26.620        37
26.640        43
26.660        33
26.680        30
26.700        13
26.720        47
26.740        30
26.760        23
26.780        17
26.800        37
26.820        33
26.840        43
26.860        30
26.880        37
26.900        47
26.920        43
26.940        13
26.960        27
26.980        60
27.000        33
27.020        33
27.040        30
27.060        30
27.080        33
27.100        40
27.120        50
27.140        33
27.160        30
27.180        13
27.200        33
27.220        23
27.240        30
27.260        27
27.280        33
27.300        20
27.320        13
27.340        27
27.360        30
27.380        50
27.400        33
27.420        13
27.440        30
27.460        30
27.480        37
27.500        40
27.520        33
27.540        17
27.560        57
27.580        40
27.600        30
27.620        33
27.640        37
27.660        50
27.680        30
27.700        43
27.720        17
27.740        57
27.760        30
27.780        37
27.800        23
27.820        50
27.840        40
27.860        33
27.880        27
27.900        37
27.920        17
27.940        33
27.960        40
27.980        50
28.000        40
28.020        53
28.040        53
28.060        27
28.080        47
28.100        33
28.120        33
28.140        40
28.160        43
28.180        37
28.200        30
28.220        40
28.240        37
28.260        33
28.280        43
28.300        20
28.320        27
28.340        13
28.360        30
28.380        23
28.400        37
28.420        40
28.440        33
28.460        20
28.480        47
28.500        23
28.520        33
28.540        30
28.560        30
28.580        30
28.600        33
28.620        33
28.640        20
28.660        53
28.680        23
28.700        17
28.720        50
28.740        30
28.760        30
28.780        43
28.800        23
28.820        27
28.840        50
28.860        43
28.880        37
28.900        23
28.920        43
28.940        50
28.960        30
28.980        43
29.000        33
29.020        37
29.040        53
29.060        47
29.080        27
29.100        17
29.120        27
29.140        23
29.160        40
29.180        33
29.200        30
29.220        20
29.240        27
29.260        47
29.280        67
29.300        53
29.320        53
29.340        47
29.360        23
29.380        17
29.400        43
29.420        33
29.440        30
29.460        33
29.480        20
29.500        30
29.520        37
29.540        27
29.560        50
29.580        40
29.600        40
29.620        43
29.640        23
29.660        27
29.680        20
29.700        23
29.720        27
29.740        43
29.760        43
29.780        23
29.800        43
29.820        23
29.840        43
29.860        20
29.880        37
29.900        50
29.920        23
29.940        53
29.960        30
29.980        23
30.000        37
30.020        27
30.040        43
30.060        40
30.080        50
30.100        37
30.120        40
30.140        33
30.160        30
30.180        27
30.200        53
30.220        63
30.240        40
30.260        50
30.280        47
30.300        67
30.320        40
30.340        53
30.360        33
30.380        43
30.400        63
30.420        73
30.440        47
30.460        60
30.480        70
30.500       107
30.520        90
30.540       137
30.560       160
30.580       193
30.600       297
30.620       300
30.640       456
30.660       500
30.680       756
30.700       826
30.720       763
30.740       736
30.760       480
30.780       433
30.800       353
30.820       187
30.840       193
30.860       120
30.880        97
30.900        90
30.920        63
30.940        33
30.960        70
30.980        43
31.000        73
31.020        27
31.040        30
31.060        20
31.080        57
31.100        67
31.120        40
31.140        43
31.160        50
31.180        63
31.200        50
31.220        57
31.240        40
31.260        47
31.280        33
31.300        43
31.320        37
31.340        40
31.360        47
31.380        37
31.400        30
31.420        57
31.440        27
31.460        30
31.480        30
31.500        20
31.520        33
31.540        17
31.560        53
31.580        27
31.600        27
31.620        40
31.640        40
31.660        63
31.680        50
31.700        30
31.720        20
31.740        23
31.760        17
31.780        23
31.800        40
31.820        43
31.840        47
31.860        33
31.880        23
31.900        33
31.920        53
31.940        20
31.960        33
31.980        33
32.000        37
32.020        23
32.040        30
32.060        47
32.080        37
32.100        37
32.120        23
32.140        27
32.160        27
32.180        30
32.200        20
32.220        30
32.240        37
32.260        13
32.280        27
32.300        47
32.320        23
32.340        37
32.360        33
32.380        37
32.400        37
32.420        27
32.440        23
32.460        40
32.480        33
32.500        37
32.520        20
32.540        30
32.560        43
32.580        40
32.600        20
32.620        27
32.640        20
32.660        23
32.680        33
32.700        40
32.720        40
32.740        23
32.760        23
32.780        27
32.800        33
32.820        30
32.840        43
32.860        33
32.880        20
32.900        33
32.920        27
32.940        27
32.960        20
32.980        37
33.000        27
33.020        13
33.040        33
33.060        20
33.080        27
33.100        23
33.120        17
33.140        23
33.160        27
33.180        33
33.200        30
33.220        43
33.240        30
33.260        40
33.280        33
33.300        23
33.320        20
33.340        20
33.360        20
33.380        33
33.400        13
33.420        30
33.440        43
33.460        13
33.480        27
33.500        40
33.520        20
33.540        30
33.560        23
33.580        13
33.600        23
33.620        43
33.640        27
33.660        27
33.680        23
33.700        37
33.720        10
33.740        13
33.760        30
33.780        37
33.800        23
33.820        53
33.840        20
33.860        30
33.880        27
33.900        43
33.920        27
33.940        20
33.960        27
33.980        37
34.000        37
34.020        37
34.040        60
34.060        33
34.080        30
34.100        23
34.120        40
34.140        23
34.160        60
34.180        47
34.200        30
34.220        40
34.240        23
34.260        27
34.280        27
34.300        43
34.320        23
34.340        23
34.360        13
34.380        30
34.400        20
34.420        33
34.440        23
34.460        23
34.480        37
34.500        20
34.520        43
34.540        23
34.560        33
34.580        40
34.600         3
34.620        27
34.640        30
34.660        17
34.680        17
34.700        50
34.720        37
34.740        40
34.760        60
34.780         7
34.800        23
34.820        40
34.840        37
34.860        23
34.880        17
34.900        20
34.920        47
34.940        27
34.960        37
34.980        30
35.000        30
35.020        13
35.040        23
35.060        63
35.080        50
35.100        63
35.120        33
35.140        60
35.160        63
35.180        63
35.200        43
35.220        43
35.240        43
35.260        50
35.280        47
35.300        17
35.320        37
35.340        20
35.360        17
35.380        20
35.400        33
35.420        33
35.440        13
35.460        33
35.480        30
35.500        27
35.520        20
35.540        37
35.560        33
35.580        17
35.600        13
35.620        27
35.640        17
35.660        33
35.680        20
35.700        40
35.720        27
35.740         7
35.760        20
35.780        17
35.800        23
35.820        27
35.840        60
35.860        23
35.880        37
35.900        27
35.920        33
35.940        20
35.960        23
35.980        20
36.000        23
36.020        23
36.040        20
36.060        20
36.080        33
36.100        33
36.120        33
36.140        23
36.160        10
36.180        23
36.200        37
36.220        30
36.240        20
36.260        23
36.280        17
36.300        27
36.320        33
36.340        50
36.360        17
36.380        27
36.400        37
36.420        20
36.440        30
36.460        30
36.480        23
36.500        27
36.520        20
36.540        27
36.560        40
36.580        40
36.600        13
36.620        17
36.640        37
36.660        37
36.680        37
36.700        30
36.720        17
36.740        37
36.760        27
36.780        33
36.800        53
36.820        27
36.840        23
36.860        40
36.880        43
36.900        20
36.920        57
36.940        40
36.960        20
36.980        40
37.000        37
37.020        33
37.040        33
37.060        27
37.080        30
37.100        13
37.120        47
37.140        20
37.160        43
37.180        20
37.200        53
37.220        27
37.240        43
37.260        20
37.280        40
37.300        27
37.320        50
37.340        33
37.360        40
37.380        20
37.400        37
37.420        43
37.440        40
37.460        57
37.480        53
37.500        37
37.520        47
37.540        53
37.560        57
37.580        57
37.600        70
37.620        77
37.640        87
37.660       123
37.680        93
37.700       153
37.720       163
37.740       260
37.760       320
37.780       456
37.800       523
37.820       746
37.840       943
37.860      1173
37.880      1379
37.900      1373
37.920      1233
37.940       920
37.960       883
37.980       703
38.000       680
38.020       563
38.040       400
38.060       190
38.080       170
38.100        67
38.120        90
38.140        83
38.160        53
38.180        63
38.200        50
38.220        47
38.240        60
38.260        67
38.280        53
38.300        67
38.320        60
38.340        53
38.360        47
38.380        33
38.400        43
38.420        37
38.440        37
38.460        33
38.480        33
38.500        47
38.520        20
38.540        37
38.560        13
38.580        37
38.600        47
38.620        27
38.640        53
38.660        30
38.680        20
38.700        50
38.720        30
38.740        30
38.760        47
38.780        43
38.800        20
38.820        37
38.840        33
38.860        33
38.880        17
38.900        33
38.920        30
38.940        30
38.960        43
38.980        43
39.000        43
39.020        50
39.040        27
39.060        43
39.080        20
39.100        37
39.120        23
39.140        50
39.160        30
39.180        33
39.200        30
39.220        20
39.240        10
39.260        20
39.280        43
39.300        37
39.320        43
39.340        37
39.360        17
39.380        30
39.400        33
39.420        27
39.440        23
39.460        13
39.480        20
39.500        37
39.520        27
39.540        33
39.560        50
39.580        30
39.600        27
39.620        23
39.640        37
39.660        27
39.680        20
39.700        33
39.720        47
39.740        23
39.760        47
39.780        47
39.800        33
39.820        30
39.840        37
39.860        27
39.880        13
39.900        27
39.920        37
39.940        27
39.960        30
39.980        10
40.000        20
40.020        13
40.040        33
40.060        30
40.080        37
40.100        53
40.120        40
40.140        33
40.160        23
40.180        17
40.200        20
40.220        43
40.240        27
40.260        23
40.280        13
40.300        17
40.320        43
40.340        23
40.360        30
40.380        30
40.400        43
40.420        23
40.440        20
40.460        23
40.480        43
40.500        23
40.520        17
40.540        20
40.560        43
40.580        37
40.600        17
40.620        30
40.640        30
40.660        20
40.680        33
40.700        17
40.720        20
40.740        30
40.760        37
40.780        33
40.800        37
40.820        17
40.840        33
40.860        23
40.880        23
40.900        17
40.920        30
40.940        10
40.960        17
40.980        33
41.000        23
41.020        33
41.040        10
41.060        30
41.080        20
41.100        27
41.120        17
41.140         7
41.160        27
41.180        13
41.200        20
41.220        20
41.240        30
41.260        27
41.280        13
41.300        20
41.320        10
41.340        17
41.360        30
41.380        40
41.400        30
41.420        33
41.440        17
41.460        17
41.480        23
41.500        27
41.520        33
41.540        13
41.560        33
41.580        30
41.600        27
41.620        27
41.640        27
41.660        23
41.680        33
41.700        23
41.720        20
41.740        33
41.760        17
41.780        33
41.800        33
41.820        20
41.840        13
41.860        17
41.880        50
41.900        27
41.920        30
41.940        30
41.960        27
41.980        37
42.000        23
42.020        17
42.040        13
42.060        27
42.080        23
42.100        20
42.120        13
42.140        33
42.160        23
42.180        33
42.200        17
42.220        43
42.240        30
42.260        37
42.280        20
42.300        33
42.320        27
42.340        20
42.360        30
42.380        17
42.400        13
42.420        23
42.440        50
42.460        33
42.480         3
42.500        23
42.520        13
42.540        23
42.560        50
42.580        23
42.600        17
42.620        20
42.640        20
42.660        20
42.680        30
42.700        37
42.720        57
42.740        30
42.760        40
42.780        27
42.800        20
42.820        33
42.840        27
42.860        33
42.880         7
42.900        27
42.920        17
42.940        30
42.960        23
42.980        37
43.000        23
43.020        23
43.040        27
43.060        20
43.080        17
43.100        13
43.120        27
43.140        33
43.160        23
43.180        30
43.200        27
43.220        47
43.240        40
43.260        27
43.280        13
43.300        40
43.320        53
43.340        47
43.360        70
43.380        67
43.400        97
43.420        70
43.440        73
43.460        50
43.480        63
43.500        33
43.520        63
43.540        37
43.560        43
43.580        47
43.600        30
43.620        17
43.640        27
43.660        67
43.680        50
43.700        57
43.720        57
43.740        57
43.760        70
43.780        50
43.800        80
43.820       120
43.840       140
43.860       133
43.880       190
43.900       180
43.920       240
43.940       287
43.960       333
43.980       277
44.000       390
44.020       433
44.040       360
44.060       303
44.080       263
44.100       307
44.120       260
44.140       200
44.160       237
44.180       187
44.200       147
44.220       113
44.240       133
44.260        83
44.280        60
44.300        53
44.320        90
44.340        67
44.360        43
44.380        33
44.400        33
44.420        30
44.440        53
44.460        30
44.480        20
44.500        37
44.520        27
44.540        47
44.560        33
44.580        50
44.600        37
44.620         7
44.640        53
44.660        47
44.680        30
44.700        17
44.720        23
44.740        37
44.760        27
44.780        30
44.800        20
44.820        37
44.840        13
44.860        33
44.880        30
44.900        17
44.920        23
44.940        17
44.960        20
44.980        37
45.000        30
45.020        20
45.040        17
45.060        27
45.080        17
45.100        30
45.120        13
45.140        30
45.160        37
45.180        20
45.200        43
45.220        20
45.240        17
45.260        13
45.280        17
45.300        50
45.320        33
45.340        33
45.360        50
45.380        23
45.400         7
45.420        30
45.440        17
45.460         7
45.480        30
45.500        30
45.520        30
45.540        23
45.560        27
45.580        27
45.600        17
45.620        33
45.640        27
45.660        13
45.680        10
45.700        23
45.720        17
45.740        20
45.760        20
45.780        20
45.800        30
45.820        13
45.840        13
45.860        40
45.880        33
45.900        20
45.920        27
45.940        30
45.960        20
45.980        13
46.000        20
46.020         3
46.040        20
46.060        17
46.080        30
46.100        13
46.120        27
46.140        17
46.160        17
46.180        17
46.200        33
46.220        13
46.240        37
46.260        23
46.280        13
46.300        20
46.320        17
46.340        10
46.360        37
46.380        13
46.400        23
46.420        13
46.440        20
46.460        13
46.480        13
46.500        23
46.520        13
46.540        27
46.560        13
46.580        17
46.600        27
46.620        10
46.640        23
46.660        10
46.680        17
46.700        20
46.720        23
46.740        13
46.760        13
46.780        20
46.800        20
46.820        20
46.840        23
46.860        10
46.880        20
46.900        20
46.920        13
46.940        10
46.960        20
46.980        10
47.000        23
47.020        17
47.040        23
47.060        27
47.080        27
47.100        27
47.120        23
47.140        17
47.160         7
47.180        30
47.200        33
47.220        23
47.240        20
47.260        27
47.280        10
47.300        47
47.320        23
47.340        20
47.360        17
47.380        27
47.400        37
47.420        17
47.440        27
47.460        33
47.480        20
47.500        27
47.520        20
47.540        33
47.560        30
47.580        10
47.600        13
47.620        37
47.640        27
47.660        27
47.680        37
47.700        13
47.720        20
47.740        13
47.760        27
47.780        13
47.800        30
47.820        13
47.840        17
47.860        23
47.880        17
47.900        23
47.920        27
47.940        10
47.960        27
47.980        13
48.000        30
48.020        30
48.040         7
48.060        27
48.080        20
48.100        30
48.120        20
48.140        20
48.160        10
48.180        23
48.200        10
48.220        23
48.240         0
48.260        30
48.280        23
48.300        27
48.320        33
48.340        10
48.360        27
48.380        40
48.400        23
48.420        17
48.440        30
48.460        27
48.480        10
48.500        17
48.520        23
48.540        10
48.560        13
48.580        17
48.600        23
48.620        27
48.640        13
48.660        27
48.680        17
48.700        10
48.720        20
48.740        10
48.760        23
48.780        17
48.800        13
48.820        10
48.840        30
48.860        20
48.880        20
48.900        33
48.920        10
48.940        27
48.960        27
48.980        13
49.000        13
49.020        37
49.040        23
49.060        17
49.080        30
49.100        17
49.120        27
49.140        20
49.160        17
49.180        27
49.200        30
49.220        20
49.240        20
49.260        30
49.280        20
49.300        27
49.320        30
49.340        20
49.360        23
49.380        27
49.400        23
49.420        23
49.440        23
49.460        10
49.480        10
49.500        10
49.520         7
49.540         7
49.560        20
49.580        30
49.600        20
49.620        10
49.640        33
49.660        30
49.680        37
49.700        13
49.720        23
49.740        17
49.760        10
49.780        17
49.800        23
49.820        17
49.840        20
49.860        13
49.880         7
49.900        47
49.920         7
49.940        27
49.960        13
49.980        13
50.000        33
50.020        33
50.040        20
50.060        13
50.080        10
50.100        23
50.120        20
50.140        20
50.160        23
50.180        10
50.200        20
50.220        13
50.240        13
50.260        10
50.280        13
50.300        23
50.320        27
50.340        13
50.360        23
50.380        27
50.400        10
50.420        23
50.440        23
50.460        20
50.480        13
50.500        20
50.520        23
50.540        27
50.560         3
50.580        30
50.600        10
50.620        17
50.640        20
50.660        20
50.680        13
50.700        20
50.720        17
50.740        17
50.760        17
50.780        23
50.800        17
50.820         7
50.840        37
50.860        17
50.880        17
50.900        77
50.920        10
50.940        30
50.960        33
50.980        37
51.000        27
51.020        10
51.040        23
51.060        17
51.080        13
51.100        10
51.120        23
51.140        27
51.160        13
51.180        23
51.200        10
51.220        33
51.240        20
51.260        23
51.280        10
51.300         3
51.320         7
51.340        17
51.360        17
51.380        20
51.400        10
51.420        10
51.440        20
51.460        17
51.480        27
51.500        13
51.520        10
51.540        20
51.560        13
51.580        17
51.600        40
51.620        27
51.640        20
51.660        23
51.680        27
51.700        37
51.720        17
51.740        10
51.760        10
51.780        23
51.800        37
51.820        20
51.840        23
51.860        20
51.880         7
51.900        27
51.920        13
51.940        13
51.960        23
51.980        23
52.000        13
52.020        10
52.040        10
52.060        10
52.080        50
52.100        27
52.120        17
52.140        13
52.160        13
52.180        17
52.200         3
52.220        20
52.240        27
52.260        13
52.280        10
52.300        10
52.320        13
52.340        23
52.360        10
52.380        17
52.400        13
52.420        30
52.440        17
52.460        13
52.480        17
52.500        43
52.520        40
52.540        73
52.560        90
52.580        97
52.600       120
52.620        87
52.640        57
52.660        47
52.680        60
52.700        73
52.720        63
52.740        53
52.760        77
52.780        40
52.800        20
52.820        23
52.840        20
52.860        20
52.880        23
52.900        33
52.920        20
52.940        17
52.960        17
52.980         7
53.000        17
53.020        27
53.040        10
53.060        10
53.080        23
53.100        17
53.120        23
53.140        23
53.160        33
53.180        23
53.200        20
53.220         3
53.240        43
53.260        20
53.280        13
53.300        10
53.320        20
53.340        13
53.360        10
53.380        17
53.400        20
53.420        27
53.440        13
53.460        17
53.480        10
53.500        10
53.520        13
53.540         7
53.560        13
53.580        17
53.600        20
53.620         7
53.640        20
53.660        30
53.680         3
53.700         3
53.720        13
53.740        10
53.760         7
53.780        13
53.800        17
53.820        20
53.840        10
53.860        13
53.880        23
53.900        10
53.920        13
53.940        20
53.960         3
53.980        13
54.000        23
54.020        10
54.040         7
54.060        20
54.080        30
54.100        17
54.120        13
54.140        33
54.160        17
54.180        13
54.200        13
54.220        23
54.240        30
54.260        27
54.280        30
54.300        13
54.320        27
54.340        17
54.360        37
54.380        23
54.400        17
54.420        20
54.440        43
54.460        33
54.480        33
54.500        63
54.520        50
54.540        80
54.560       110
54.580       120
54.600       113
54.620       160
54.640       140
54.660       167
54.680        80
54.700       120
54.720       120
54.740       107
54.760        97
54.780        80
54.800        63
54.820        67
54.840        63
54.860        57
54.880        30
54.900        53
54.920        20
54.940        30
54.960        53
54.980        17
55.000        23
55.020        13
55.040        10
55.060         3
55.080        13
55.100        17
55.120        30
55.140        30
55.160        20
55.180         7
55.200        27
55.220        23
55.240        23
55.260        13
55.280        23
55.300        13
55.320        20
55.340        20
55.360        17
55.380        17
55.400        10
55.420        20
55.440        20
55.460        23
55.480        17
55.500        17
55.520        27
55.540        10
55.560        20
55.580        23
55.600        33
55.620        13
55.640        20
55.660        20
55.680        17
55.700        30
55.720        23
55.740         7
55.760        30
55.780        23
55.800        10
55.820        20
55.840        17
55.860         7
55.880        13
55.900         7
55.920        13
55.940        13
55.960        10
55.980        17
56.000        13
56.020        20
56.040        20
56.060        17
56.080        20
56.100        30
56.120        20
56.140        17
56.160        17
56.180        23
56.200        10
56.220        30
56.240        10
56.260        23
56.280        23
56.300        10
56.320        17
56.340        27
56.360        27
56.380        17
56.400         7
56.420        17
56.440        30
56.460        10
56.480        30
56.500        10
56.520        17
56.540        10
56.560        23
56.580        33
56.600        17
56.620        10
56.640        23
56.660        37
56.680        13
56.700        23
56.720        13
56.740        10
56.760        23
56.780        13
56.800        17
56.820        13
56.840        10
56.860        17
56.880        10
56.900        23
56.920         7
56.940        17
56.960        13
56.980        10
57.000        13
57.020        33
57.040        23
57.060         0
57.080        13
57.100        20
57.120        17
57.140         3
57.160        13
57.180        27
57.200        17
57.220        27
57.240        13
57.260        13
57.280        27
57.300        17
57.320        23
57.340        10
57.360        20
57.380        10
57.400        13
57.420        23
57.440        37
57.460        23
57.480        37
57.500        47
57.520        73
57.540        97
57.560       103
57.580        93
57.600        40
57.620        43
57.640        37
57.660        40
57.680        53
57.700        67
57.720        50
57.740        33
57.760        33
57.780        13
57.800        10
57.820        17
57.840         7
57.860        17
57.880        17
57.900        20
57.920        23
57.940        10
57.960        23
57.980        20
58.000        23
58.020         7
58.040        17
58.060        13
58.080        23
58.100        17
58.120        17
58.140         0
58.160        23
58.180        20
58.200        10
58.220        23
58.240        13
58.260        23
58.280         3
58.300         7
58.320        17
58.340         3
58.360        13
58.380        20
58.400         0
58.420        10
58.440        20
58.460        10
58.480         7
58.500        20
58.520         3
58.540         3
58.560         7
58.580        10
58.600        23
58.620        13
58.640        10
58.660        23
58.680        10
58.700         3
58.720         7
58.740        17
58.760        20
58.780         7
58.800        17
58.820        20
58.840        20
58.860        10
58.880        13
58.900        10
58.920        13
58.940        17
58.960        20
58.980        17
59.000         7
59.020        20
59.040        13
59.060        13
59.080        30
59.100        10
59.120        17
59.140         7
59.160        13
59.180         7
59.200        20
59.220        13
59.240         0
59.260        23
59.280         3
59.300        13
59.320        13
59.340        13
59.360        13
59.380        17
59.400        17
59.420        10
59.440        10
59.460        10
59.480        23
59.500         7
59.520        30
59.540         7
59.560        23
59.580        20
59.600        20
59.620        13
59.640         3
59.660        17
59.680        23
59.700        13
59.720        10
59.740        33
59.760         3
59.780        13
59.800         3
59.820         7
59.840        17
59.860        10
59.880        10
59.900        17
59.920        17
59.940        23
59.960        13
59.980        23
60.000        13
