20.000        50
20.020        50
20.040        33
20.060        57
20.080        93
20.100        63
20.120        53
20.140        60
20.160        50
20.180        60
20.200        83
20.220        87
20.240        47
20.260        53
20.280        50
20.300        57
20.320        67
20.340        63
20.360        83
20.380        50
20.400        83
20.420        83
20.440        73
20.460        47
20.480        43
20.500        53
20.520        60
20.540        83
20.560        73
20.580        83
20.600        60
20.620        57
20.640        47
20.660        53
20.680        47
20.700        30
20.720        60
20.740        63
20.760        60
20.780        57
20.800        60
20.820        27
20.840        43
20.860        63
20.880        53
20.900        50
20.920        43
20.940        60
20.960        57
20.980        77
21.000        53
21.020        67
21.040        77
21.060        77
21.080        67
21.100        57
21.120        50
21.140        40
21.160        60
21.180        33
21.200        47
21.220        60
21.240        60
21.260        50
21.280        80
21.300        50
21.320        90
21.340        90
21.360        63
21.380        43
21.400        67
21.420        60
21.440        60
21.460        40
21.480        77
21.500        63
21.520        67
21.540        53
21.560        57
21.580        60
21.600        47
21.620        63
21.640        47
21.660        77
21.680        50
21.700        50
21.720        40
21.740        33
21.760        53
21.780        43
21.800        47
21.820        63
21.840        43
21.860        43
21.880        67
21.900        63
21.920        40
21.940        67
21.960        40
21.980        63
22.000        87
22.020        47
22.040        30
22.060        63
22.080        37
22.100        53
22.120        70
22.140        80
22.160        63
22.180        53
22.200        60
22.220        80
22.240        60
22.260        40
22.280        40
22.300        40
22.320        57
22.340        33
22.360        47
22.380        60
22.400        73
22.420        53
22.440        47
22.460        33
22.480        47
22.500        40
22.520        73
22.540        40
22.560        60
22.580        70
22.600        47
22.620        67
22.640        50
22.660        67
22.680        57
22.700        53
22.720        63
22.740        57
22.760        43
22.780        63
22.800        57
22.820        47
22.840        50
22.860        70
22.880        60
22.900        60
22.920        50
22.940        37
22.960        80
22.980        37
23.000        57
23.020        57
23.040        53
23.060        53
23.080        53
23.100        40
23.120        53
23.140        60
23.160        80
23.180        43
23.200        50
23.220        60
23.240        60
23.260        43
23.280        47
23.300        57
23.320        67
23.340        67
23.360        43
23.380        60
23.400        63
23.420        67
23.440        30
23.460        47
23.480        47
23.500        53
23.520        57
23.540        40
23.560        43
23.580        53
23.600        50
23.620        50
23.640        53
23.660        57
23.680        57
23.700        40
23.720        30
23.740        47
23.760        60
23.780        30
23.800        33
23.820        60
23.840        50
23.860        97
23.880        57
23.900        60
23.920        57
23.940        33
23.960        67
23.980        57
24.000        93
24.020        63
24.040        43
24.060        47
24.080        57
24.100        40
24.120        50
24.140        77
24.160        67
24.180        40
24.200        30
24.220        40
24.240        53
24.260        47
24.280        90
24.300        77
24.320        37
24.340        53
24.360        50
24.380        57
24.400        40
24.420        67
24.440        50
24.460        70
24.480        57
24.500        37
24.520        47
24.540        70
24.560        20
24.580        53
24.600        57
24.620        57
24.640        40
24.660        50
24.680        40
24.700        53
24.720        47
24.740        27
24.760        37
24.780        60
24.800        60
24.820        67
24.840        93
24.860        37
24.880        50
24.900        53
24.920        57
24.940        53
24.960        37
24.980        53
25.000        93
25.020        40
25.040        50
25.060        43
25.080        33
25.100        43
25.120        47
25.140        60
25.160        53
25.180        60
25.200        53
25.220        70
25.240        27
25.260        60
25.280        53
25.300        73
25.320        60
25.340        40
25.360        30
25.380        37
25.400        40
25.420        50
25.440        73
25.460        27
25.480        53
25.500        47
25.520        63
25.540        47
25.560        53
25.580        67
25.600        83
25.620        50
25.640        53
25.660        60
25.680        27
25.700        43
25.720        73
25.740        73
25.760        60
25.780        50
25.800        37
25.820        47
25.840        30
25.860        60
25.880        33
25.900        77
25.920        60
25.940        53
25.960        47
25.980        77
26.000        50
26.020        40
26.040        67
26.060        40
26.080        57
26.100        57
26.120        50
26.140        13
26.160        50
26.180        40
26.200        77
26.220        37
26.240        33
26.260        47
26.280        47
26.300        30
26.320        47
26.340        47
26.360        47
26.380        43
26.400        40
26.420        47
26.440        37
26.460        37
26.480        67
26.500        30
26.520        43
26.540        47
26.560        67
26.580        33
26.600        63
26.620        70
26.640        47
26.660        33
26.680        70
26.700        37
26.720        67
26.740        63
26.760        33
26.780        53
26.800        40
26.820        73
26.840        37
26.860        47
26.880        43
26.900        60
26.920        43
26.940        53
26.960        53
26.980        43
27.000        27
27.020        77
27.040        53
27.060        47
27.080        23
27.100        33
27.120        73
27.140        40
27.160        57
27.180        70
27.200        33
27.220        67
27.240        60
27.260        77
27.280        47
27.300        63
27.320        43
27.340        53
27.360        40
27.380        53
27.400        53
27.420        67
27.440        40
27.460        40
27.480        37
27.500        40
27.520        63
27.540        53
27.560        53
27.580        40
27.600        40
27.620        43
27.640        47
27.660        47
27.680        27
27.700        47
27.720        83
27.740        67
27.760        60
27.780        37
27.800        47
27.820        23
27.840        50
27.860        37
27.880        40
27.900        63
27.920        53
27.940        53
27.960        33
27.980        53
28.000        50
28.020        60
28.040        37
28.060        67
28.080        33
28.100        57
28.120        40
28.140        57
28.160        47
28.180        53
28.200        63
28.220        50
28.240        30
28.260        57
28.280        83
28.300        77
28.320        57
28.340        43
28.360        43
28.380        57
28.400        37
28.420        53
28.440        67
28.460        53
28.480        67
28.500        43
28.520        63
28.540        67
28.560        67
28.580        67
28.600        40
28.620        50
28.640        43
28.660        47
28.680        33
28.700        73
28.720        27
28.740        43
28.760        43
28.780        60
28.800        57
28.820        67
28.840        37
28.860        77
28.880        67
28.900        30
28.920        73
28.940        40
28.960        53
28.980        47
29.000        47
29.020        53
29.040        53
29.060        43
29.080        53
29.100        57
29.120        63
29.140        50
29.160        30
29.180        43
29.200        30
29.220        30
29.240        37
29.260        63
29.280        37
29.300        60
29.320        47
29.340        43
29.360        27
29.380        47
29.400        53
29.420        50
29.440        20
29.460        33
29.480        50
29.500        43
29.520        43
29.540        40
29.560        33
29.580        60
29.600        57
29.620        50
29.640        47
29.660        50
29.680        43
29.700        57
29.720        57
29.740        50
29.760        20
29.780        23
29.800        40
29.820        40
29.840        37
29.860        53
29.880        57
29.900        53
29.920        23
29.940        40
29.960        53
29.980        50
30.000        40
30.020        53
30.040        23
30.060        70
30.080        77
30.100        50
30.120        60
30.140        80
30.160        30
30.180        40
30.200        43
30.220        70
30.240        53
30.260        83
30.280        60
30.300        30
30.320        53
30.340        53
30.360        57
30.380        63
30.400        57
30.420        43
30.440        57
30.460        67
30.480        40
30.500        60
30.520        57
30.540        67
30.560        67
30.580        50
30.600        87
30.620        63
30.640        57
30.660        67
30.680        47
30.700        73
30.720        70
30.740        30
30.760        50
30.780        53
30.800        80
30.820        50
30.840        40
30.860        43
30.880        70
30.900        33
30.920        33
30.940        43
30.960        33
30.980        43
31.000        73
31.020        37
31.040        33
31.060        33
31.080        47
31.100        80
31.120        27
31.140        37
31.160        40
31.180        37
31.200        40
31.220        47
31.240        30
31.260        70
31.280        33
31.300        33
31.320        60
31.340        40
31.360        33
31.380        47
31.400        30
31.420        60
31.440        27
31.460        60
31.480        40
31.500        43
31.520        43
31.540        30
31.560        43
31.580        47
31.600        33
31.620        37
31.640        53
31.660        67
31.680        60
31.700        43
31.720        53
31.740        60
31.760        47
31.780        50
31.800        37
31.820        47
31.840        70
31.860        47
31.880        30
31.900        70
31.920        33
31.940        57
31.960        37
31.980        40
32.000        40
32.020        43
32.040        20
32.060        43
32.080        40
32.100        47
32.120        33
32.140        50
32.160        33
32.180        50
32.200        33
32.220        17
32.240        43
32.260        47
32.280        47
32.300        43
32.320        53
32.340        30
32.360        43
32.380        67
32.400        20
32.420        47
32.440        53
32.460        47
32.480        37
32.500        40
32.520        63
32.540        57
32.560        30
32.580        50
32.600        47
32.620        50
32.640        57
32.660        27
32.680        33
32.700        50
32.720        67
32.740        43
32.760        73
32.780        43
32.800        20
32.820        43
32.840        33
32.860        33
32.880        37
32.900        37
32.920        43
32.940        40
32.960        60
32.980        40
33.000        20
33.020        40
33.040        23
33.060        53
33.080        57
33.100        63
33.120        27
33.140        30
33.160        17
33.180        23
33.200        30
33.220        40
33.240        40
33.260        33
33.280        57
33.300        30
33.320        47
33.340        33
33.360        30
33.380        57
33.400        23
33.420        33
33.440        47
33.460        33
33.480        37
33.500        70
33.520        17
33.540        27
33.560        67
33.580        47
33.600        53
33.620        63
33.640        77
33.660        33
33.680        37
33.700        50
33.720        50
33.740        40
33.760        33
33.780        50
33.800        40
33.820        13
33.840        47
33.860        47
33.880        40
33.900        40
33.920        60
33.940        50
33.960        50
33.980        63
34.000        67
34.020        70
34.040        33
34.060        73
34.080        60
34.100        57
34.120        40
34.140        53
34.160        33
34.180        63
34.200        40
34.220        40
34.240        50
34.260        40
34.280        23
34.300        23
34.320        47
34.340        27
34.360        37
34.380        27
34.400        37
34.420        57
34.440        53
34.460        53
34.480        50
34.500        33
34.520        60
34.540        53
34.560        53
34.580        50
34.600        43
34.620        17
34.640        33
34.660        40
34.680        43
34.700        37
34.720        30
34.740        23
34.760        27
34.780        63
34.800        33
34.820        33
34.840        37
34.860        43
34.880        47
34.900        47
34.920        40
34.940        40
34.960        57
34.980        13
35.000        67
35.020        33
35.040        27
35.060        23
35.080        30
35.100        53
35.120        30
35.140        60
35.160        77
35.180        40
35.200        47
35.220        50
35.240        33
35.260        60
35.280        53
35.300        23
35.320        30
35.340        43
35.360        23
35.380        23
35.400        37
35.420        20
35.440        50
35.460        37
35.480        30
35.500        37
35.520        40
35.540        40
35.560        27
35.580        23
35.600        53
35.620        23
35.640        53
35.660        57
35.680        17
35.700        37
35.720        23
35.740        30
35.760        33
35.780        40
35.800        40
35.820        37
35.840        43
35.860        33
35.880        30
35.900        33
35.920        30
35.940        30
35.960        37
35.980        43
36.000        33
36.020        60
36.040        33
36.060        47
36.080        33
36.100        40
36.120        37
36.140        40
36.160        37
36.180        27
36.200        37
36.220        47
36.240        23
36.260        33
36.280        37
36.300        43
36.320        37
36.340        37
36.360        47
36.380        40
36.400        37
36.420        60
36.440        43
36.460        53
36.480        53
36.500        63
36.520        60
36.540        47
36.560        63
36.580        57
36.600        57
36.620        40
36.640        43
36.660        53
36.680        40
36.700        33
36.720        47
36.740        73
36.760        30
36.780        60
36.800        53
36.820        73
36.840        73
36.860        53
36.880        60
36.900        57
36.920        47
36.940        47
36.960        43
36.980        57
37.000        57
37.020        67
37.040        77
37.060        67
37.080        63
37.100        40
37.120        67
37.140        80
37.160        63
37.180        70
37.200        80
37.220        93
37.240       120
37.260        90
37.280        97
37.300       117
37.320        90
37.340        93
37.360        97
37.380       130
37.400       120
37.420       183
37.440       187
37.460       177
37.480       223
37.500       290
37.520       300
37.540       317
37.560       453
37.580       486
37.600       570
37.620       646
37.640       860
37.660      1063
37.680      1273
37.700      1559
37.720      1939
37.740      2612
37.760      3165
37.780      3522
37.800      3629
37.820      3152
37.840      2739
37.860      2399
37.880      2282
37.900      2033
37.920      1516
37.940      1176
37.960       890
37.980       603
38.000       536
38.020       367
38.040       383
38.060       337
38.080       273
38.100       270
38.120       237
38.140       223
38.160       220
38.180       183
38.200       143
38.220       190
38.240       177
38.260       157
38.280       170
38.300       120
38.320       130
38.340       143
38.360       133
38.380       130
38.400       153
38.420       153
38.440       113
38.460       110
38.480        90
38.500        77
38.520        83
38.540       110
38.560        60
38.580        87
38.600        73
38.620       100
38.640       103
38.660        97
38.680        97
38.700        90
38.720       100
38.740        73
38.760        63
38.780        83
38.800        63
38.820       103
38.840        70
38.860        80
38.880        63
38.900        50
38.920        50
38.940        57
38.960        57
38.980        50
39.000        63
39.020        60
39.040        53
39.060        50
39.080        73
39.100        53
39.120        73
39.140        53
39.160        53
39.180        80
39.200        50
39.220        40
39.240        57
39.260        43
39.280        50
39.300        60
39.320        53
39.340        43
39.360        37
39.380        60
39.400        50
39.420        60
39.440        40
39.460        40
39.480        33
39.500        43
39.520        57
39.540        53
39.560        70
39.580        87
39.600        43
39.620        53
39.640        20
39.660        53
39.680        50
39.700        60
39.720        67
39.740        60
39.760        63
39.780        30
39.800        33
39.820        47
39.840        53
39.860        37
39.880        77
39.900        57
39.920        53
39.940        50
39.960        53
39.980        50
40.000        50
40.020        30
40.040        47
40.060        60
40.080        70
40.100        40
40.120        33
40.140        37
40.160        47
40.180        57
40.200        53
40.220        53
40.240        40
40.260        50
40.280        43
40.300        60
40.320        43
40.340        40
40.360        53
40.380        27
40.400        60
40.420        23
40.440        20
40.460        20
40.480        37
40.500        30
40.520        20
40.540        53
40.560        27
40.580        30
40.600        33
40.620        33
40.640        33
40.660        43
40.680        37
40.700        67
40.720        57
40.740        33
40.760        50
40.780        40
40.800        47
40.820        43
40.840        23
40.860        30
40.880        40
40.900        60
40.920        37
40.940        50
40.960        43
40.980        53
41.000        43
41.020        53
41.040        27
41.060        33
41.080        33
41.100        50
41.120        33
41.140        30
41.160        43
41.180        27
41.200        37
41.220        57
41.240        43
41.260        47
41.280        40
41.300        30
41.320        43
41.340        33
41.360        57
41.380        17
41.400        33
41.420        43
41.440        30
41.460        50
41.480        37
41.500        43
41.520        37
41.540        17
41.560        20
41.580        37
41.600        70
41.620        27
41.640        40
41.660        33
41.680        27
41.700        23
41.720        33
41.740        53
41.760        33
41.780        23
41.800        20
41.820        37
41.840        43
41.860        40
41.880        33
41.900        17
41.920        43
41.940        17
41.960        50
41.980        33
42.000        20
42.020        10
42.040        23
42.060        50
42.080        33
42.100        27
42.120        50
42.140        63
42.160        27
42.180        40
42.200        23
42.220        67
42.240        17
42.260        40
42.280        40
42.300        40
42.320        50
42.340        33
42.360        53
42.380        40
42.400        30
42.420        33
42.440        20
42.460        47
42.480        43
42.500        20
42.520        47
42.540        43
42.560        47
42.580        20
42.600        30
42.620        30
42.640        53
42.660        33
42.680        30
42.700        37
42.720        23
42.740        47
42.760        33
42.780        43
42.800        30
42.820        53
42.840        37
42.860        37
42.880        33
42.900        47
42.920        43
42.940        20
42.960        37
42.980        33
43.000        57
43.020        40
43.040        30
43.060        23
43.080        30
43.100        27
43.120        30
43.140        60
43.160        53
43.180        17
43.200        33
43.220        27
43.240        33
43.260        50
43.280        50
43.300        33
43.320        33
43.340        50
43.360        87
43.380        77
43.400        83
43.420        73
43.440        57
43.460        37
43.480        47
43.500        57
43.520        50
43.540        43
43.560        57
43.580        57
43.600        53
43.620        83
43.640        83
43.660        73
43.680        77
43.700        80
43.720       107
43.740        73
43.760       110
43.780       103
43.800        97
43.820       100
43.840        90
43.860       103
43.880        73
43.900       113
43.920        83
43.940        70
43.960        70
43.980       110
44.000        90
44.020        67
44.040        67
44.060        83
44.080        63
44.100        57
44.120        67
44.140        27
44.160        50
44.180        57
44.200        47
44.220        40
44.240        33
44.260        37
44.280        43
44.300        27
44.320        60
44.340        37
44.360        23
44.380        50
44.400        57
44.420        33
44.440        50
44.460        37
44.480        27
44.500        40
44.520        33
44.540        40
44.560        40
44.580        33
44.600        27
44.620        23
44.640        13
44.660        33
44.680        53
44.700        27
44.720        23
44.740        27
44.760        20
44.780        20
44.800        13
44.820        33
44.840        23
44.860        27
44.880        40
44.900        30
44.920        33
44.940        47
44.960        40
44.980        33
45.000        37
45.020        37
45.040        23
45.060        37
45.080        40
45.100        37
45.120        27
45.140        23
45.160        37
45.180        37
45.200        37
45.220        33
45.240        43
45.260        47
45.280        30
45.300        23
45.320        30
45.340        27
45.360        30
45.380        30
45.400        40
45.420        20
45.440        27
45.460        33
45.480        33
45.500        37
45.520        33
45.540        23
45.560        27
45.580        43
45.600        40
45.620        23
45.640        27
45.660        43
45.680        30
45.700        17
45.720        23
45.740        30
45.760        20
45.780        30
45.800        33
45.820        10
45.840        30
45.860        30
45.880        20
45.900        40
45.920        23
45.940        50
45.960        23
45.980        30
46.000        10
46.020        27
46.040        13
46.060        23
46.080        53
46.100        13
46.120        37
46.140        17
46.160        23
46.180        20
46.200        30
46.220        37
46.240        27
46.260        20
46.280        37
46.300        43
46.320        20
46.340        17
46.360        27
46.380        40
46.400        30
46.420        30
46.440        37
46.460        30
46.480        23
46.500        30
46.520        40
46.540        40
46.560        27
46.580        37
46.600        20
46.620        33
46.640        13
46.660         3
46.680        27
46.700        30
46.720        37
46.740        40
46.760        23
46.780        30
46.800        30
46.820        37
46.840        27
46.860        27
46.880        43
46.900        27
46.920        30
46.940        17
46.960        40
46.980        37
47.000        33
47.020        53
47.040         7
47.060        17
47.080        33
47.100        27
47.120        17
47.140        43
47.160        27
47.180        30
47.200        30
47.220        23
47.240        30
47.260        20
47.280        27
47.300        37
47.320        23
47.340        23
47.360        33
47.380        23
47.400        33
47.420         7
47.440        30
47.460        27
47.480        17
47.500        27
47.520        40
47.540        20
47.560        27
47.580        13
47.600        17
47.620        17
47.640        30
47.660        23
47.680        10
47.700        13
47.720        17
47.740        37
47.760        30
47.780        27
47.800        20
47.820        27
47.840        23
47.860        20
47.880        17
47.900        47
47.920        20
47.940        17
47.960        23
47.980        23
48.000        13
48.020        27
48.040        43
48.060        17
48.080        23
48.100        20
48.120        20
48.140        27
48.160        17
48.180        17
48.200        20
48.220        30
48.240        10
48.260        13
48.280        27
48.300        40
48.320        33
48.340        43
48.360        10
48.380        13
48.400        20
48.420        33
48.440        37
48.460        20
48.480        17
48.500        30
48.520        17
48.540        23
48.560        23
48.580        30
48.600        17
48.620        23
48.640        20
48.660        27
48.680        17
48.700        13
48.720        20
48.740        37
48.760        23
48.780        30
48.800        20
48.820        27
48.840        30
48.860        20
48.880        33
48.900        17
48.920        20
48.940        13
48.960        17
48.980        30
49.000        23
49.020        13
49.040        20
49.060        20
49.080        20
49.100        20
49.120        23
49.140        40
49.160        23
49.180        27
49.200        30
49.220        20
49.240        37
49.260        10
49.280        37
49.300        17
49.320        30
49.340        20
49.360        20
49.380        30
49.400        30
49.420        20
49.440        17
49.460        33
49.480        27
49.500        17
49.520        20
49.540        30
49.560        33
49.580        30
49.600        20
49.620        27
49.640        30
49.660        10
49.680         3
49.700        13
49.720        27
49.740        37
49.760        27
49.780        23
49.800        33
49.820        20
49.840        27
49.860        27
49.880        40
49.900         7
49.920        27
49.940        27
49.960        27
49.980        17
50.000        20
50.020        20
50.040        17
50.060        13
50.080        30
50.100        23
50.120        30
50.140        33
50.160        23
50.180        17
50.200        40
50.220        27
50.240        20
50.260        23
50.280        30
50.300        20
50.320        20
50.340        33
50.360        20
50.380        27
50.400        13
50.420        23
50.440        30
50.460        13
50.480        27
50.500        33
50.520        30
50.540        20
50.560        40
50.580        20
50.600        30
50.620        27
50.640        20
50.660        30
50.680        23
50.700        23
50.720        20
50.740         7
50.760        13
50.780        20
50.800        30
50.820        27
50.840        13
50.860        30
50.880        20
50.900        17
50.920        23
50.940        23
50.960        10
50.980         3
51.000        23
51.020        23
51.040        20
51.060        27
51.080        33
51.100        10
51.120        33
51.140        37
51.160        23
51.180        13
51.200        13
51.220        33
51.240        27
51.260        20
51.280        23
51.300        30
51.320        43
51.340        23
51.360        23
51.380        40
51.400        33
51.420        17
51.440        27
51.460        17
51.480        23
51.500        17
51.520         7
51.540        17
51.560        20
51.580        30
51.600        17
51.620         3
51.640        20
51.660        17
51.680        23
51.700        27
51.720        17
51.740        20
51.760        37
51.780        13
51.800        17
51.820         7
51.840        43
51.860        10
51.880        20
51.900        20
51.920        13
51.940        23
51.960        20
51.980        23
52.000        30
52.020        30
52.040        27
52.060        37
52.080        37
52.100        30
52.120        23
52.140        20
52.160        13
52.180        17
52.200        17
52.220        23
52.240        17
52.260        20
52.280        23
52.300        20
52.320        43
52.340        23
52.360        20
52.380        17
52.400        20
52.420        23
52.440        30
52.460        23
52.480        27
52.500        23
52.520        27
52.540        57
52.560        20
52.580        33
52.600        30
52.620        23
52.640        13
52.660        27
52.680        20
52.700        33
52.720        23
52.740        20
52.760        30
52.780        23
52.800        30
52.820        30
52.840        23
52.860        13
52.880        27
52.900        10
52.920        13
52.940        17
52.960        37
52.980        27
53.000        23
53.020        13
53.040        10
53.060        13
53.080        30
53.100        20
53.120        23
53.140        13
53.160        27
53.180        20
53.200        10
53.220        13
53.240        20
53.260        40
53.280        13
53.300        17
53.320         7
53.340        30
53.360        17
53.380        20
53.400        20
53.420        20
53.440        20
53.460        40
53.480        37
53.500        20
53.520        33
53.540        23
53.560        13
53.580        13
53.600        37
53.620        20
53.640        13
53.660        10
53.680        23
53.700        30
53.720        23
53.740        20
53.760        23
53.780        13
53.800        27
53.820        30
53.840        27
53.860         7
53.880        13
53.900        23
53.920        40
53.940        20
53.960        13
53.980        23
54.000        10
54.020        20
54.040         7
54.060        17
54.080        30
54.100        27
54.120        17
54.140        23
54.160        23
54.180        27
54.200        33
54.220        37
54.240        10
54.260        40
54.280        20
54.300        40
54.320        33
54.340        37
54.360        20
54.380        53
54.400        60
54.420        20
54.440        77
54.460        53
54.480        67
54.500        67
54.520        57
54.540        67
54.560        53
54.580        73
54.600        47
54.620        53
54.640        57
54.660        47
54.680        37
54.700        23
54.720        23
54.740        43
54.760        23
54.780        13
54.800        20
54.820        17
54.840        37
54.860        27
54.880        43
54.900        17
54.920        20
54.940        30
54.960        20
54.980        23
55.000        10
55.020        27
55.040        27
55.060        17
55.080        33
55.100        20
55.120        23
55.140        17
55.160        10
55.180        27
55.200        27
55.220        20
55.240        30
55.260        30
55.280         7
55.300        33
55.320        13
55.340        33
55.360        13
55.380        23
55.400        13
55.420        23
55.440        23
55.460        20
55.480        30
55.500        27
55.520        33
55.540        13
55.560        13
55.580        27
55.600        13
55.620        13
55.640        10
55.660         7
55.680        23
55.700        13
55.720        23
55.740        20
55.760        20
55.780        10
55.800        33
55.820        20
55.840         7
55.860        23
55.880        30
55.900        13
55.920         7
55.940        13
55.960        20
55.980        13
56.000        10
56.020        17
56.040        13
56.060        17
56.080        10
56.100        23
56.120        17
56.140         7
56.160        10
56.180         7
56.200        10
56.220        20
56.240        17
56.260        37
56.280        17
56.300        33
56.320        17
56.340         3
56.360        13
56.380        17
56.400        17
56.420        27
56.440        20
56.460        23
56.480        20
56.500        23
56.520        20
56.540        37
56.560        17
56.580        20
56.600        13
56.620        20
56.640        10
56.660        10
56.680        43
56.700        17
56.720         0
56.740         3
56.760        10
56.780        33
56.800        27
56.820        10
56.840        20
56.860        10
56.880        30
56.900        17
56.920        17
56.940        10
56.960        27
56.980        20
57.000        17
57.020        33
57.040        17
57.060        23
57.080        17
57.100        33
57.120         3
57.140        23
57.160        23
57.180        13
57.200        10
57.220        10
57.240        23
57.260        30
57.280        30
57.300        17
57.320        23
57.340        30
57.360        27
57.380        10
57.400        27
57.420        10
57.440        10
57.460        17
57.480        37
57.500        33
57.520        60
57.540        57
57.560        63
57.580        57
57.600        33
57.620        53
57.640        43
57.660        30
57.680        63
57.700        50
57.720        23
57.740        20
57.760        23
57.780        20
57.800        30
57.820        10
57.840        13
57.860        13
57.880        37
57.900        13
57.920        10
57.940        17
57.960        17
57.980         3
58.000         7
58.020        23
58.040        20
58.060        10
58.080        13
58.100        13
58.120        13
58.140        30
58.160        20
58.180         7
58.200        37
58.220        27
58.240        23
58.260        10
58.280        10
58.300        23
58.320        17
58.340        23
58.360        20
58.380         7
58.400         7
58.420        13
58.440        23
58.460        20
58.480        20
58.500        23
58.520        13
58.540        20
58.560        13
58.580         0
58.600         3
58.620        13
58.640        17
58.660        20
58.680        17
58.700        20
58.720        20
58.740        17
58.760        27
58.780         3
58.800        17
58.820         7
58.840        17
58.860         7
58.880        20
58.900        13
58.920         0
58.940        13
58.960        23
58.980        30
59.000        10
59.020        17
59.040        20
59.060        17
59.080        27
59.100        27
59.120         7
59.140        17
59.160        13
59.180        20
59.200        17
59.220        20
59.240        27
59.260        20
59.280        17
59.300        10
59.320        13
59.340        30
59.360        13
59.380        17
59.400        17
59.420        13
59.440        10
59.460        10
59.480        17
59.500        17
59.520        23
59.540        30
59.560        13
59.580        23
59.600         3
59.620        20
59.640        17
59.660         3
59.680        17
59.700        17
59.720        17
59.740        13
59.760        17
59.780        17
59.800         7
59.820        10
59.840        17
59.860        10
59.880        17
59.900        13
59.920        10
59.940        13
59.960        17
59.980        17
60.000        10
