20.000        50
20.020        80
20.040        60
20.060        63
20.080        57
20.100        63
20.120        53
20.140        53
20.160        73
20.180        70
20.200        33
20.220        33
20.240        47
20.260        80
20.280        70
20.300        50
20.320        73
20.340        50
20.360        53
20.380        50
20.400        63
20.420        50
20.440        57
20.460        53
20.480        57
20.500        37
20.520        60
20.540        50
20.560        60
20.580        53
20.600        37
20.620        50
20.640        47
20.660        60
20.680        47
20.700        43
20.720        63
20.740        57
20.760        63
20.780        70
20.800        43
20.820        63
20.840        67
20.860        50
20.880        63
20.900        50
20.920        60
20.940        47
20.960        63
20.980        33
21.000        30
21.020        33
21.040        37
21.060        70
21.080        73
21.100        47
21.120        40
21.140        53
21.160        40
21.180        37
21.200        37
21.220        40
21.240        30
21.260        23
21.280        80
21.300        33
21.320        50
21.340        70
21.360        40
21.380        37
21.400        53
21.420        67
21.440        57
21.460        33
21.480        60
21.500        30
21.520        57
21.540        63
21.560        33
21.580        63
21.600        47
21.620        57
21.640        60
21.660        70
21.680        80
21.700        40
21.720        50
21.740        57
21.760        53
21.780        37
21.800        57
21.820        53
21.840        80
21.860        60
21.880       100
21.900        90
21.920        70
21.940       100
21.960       123
21.980       130
22.000       130
22.020        87
22.040        87
22.060        77
22.080        73
22.100        53
22.120        43
22.140        70
22.160        53
22.180        63
22.200        37
22.220        70
22.240        47
22.260        50
22.280        40
22.300        73
22.320        43
22.340        67
22.360        63
22.380        53
22.400        43
22.420        33
22.440        63
22.460        33
22.480        67
22.500        57
22.520        33
22.540        37
22.560        33
22.580        70
22.600        57
22.620        47
22.640        27
22.660        47
22.680        50
22.700        30
22.720        53
22.740        50
22.760        23
22.780        47
22.800        53
22.820        43
22.840        37
22.860        40
22.880        40
22.900        37
22.920        47
22.940        57
22.960        60
22.980        33
23.000        63
23.020        50
23.040        40
23.060        33
23.080        33
23.100        40
23.120        53
23.140        47
23.160        47
23.180        60
23.200        57
23.220        63
23.240        53
23.260        40
23.280        57
23.300        40
23.320        47
23.340        37
23.360        37
23.380        23
23.400        33
23.420        23
23.440        27
23.460        60
23.480        50
23.500        47
23.520        47
23.540        23
23.560        30
23.580        43
23.600        20
23.620        47
23.640        50
23.660        23
23.680        60
23.700        37
23.720        47
23.740        57
23.760        37
23.780        53
23.800        40
23.820        37
23.840        53
23.860        47
23.880        27
23.900        47
23.920        37
23.940        37
23.960        57
23.980        33
24.000        23
24.020        40
24.040        57
24.060        30
24.080        40
24.100        57
24.120        30
24.140        43
24.160        37
24.180        30
24.200        30
24.220        37
24.240        43
24.260        40
24.280        43
24.300        30
24.320        47
24.340        43
24.360        67
24.380        43
24.400        30
24.420        67
24.440        43
24.460        30
24.480        23
24.500        30
24.520        37
24.540        57
24.560        40
24.580        43
24.600        60
24.620        40
24.640        30
24.660        23
24.680        47
24.700        43
24.720        40
24.740        33
24.760        43
24.780        43
24.800        40
24.820        30
24.840        40
24.860        70
24.880        37
24.900        37
24.920        23
24.940        17
24.960        37
24.980        43
25.000        37
25.020        60
25.040        63
25.060        43
25.080        20
25.100        40
25.120        43
25.140        37
25.160        33
25.180        37
25.200        30
25.220        30
25.240        50
25.260        67
25.280        70
25.300        37
25.320        43
25.340        30
25.360        20
25.380        53
25.400        27
25.420        40
25.440        20
25.460        53
25.480        37
25.500        50
25.520        30
25.540        47
25.560        30
25.580        37
25.600        53
25.620        53
25.640        30
25.660        40
25.680        30
25.700        47
25.720        47
25.740        40
25.760        37
25.780        40
25.800        50
25.820        50
25.840        33
25.860        37
25.880        33
25.900        53
25.920        50
25.940        20
25.960        33
25.980        43
26.000        27
26.020        27
26.040        47
26.060        33
26.080        60
26.100        73
26.120        23
26.140        30
26.160        30
26.180        40
26.200        23
26.220        37
26.240        23
26.260        43
26.280        20
26.300        30
26.320        53
26.340        47
26.360        20
26.380        23
26.400        73
26.420        53
26.440        60
26.460        37
26.480        40
26.500        53
26.520        63
26.540        43
26.560        27
26.580        50
26.600        47
26.620        63
26.640        47
26.660        50
26.680        57
26.700        43
26.720        40
26.740        57
26.760        43
26.780        40
26.800        37
26.820        47
26.840        40
26.860        37
26.880        57
26.900        37
26.920        33
26.940        33
26.960        27
26.980        47
27.000        27
27.020        43
27.040        43
27.060        30
27.080        43
27.100        33
27.120        47
27.140        33
27.160        30
27.180        17
27.200        43
27.220        27
27.240        33
27.260        30
27.280        53
27.300        33
27.320        50
27.340        23
27.360        30
27.380        27
27.400        57
27.420        30
27.440        17
27.460        43
27.480        33
27.500        20
27.520        40
27.540        57
27.560        50
27.580        47
27.600        53
27.620        30
27.640        50
27.660        63
27.680        30
27.700        33
27.720        33
27.740        47
27.760        47
27.780        53
27.800        47
27.820        43
27.840        27
27.860        30
27.880        33
27.900        50
27.920        40
27.940        53
27.960        53
27.980        40
28.000        77
28.020        73
28.040        37
28.060        47
28.080        90
28.100        60
28.120        77
28.140        93
28.160        97
28.180        93
28.200        60
28.220        43
28.240        30
28.260        37
28.280        27
28.300        67
28.320        37
28.340        40
28.360        27
28.380        43
28.400        47
28.420        33
28.440        63
28.460        40
28.480        40
28.500        57
28.520        43
28.540        37
28.560        43
28.580        37
28.600        17
28.620        37
28.640        43
28.660        17
28.680        30
28.700        37
28.720        50
28.740        20
28.760        33
28.780        43
28.800        30
28.820        40
28.840        43
28.860        33
28.880        50
28.900        23
28.920        50
28.940        37
28.960        33
28.980        47
29.000        30
29.020        50
29.040        27
29.060        47
29.080        37
29.100        23
29.120        47
29.140        40
29.160        53
29.180        30
29.200        40
29.220        33
29.240        57
29.260        30
29.280        27
29.300        47
29.320        30
29.340        37
29.360        37
29.380        23
29.400        27
29.420        33
29.440        60
29.460        30
29.480        40
29.500        57
29.520        53
29.540        30
29.560        43
29.580        30
29.600        50
29.620        37
29.640        53
29.660        37
29.680        47
29.700        43
29.720        40
29.740        37
29.760        43
29.780        27
29.800        47
29.820        20
29.840        23
29.860        37
29.880        47
29.900        47
29.920        53
29.940        23
29.960        37
29.980        40
30.000        40
30.020        43
30.040        47
30.060        63
30.080        60
30.100        77
30.120        53
30.140       100
30.160        50
30.180        63
30.200       117
30.220        73
30.240        90
30.260        63
30.280        70
30.300       107
30.320        87
30.340        70
30.360        90
30.380       100
30.400        93
30.420        60
30.440       113
30.460        67
30.480        77
30.500        77
30.520        70
30.540        77
30.560       113
30.580       103
30.600       137
30.620        70
30.640        97
30.660        87
30.680       107
30.700       110
30.720        97
30.740       137
30.760       133
30.780       167
30.800       143
30.820       170
30.840       177
30.860       167
30.880       243
30.900       270
30.920       363
30.940       423
30.960       526
30.980       573
31.000       730
31.020       990
31.040      1183
31.060      1489
31.080      2026
31.100      2462
31.120      3509
31.140      4282
31.160      6011
31.180      7497
31.200      8637
31.220      8687
31.240      8130
31.260      7264
31.280       600
31.300      5091
31.320      3995
31.340      2739
31.360      1933
31.380      1326
31.400       856
31.420       656
31.440       536
31.460       510
31.480       393
31.500       277
31.520       290
31.540       217
31.560       243
31.580       177
31.600       150
31.620       137
31.640       143
31.660       150
31.680       150
31.700       137
31.720       100
31.740       137
31.760       127
31.780       157
31.800       143
31.820       147
31.840       107
31.860        83
31.880        93
31.900       107
31.920        80
31.940        77
31.960        87
31.980        77
32.000        73
32.020       103
32.040        80
32.060       100
32.080        70
32.100        77
32.120        70
32.140        77
32.160        73
32.180        67
32.200        63
32.220        80
32.240        70
32.260        50
32.280        43
32.300        50
32.320        70
32.340        47
32.360        47
32.380        77
32.400        37
32.420        67
32.440        50
32.460        67
32.480        43
32.500        70
32.520        80
32.540        83
32.560        53
32.580        63
32.600        60
32.620        43
32.640        53
32.660        50
32.680        43
32.700        53
32.720        43
32.740        50
32.760        57
32.780        67
32.800        53
32.820        40
32.840        37
32.860        50
32.880        40
32.900        53
32.920        43
32.940        57
32.960        60
32.980        53
33.000        57
33.020        50
33.040        53
33.060        63
33.080        60
33.100        33
33.120        60
33.140        27
33.160        50
33.180        70
33.200        53
33.220        47
33.240        63
33.260        50
33.280        37
33.300        30
33.320        40
33.340        33
33.360        60
33.380        77
33.400        33
33.420        47
33.440        43
33.460        40
33.480        37
33.500        43
33.520        30
33.540        50
33.560        57
33.580        53
33.600        33
33.620        43
33.640        37
33.660        73
33.680        53
33.700        57
33.720        57
33.740        27
33.760        50
33.780        37
33.800        70
33.820        40
33.840        37
33.860        43
33.880        33
33.900        40
33.920        67
33.940        50
33.960        40
33.980        47
34.000        30
34.020        57
34.040        53
34.060        77
34.080        63
34.100        37
34.120        53
34.140        70
34.160        53
34.180        63
34.200        70
34.220        70
34.240        43
34.260        37
34.280        43
34.300        70
34.320        37
34.340        40
34.360        43
34.380        37
34.400        30
34.420        43
34.440        37
34.460        53
34.480        60
34.500        27
34.520        40
34.540        47
34.560        33
34.580        60
34.600        40
34.620        33
34.640        27
34.660        43
34.680        53
34.700        40
34.720        20
34.740        33
34.760        40
34.780        60
34.800        40
34.820        63
34.840        57
34.860        40
34.880        40
34.900        63
34.920        27
34.940        50
34.960        43
34.980        37
35.000        50
35.020        53
35.040        40
35.060        53
35.080        43
35.100        20
35.120        53
35.140        73
35.160       113
35.180       117
35.200       103
35.220        97
35.240        70
35.260        47
35.280        60
35.300        33
35.320        40
35.340        37
35.360        30
35.380        33
35.400        53
35.420        67
35.440        43
35.460        47
35.480        20
35.500        43
35.520        43
35.540        23
35.560        30
35.580        23
35.600        53
35.620        20
35.640        37
35.660        37
35.680        33
35.700        20
35.720        30
35.740        57
35.760        13
35.780        40
35.800        17
35.820        30
35.840        27
35.860        30
35.880        30
35.900        23
35.920        40
35.940        33
35.960        43
35.980        27
36.000        30
36.020        43
36.040        37
36.060        63
36.080        40
36.100        43
36.120        47
36.140        27
36.160        27
36.180        10
36.200        33
36.220        30
36.240        40
36.260        37
36.280        23
36.300        27
36.320        30
36.340        10
36.360        47
36.380        37
36.400        53
36.420        40
36.440        30
36.460        47
36.480        27
36.500        33
36.520        17
36.540        13
36.560        40
36.580        33
36.600        33
36.620        20
36.640        23
36.660        37
36.680        27
36.700        47
36.720        30
36.740         7
36.760        50
36.780        30
36.800        23
36.820        27
36.840        33
36.860        20
36.880        20
36.900        37
36.920        20
36.940        13
36.960        23
36.980        50
37.000        40
37.020        33
37.040        23
37.060        23
37.080        37
37.100        40
37.120        53
37.140        23
37.160        33
37.180        40
37.200        30
37.220        43
37.240        27
37.260        43
37.280        30
37.300        27
37.320        27
37.340        23
37.360        27
37.380        20
37.400        33
37.420        17
37.440        17
37.460        33
37.480        30
37.500        20
37.520        43
37.540        30
37.560        53
37.580        27
37.600        20
37.620        20
37.640        33
37.660        33
37.680        50
37.700        20
37.720        50
37.740        27
37.760        23
37.780        40
37.800        43
37.820        13
37.840        40
37.860        13
37.880        37
37.900        27
37.920        40
37.940        33
37.960        33
37.980        17
38.000        50
38.020        53
38.040        27
38.060        40
38.080        20
38.100        33
38.120        27
38.140        33
38.160        40
38.180        20
38.200        23
38.220        23
38.240        27
38.260        47
38.280        47
38.300        60
38.320        23
38.340        33
38.360        50
38.380        27
38.400        53
38.420        37
38.440        47
38.460        43
38.480        77
38.500        73
38.520        60
38.540        53
38.560        73
38.580        40
38.600        57
38.620        37
38.640        30
38.660        37
38.680        50
38.700        30
38.720        23
38.740        27
38.760        17
38.780        20
38.800        13
38.820        63
38.840        27
38.860        10
38.880        33
38.900        23
38.920        27
38.940        23
38.960        43
38.980        30
39.000        30
39.020        10
39.040        23
39.060        23
39.080        43
39.100        33
39.120        17
39.140        40
39.160        20
39.180        20
39.200        23
39.220        23
39.240        13
39.260        30
39.280        30
39.300        27
39.320        17
39.340        23
39.360        23
39.380        10
39.400        40
39.420        17
39.440        30
39.460        23
39.480         3
39.500        33
39.520        37
39.540        10
39.560        30
39.580        10
39.600        37
39.620        23
39.640        27
39.660        47
39.680        27
39.700        10
39.720        17
39.740        23
39.760        23
39.780        30
39.800        27
39.820        27
39.840        33
39.860        10
39.880         7
39.900        13
39.920        37
39.940        20
39.960        20
39.980        13
40.000        27
40.020        13
40.040        27
40.060        30
40.080        20
40.100        17
40.120        27
40.140        17
40.160        20
40.180        13
40.200        13
40.220        33
40.240        47
40.260        17
40.280        37
40.300        10
40.320        30
40.340        33
40.360        27
40.380        43
40.400        23
40.420        10
40.440        17
40.460        17
40.480        17
40.500        20
40.520        37
40.540         3
40.560        20
40.580         7
40.600        27
40.620        27
40.640        17
40.660        17
40.680        30
40.700        27
40.720        27
40.740        10
40.760        20
40.780        27
40.800        23
40.820        13
40.840        27
40.860        33
40.880        30
40.900        20
40.920         7
40.940        17
40.960        40
40.980        13
41.000        10
41.020        10
41.040        17
41.060        10
41.080        20
41.100        13
41.120        33
41.140        20
41.160        20
41.180        17
41.200        23
41.220        20
41.240        13
41.260        30
41.280        13
41.300        37
41.320        30
41.340        20
41.360         7
41.380        10
41.400        10
41.420        17
41.440        10
41.460         7
41.480        23
41.500        33
41.520        10
41.540        13
41.560        13
41.580        30
41.600        10
41.620        27
41.640        20
41.660        53
41.680        37
41.700        57
41.720        50
41.740        60
41.760        23
41.780        50
41.800        57
41.820        33
41.840        43
41.860        30
41.880        20
41.900        27
41.920        17
41.940        33
41.960        23
41.980        20
42.000        20
42.020        17
42.040        23
42.060        20
42.080        20
42.100        17
42.120        10
42.140        27
42.160        20
42.180        27
42.200        23
42.220        23
42.240        23
42.260         3
42.280        23
42.300        10
42.320        30
42.340        23
42.360        17
42.380        13
42.400        17
42.420        37
42.440        33
42.460        40
42.480        20
42.500        17
42.520        30
42.540        10
42.560        20
42.580        23
42.600        17
42.620        17
42.640        27
42.660        37
42.680        23
42.700        27
42.720         3
42.740         3
42.760        10
42.780        30
42.800        23
42.820        13
42.840        40
42.860        20
42.880        33
42.900        20
42.920        27
42.940        27
42.960        33
42.980        17
43.000        30
43.020         3
43.040        37
43.060        20
43.080        13
43.100        27
43.120        23
43.140        27
43.160        30
43.180         7
43.200        20
43.220        23
43.240        13
43.260        37
43.280        20
43.300        37
43.320        47
43.340        33
43.360        33
43.380        83
43.400        70
43.420        73
43.440        47
43.460        33
43.480        50
43.500        27
43.520        30
43.540        40
43.560        27
43.580        40
43.600        20
43.620        30
43.640        30
43.660        27
43.680        13
43.700        43
43.720        17
43.740        13
43.760        27
43.780        13
43.800        13
43.820        20
43.840        13
43.860        37
43.880        17
43.900        23
43.920        20
43.940         3
43.960        43
43.980        20
44.000        33
44.020        20
44.040        27
44.060        27
44.080        10
44.100        20
44.120         0
44.140        30
44.160        27
44.180        27
44.200        20
44.220        20
44.240        10
44.260        40
44.280        27
44.300        13
44.320        23
44.340        10
44.360        10
44.380        27
44.400        23
44.420        13
44.440        17
44.460        30
44.480        20
44.500        37
44.520        27
44.540        50
44.560        47
44.580        27
44.600        97
44.620        33
44.640        73
44.660        90
44.680       120
44.700       157
44.720       187
44.740       213
44.760       170
44.780       210
44.800       213
44.820       220
44.840       157
44.860       193
44.880       173
44.900       117
44.920       140
44.940       113
44.960        90
44.980        83
45.000        73
45.020        60
45.040        70
45.060        53
45.080        40
45.100        37
45.120        33
45.140        23
45.160        20
45.180        17
45.200        27
45.220        20
45.240        30
45.260        33
45.280        27
45.300        27
45.320        20
45.340        27
45.360        27
45.380        23
45.400        27
45.420        10
45.440        17
45.460        23
45.480        23
45.500        20
45.520        10
45.540        17
45.560        10
45.580        27
45.600        23
45.620        30
45.640        27
45.660        30
45.680        20
45.700        43
45.720        13
45.740        30
45.760        10
45.780        20
45.800         3
45.820        20
45.840        10
45.860        17
45.880        20
45.900         3
45.920        17
45.940        20
45.960        13
45.980        13
46.000        23
46.020        10
46.040        27
46.060        17
46.080        17
46.100        13
46.120        20
46.140        20
46.160        10
46.180        10
46.200        17
46.220        20
46.240        30
46.260        23
46.280        23
46.300        10
46.320        27
46.340        13
46.360         7
46.380        27
46.400        27
46.420        17
46.440         7
46.460        20
46.480        17
46.500        13
46.520        17
46.540        20
46.560        20
46.580        20
46.600        20
46.620        10
46.640        17
46.660        10
46.680        20
46.700        20
46.720        20
46.740        13
46.760         7
46.780        23
46.800        20
46.820        27
46.840        30
46.860        20
46.880        17
46.900        13
46.920        17
46.940        13
46.960        13
46.980        10
47.000        17
47.020        17
47.040        23
47.060        17
47.080        27
47.100        20
47.120        17
47.140        13
47.160        17
47.180        10
47.200        30
47.220        20
47.240        17
47.260        10
47.280        13
47.300         7
47.320        27
47.340         3
47.360        17
47.380        17
47.400        23
47.420         7
47.440        17
47.460        17
47.480        10
47.500        20
47.520        20
47.540        17
47.560        23
47.580         7
47.600        20
47.620        13
47.640         0
47.660        20
47.680        10
47.700        17
47.720        17
47.740         7
47.760        10
47.780        23
47.800        17
47.820        13
47.840        17
47.860         3
47.880        20
47.900        23
47.920        13
47.940        23
47.960        13
47.980        17
48.000        20
48.020        10
48.040        23
48.060        17
48.080         7
48.100        13
48.120        20
48.140        27
48.160        13
48.180        13
48.200        20
48.220        10
48.240        23
48.260        10
48.280        10
48.300        10
48.320        13
48.340        13
48.360        13
48.380        23
48.400        20
48.420        13
48.440        20
48.460        20
48.480         3
48.500         7
48.520        23
48.540        23
48.560        10
48.580        13
48.600        27
48.620        10
48.640         3
48.660        13
48.680        23
48.700        27
48.720        10
48.740        13
48.760        13
48.780        13
48.800        17
48.820        10
48.840         7
48.860        17
48.880        10
48.900         7
48.920        20
48.940        17
48.960        20
48.980         7
49.000        20
49.020        30
49.040        17
49.060        20
49.080         7
49.100        17
49.120        10
49.140        33
49.160        23
49.180        27
49.200        17
49.220        17
49.240         3
49.260        17
49.280         7
49.300         7
49.320        17
49.340        13
49.360        30
49.380        17
49.400        30
49.420        23
49.440        13
49.460        10
49.480        23
49.500        10
49.520        10
49.540        17
49.560        17
49.580        30
49.600        23
49.620        37
49.640        17
49.660        13
49.680         7
49.700        17
49.720        30
49.740        17
49.760        13
49.780        13
49.800        30
49.820         3
49.840        10
49.860        13
49.880        10
49.900        23
49.920         3
49.940        13
49.960        13
49.980        20
50.000        23
50.020        20
50.040        30
50.060         7
50.080        13
50.100        10
50.120        10
50.140         7
50.160         0
50.180        10
50.200        40
50.220        20
50.240         7
50.260        13
50.280        10
50.300        20
50.320        13
50.340        20
50.360        17
50.380        17
50.400        10
50.420        13
50.440        17
50.460        27
50.480         0
50.500        23
50.520        10
50.540        30
50.560        10
50.580        17
50.600        20
50.620        43
50.640        17
50.660         7
50.680        20
50.700        20
50.720        13
50.740        10
50.760        17
50.780        13
50.800        27
50.820        20
50.840        17
50.860        17
50.880         7
50.900        10
50.920        17
50.940        20
50.960        27
50.980         7
51.000        10
51.020         0
51.040        23
51.060        10
51.080        20
51.100        23
51.120        17
51.140         3
51.160        23
51.180        20
51.200         7
51.220        10
51.240         7
51.260        30
51.280        17
51.300        10
51.320        27
51.340        13
51.360        10
51.380        17
51.400         7
51.420        10
51.440        13
51.460        20
51.480        27
51.500        17
51.520        23
51.540        20
51.560        17
51.580        10
51.600        17
51.620        10
51.640        17
51.660        13
51.680        53
51.700         7
51.720        20
51.740         7
51.760        23
51.780        10
51.800        20
51.820        33
51.840        17
51.860        17
51.880        20
51.900        17
51.920        17
51.940        30
51.960        13
51.980        13
52.000        17
52.020        27
52.040        17
52.060        27
52.080        20
52.100        30
52.120        10
52.140         3
52.160        10
52.180        17
52.200        27
52.220        20
52.240        13
52.260        20
52.280        23
52.300        20
52.320        13
52.340        17
52.360        17
52.380        10
52.400        17
52.420        40
52.440        20
52.460        23
52.480        20
52.500        30
52.520        13
52.540        37
52.560        50
52.580        37
52.600        30
52.620        30
52.640        30
52.660        33
52.680        20
52.700        23
52.720        27
52.740        27
52.760        10
52.780        13
52.800        17
52.820        23
52.840        20
52.860        17
52.880        20
52.900        13
52.920        13
52.940        17
52.960        20
52.980        17
53.000        23
53.020        33
53.040        17
53.060         7
53.080        10
53.100        10
53.120        23
53.140        10
53.160         7
53.180        10
53.200        27
53.220        13
53.240        17
53.260        23
53.280        10
53.300         7
53.320        23
53.340        30
53.360         7
53.380        20
53.400        17
53.420        13
53.440        27
53.460        17
53.480        17
53.500         7
53.520        13
53.540        20
53.560        17
53.580         3
53.600        13
53.620        20
53.640        27
53.660        10
53.680        27
53.700        17
53.720        10
53.740         3
53.760        20
53.780        17
53.800        13
53.820        10
53.840        17
53.860         7
53.880        17
53.900         7
53.920        13
53.940        20
53.960        17
53.980        10
54.000        23
54.020        13
54.040        13
54.060         7
54.080         7
54.100        17
54.120        23
54.140         3
54.160        20
54.180        10
54.200        20
54.220        13
54.240         7
54.260        27
54.280        20
54.300        10
54.320        20
54.340        30
54.360        13
54.380        17
54.400        20
54.420        13
54.440        17
54.460        30
54.480         7
54.500        10
54.520        10
54.540        23
54.560        13
54.580        13
54.600        13
54.620        13
54.640        17
54.660        23
54.680        23
54.700         7
54.720        13
54.740         7
54.760         3
54.780        40
54.800        17
54.820        40
54.840        27
54.860        20
54.880        30
54.900        10
54.920        23
54.940        20
54.960        30
54.980        13
55.000        40
55.020        13
55.040        17
55.060        17
55.080        17
55.100        23
55.120        23
55.140        30
55.160        30
55.180        30
55.200        37
55.220        47
55.240        53
55.260        53
55.280        73
55.300        60
55.320        97
55.340        73
55.360        93
55.380       133
55.400       223
55.420       270
55.440       280
55.460       360
55.480       506
55.500       490
55.520       590
55.540       593
55.560       533
55.580       526
55.600       510
55.620       397
55.640       470
55.660       423
55.680       393
55.700       280
55.720       280
55.740       250
55.760       217
55.780       167
55.800       133
55.820       137
55.840        97
55.860        80
55.880        83
55.900        47
55.920        40
55.940        57
55.960        27
55.980        30
56.000        30
56.020        33
56.040        23
56.060        30
56.080        30
56.100        23
56.120        33
56.140        23
56.160        13
56.180        30
56.200        33
56.220        20
56.240        40
56.260        17
56.280        20
56.300        20
56.320        20
56.340        27
56.360        10
56.380        30
56.400        20
56.420        17
56.440        13
56.460        20
56.480         7
56.500         3
56.520        20
56.540        23
56.560        20
56.580        13
56.600        27
56.620        20
56.640        27
56.660         7
56.680        20
56.700        17
56.720        10
56.740        13
56.760        17
56.780        10
56.800        20
56.820        10
56.840        17
56.860        33
56.880        20
56.900        17
56.920        23
56.940         7
56.960        13
56.980        13
57.000        13
57.020        13
57.040         7
57.060         7
57.080         7
57.100         7
57.120         7
57.140        27
57.160        17
57.180        13
57.200        23
57.220         7
57.240        13
57.260        17
57.280        10
57.300        23
57.320        13
57.340        13
57.360        13
57.380        30
57.400        23
57.420        27
57.440        37
57.460        43
57.480        53
57.500        97
57.520       123
57.540       147
57.560       130
57.580        77
57.600        53
57.620        40
57.640        23
57.660        63
57.680        70
57.700        57
57.720        50
57.740        37
57.760        13
57.780        20
57.800         7
57.820        20
57.840        10
57.860        17
57.880        13
57.900         7
57.920         0
57.940        40
57.960        30
57.980        33
58.000        17
58.020        33
58.040        23
58.060        13
58.080        33
58.100        17
58.120        27
58.140        13
58.160        27
58.180        17
58.200        27
58.220        20
58.240        23
58.260        27
58.280        30
58.300        30
58.320        17
58.340        10
58.360        10
58.380        20
58.400        17
58.420        20
58.440         7
58.460        27
58.480        30
58.500        20
58.520        17
58.540        20
58.560        23
58.580        20
58.600         7
58.620        23
58.640        13
58.660        20
58.680        20
58.700         7
58.720        17
58.740        30
58.760        23
58.780        13
58.800        10
58.820         3
58.840         7
58.860        17
58.880        10
58.900        23
58.920        20
58.940        13
58.960        20
58.980         3
59.000         7
59.020        17
59.040        20
59.060        17
59.080         3
59.100        13
59.120        10
59.140        13
59.160        27
59.180         3
59.200        17
59.220        27
59.240        13
59.260        17
59.280         0
59.300        17
59.320        10
59.340        13
59.360         7
59.380        20
59.400        20
59.420        13
59.440        13
59.460         7
59.480        20
59.500         7
59.520        27
59.540         7
59.560        20
59.580         3
59.600        17
59.620        37
59.640        20
59.660        23
59.680        20
59.700        27
59.720        10
59.740         3
59.760        23
59.780        13
59.800        10
59.820        10
59.840         7
59.860         7
59.880        17
59.900        27
59.920         3
59.940        13
59.960         7
59.980         7
60.000         7
