20.000        43
20.020        90
20.040        40
20.060        60
20.080       113
20.100        43
20.120        40
20.140        33
20.160        20
20.180        20
20.200        50
20.220        60
20.240        57
20.260        63
20.280        53
20.300        70
20.320        47
20.340        37
20.360        37
20.380        63
20.400        37
20.420        57
20.440        70
20.460        30
20.480        47
20.500        30
20.520        47
20.540        67
20.560        43
20.580        60
20.600        47
20.620        40
20.640        47
20.660        53
20.680        63
20.700        57
20.720        63
20.740        87
20.760        33
20.780        53
20.800        50
20.820        67
20.840        70
20.860        67
20.880        53
20.900        60
20.920        53
20.940        43
20.960        33
20.980        63
21.000        40
21.020        47
21.040        37
21.060        30
21.080        47
21.100        70
21.120        53
21.140        40
21.160        30
21.180        60
21.200        43
21.220        53
21.240        57
21.260        30
21.280        57
21.300        43
21.320        40
21.340        40
21.360        40
21.380        53
21.400        37
21.420        47
21.440        53
21.460        77
21.480        50
21.500        30
21.520        57
21.540        40
21.560        47
21.580        53
21.600        63
21.620        50
21.640       117
21.660       103
21.680       100
21.700       100
21.720       147
21.740       180
21.760       233
21.780       390
21.800       290
21.820       230
21.840       220
21.860       143
21.880       157
21.900       150
21.920        83
21.940        97
21.960        83
21.980        70
22.000        30
22.020        60
22.040        40
22.060        63
22.080        57
22.100        43
22.120        50
22.140        40
22.160        43
22.180        77
22.200        60
22.220        50
22.240        67
22.260        30
22.280        57
22.300        40
22.320        40
22.340        47
22.360        37
22.380        23
22.400        53
22.420        53
22.440        47
22.460        57
22.480        30
22.500        47
22.520        40
22.540        67
22.560        47
22.580        60
22.600        40
22.620        37
22.640        40
22.660        57
22.680        47
22.700        47
22.720        30
22.740        47
22.760        47
22.780        33
22.800        47
22.820        60
22.840        63
22.860        67
22.880        53
22.900        47
22.920        53
22.940        33
22.960        43
22.980        40
23.000        40
23.020        40
23.040        53
23.060        33
23.080        47
23.100        43
23.120        33
23.140        43
23.160        60
23.180        20
23.200        33
23.220        43
23.240        33
23.260        23
23.280        47
23.300        47
23.320        33
23.340        37
23.360        60
23.380        40
23.400        40
23.420        57
23.440        30
23.460        33
23.480        50
23.500        33
23.520        60
23.540        40
23.560        20
23.580        53
23.600        17
23.620        60
23.640        40
23.660        57
23.680        63
23.700        37
23.720        60
23.740        60
23.760        27
23.780        43
23.800        37
23.820        17
23.840        20
23.860        60
23.880        47
23.900        47
23.920        30
23.940        43
23.960        50
23.980        53
24.000        50
24.020        30
24.040        43
24.060        23
24.080        27
24.100        47
24.120        43
24.140        53
24.160        43
24.180        40
24.200        33
24.220        37
24.240        43
24.260        23
24.280        47
24.300        40
24.320        23
24.340        33
24.360        43
24.380        40
24.400        53
24.420        53
24.440        30
24.460        50
24.480        37
24.500        27
24.520        50
24.540        60
24.560        23
24.580        33
24.600        67
24.620        53
24.640        53
24.660        40
24.680        27
24.700        50
24.720        40
24.740        17
24.760        47
24.780        37
24.800        40
24.820        27
24.840        60
24.860        33
24.880        57
24.900        63
24.920        47
24.940        47
24.960        20
24.980        50
25.000        40
25.020        40
25.040        63
25.060        60
25.080        20
25.100        40
25.120        53
25.140        23
25.160        47
25.180        33
25.200        37
25.220        50
25.240        20
25.260        47
25.280        33
25.300        23
25.320        37
25.340        27
25.360        50
25.380        50
25.400        40
25.420        30
25.440        50
25.460        43
25.480        63
25.500        40
25.520        27
25.540        43
25.560        40
25.580        40
25.600        33
25.620        67
25.640        23
25.660        37
25.680        30
25.700        50
25.720        53
25.740        33
25.760        47
25.780        40
25.800        40
25.820        43
25.840        47
25.860        20
25.880        40
25.900        23
25.920        27
25.940        17
25.960        47
25.980        47
26.000        43
26.020        57
26.040        50
26.060        37
26.080        30
26.100        47
26.120        43
26.140        50
26.160        37
26.180        40
26.200        63
26.220        50
26.240        23
26.260        27
26.280        47
26.300        47
26.320        20
26.340        30
26.360        50
26.380        23
26.400        33
26.420        30
26.440        43
26.460        50
26.480        40
26.500        17
26.520        37
26.540        33
26.560        23
26.580        30
26.600        43
26.620        30
26.640        23
26.660        17
26.680        33
26.700        47
26.720        30
26.740        37
26.760        23
26.780        33
26.800        50
26.820        30
26.840        27
26.860        30
26.880        40
26.900        37
26.920        13
26.940        37
26.960        60
26.980        40
27.000        63
27.020        53
27.040        30
27.060        33
27.080        27
27.100        40
27.120        27
27.140        40
27.160        33
27.180        23
27.200        30
27.220        23
27.240        30
27.260        47
27.280        37
27.300        30
27.320        50
27.340        33
27.360        43
27.380        53
27.400        37
27.420        47
27.440        30
27.460        33
27.480        30
27.500        43
27.520        33
27.540        60
27.560        30
27.580        13
27.600        23
27.620        47
27.640        33
27.660        60
27.680        43
27.700        33
27.720        27
27.740        50
27.760        47
27.780        63
27.800        23
27.820        27
27.840        87
27.860        93
27.880        63
27.900        80
27.920        80
27.940        57
27.960        90
27.980        30
28.000        37
28.020        30
28.040        40
28.060        50
28.080        57
28.100        50
28.120        50
28.140        53
28.160        33
28.180        33
28.200        30
28.220        30
28.240        53
28.260        23
28.280        33
28.300        37
28.320        33
28.340        43
28.360        40
28.380        40
28.400        50
28.420        33
28.440        27
28.460        37
28.480        37
28.500        47
28.520        40
28.540        27
28.560        37
28.580        23
28.600        60
28.620        40
28.640        27
28.660        23
28.680        50
28.700        37
28.720        33
28.740        30
28.760        40
28.780        43
28.800        30
28.820        30
28.840        63
28.860        30
28.880        30
28.900        33
28.920        33
28.940        43
28.960        23
28.980        37
29.000        27
29.020        30
29.040        23
29.060        27
29.080        10
29.100        27
29.120        47
29.140        27
29.160        43
29.180        23
29.200        27
29.220        40
29.240        60
29.260        47
29.280        40
29.300        27
29.320        40
29.340        27
29.360        27
29.380        43
29.400        57
29.420        27
29.440        33
29.460        63
29.480        53
29.500        43
29.520        43
29.540        30
29.560        43
29.580        23
29.600        33
29.620        30
29.640        40
29.660        40
29.680        27
29.700        33
29.720        43
29.740        40
29.760        33
29.780        33
29.800        40
29.820        40
29.840        40
29.860        43
29.880        53
29.900        47
29.920        60
29.940        63
29.960        63
29.980        57
30.000        33
30.020        57
30.040        57
30.060        40
30.080        30
30.100        33
30.120        57
30.140        27
30.160        43
30.180        73
30.200        83
30.220        70
30.240        57
30.260        57
30.280        33
30.300        77
30.320        57
30.340       103
30.360        57
30.380        57
30.400        60
30.420        73
30.440        43
30.460        50
30.480        83
30.500        73
30.520        77
30.540        47
30.560       110
30.580       103
30.600       110
30.620       133
30.640       167
30.660       133
30.680       197
30.700       203
30.720       287
30.740       290
30.760       420
30.780       570
30.800       706
30.820       803
30.840      1120
30.860      1289
30.880      1876
30.900      2296
30.920      3335
30.940      4262
30.960      4978
30.980      4961
31.000      4428
31.020      3585
31.040      3075
31.060      2482
31.080      1623
31.100      1016
31.120       603
31.140       363
31.160       240
31.180       223
31.200       173
31.220       163
31.240       107
31.260       140
31.280       100
31.300        80
31.320        80
31.340        83
31.360        80
31.380       100
31.400        53
31.420        50
31.440        43
31.460        63
31.480        73
31.500        63
31.520        60
31.540        50
31.560        23
31.580        70
31.600        70
31.620        67
31.640        67
31.660        47
31.680        83
31.700        73
31.720        47
31.740        47
31.760        60
31.780        60
31.800        67
31.820        40
31.840        70
31.860        37
31.880        57
31.900        43
31.920        43
31.940        53
31.960        50
31.980        70
32.000        37
32.020        63
32.040        53
32.060        50
32.080        47
32.100        40
32.120        47
32.140        43
32.160        37
32.180        27
32.200        60
32.220        13
32.240        53
32.260        27
32.280        60
32.300        57
32.320        60
32.340        80
32.360        67
32.380        47
32.400        43
32.420        57
32.440        43
32.460        40
32.480        40
32.500        37
32.520        40
32.540        53
32.560        43
32.580        47
32.600        57
32.620        53
32.640        30
32.660        37
32.680        50
32.700        43
32.720        33
32.740        50
32.760        53
32.780        57
32.800        37
32.820        37
32.840        27
32.860        63
32.880        43
32.900        53
32.920        30
32.940        43
32.960        53
32.980        63
33.000        27
33.020        13
33.040        30
33.060        37
33.080        33
33.100        30
33.120        63
33.140        50
33.160        43
33.180        33
33.200        27
33.220        43
33.240        67
33.260        50
33.280        37
33.300        23
33.320        67
33.340        47
33.360        43
33.380        50
33.400        77
33.420        33
33.440        37
33.460        33
33.480        30
33.500        50
33.520        53
33.540        30
33.560        47
33.580        33
33.600        60
33.620        60
33.640        63
33.660        23
33.680        47
33.700        53
33.720        37
33.740        33
33.760        33
33.780        37
33.800        20
33.820        43
33.840        20
33.860        33
33.880        40
33.900        27
33.920        47
33.940        30
33.960        60
33.980        23
34.000        27
34.020        27
34.040        50
34.060        47
34.080        23
34.100        53
34.120        43
34.140        30
34.160        60
34.180        53
34.200        57
34.220        47
34.240        50
34.260        37
34.280        37
34.300        27
34.320        53
34.340        53
34.360        30
34.380        33
34.400        53
34.420        33
34.440        60
34.460        43
34.480        27
34.500        33
34.520        47
34.540        47
34.560        33
34.580        30
34.600        23
34.620        37
34.640        20
34.660        27
34.680        33
34.700        33
34.720        23
34.740        27
34.760        20
34.780        37
34.800        30
34.820        30
34.840        33
34.860        27
34.880        33
34.900        30
34.920        37
34.940        30
34.960        27
34.980        33
35.000        37
35.020        63
35.040        53
35.060        40
35.080        57
35.100        43
35.120        50
35.140        73
35.160        70
35.180        77
35.200        53
35.220        33
35.240        27
35.260        60
35.280        47
35.300        57
35.320        33
35.340        43
35.360        33
35.380        10
35.400        30
35.420        27
35.440        30
35.460        40
35.480        40
35.500        27
35.520        33
35.540        30
35.560        33
35.580        40
35.600        37
35.620        37
35.640        37
35.660        50
35.680        27
35.700        40
35.720        43
35.740        23
35.760        40
35.780        37
35.800        30
35.820        13
35.840        30
35.860        27
35.880        23
35.900        33
35.920        53
35.940        30
35.960        37
35.980        37
36.000        40
36.020        33
36.040        33
36.060        40
36.080        17
36.100        37
36.120        27
36.140        27
36.160        30
36.180        37
36.200        37
36.220        47
36.240        27
36.260        40
36.280        20
36.300        30
36.320        23
36.340        37
36.360        33
36.380        37
36.400        20
36.420        30
36.440        40
36.460        10
36.480        50
36.500        40
36.520        40
36.540        23
36.560        17
36.580        27
36.600        23
36.620        17
36.640        23
36.660        20
36.680        27
36.700        43
36.720        23
36.740        43
36.760        17
36.780        33
36.800        20
36.820        37
36.840        43
36.860        20
36.880        37
36.900        33
36.920        23
36.940        17
36.960        23
36.980        33
37.000        50
37.020        47
37.040        30
37.060        37
37.080        47
37.100        30
37.120        30
37.140        23
37.160        47
37.180        40
37.200        20
37.220        33
37.240        17
37.260        37
37.280        23
37.300        43
37.320        30
37.340        23
37.360        27
37.380        17
37.400        27
37.420        37
37.440        37
37.460        20
37.480        23
37.500        27
37.520        23
37.540        30
37.560        27
37.580        13
37.600        40
37.620        23
37.640        27
37.660        33
37.680        23
37.700        20
37.720        43
37.740        30
37.760        53
37.780        20
37.800        30
37.820        50
37.840        40
37.860        40
37.880        30
37.900        47
37.920        47
37.940        33
37.960        37
37.980        53
38.000        83
38.020        67
38.040        73
38.060       107
38.080       123
38.100        93
38.120       163
38.140       210
38.160       297
38.180       310
38.200       330
38.220       310
38.240       257
38.260       307
38.280       207
38.300       223
38.320       167
38.340       140
38.360        67
38.380        73
38.400        43
38.420        27
38.440        60
38.460        27
38.480        30
38.500        30
38.520        23
38.540        37
38.560        20
38.580        20
38.600        27
38.620        33
38.640        20
38.660        30
38.680        27
38.700        50
38.720        40
38.740        30
38.760        27
38.780        30
38.800        23
38.820        23
38.840        33
38.860        37
38.880        37
38.900        30
38.920        37
38.940        43
38.960        10
38.980        17
39.000        27
39.020        27
39.040        23
39.060        23
39.080        20
39.100        37
39.120        13
39.140        33
39.160        20
39.180        47
39.200        17
39.220         7
39.240        33
39.260        30
39.280        20
39.300        30
39.320        13
39.340        23
39.360        23
39.380        17
39.400        13
39.420        20
39.440        40
39.460        30
39.480        20
39.500        27
39.520        27
39.540        13
39.560        20
39.580        30
39.600        27
39.620        40
39.640        33
39.660        20
39.680        30
39.700        27
39.720        37
39.740        20
39.760        40
39.780        20
39.800        33
39.820        23
39.840        33
39.860        37
39.880        43
39.900        40
39.920        30
39.940        23
39.960        37
39.980        43
40.000        37
40.020        23
40.040        30
40.060        20
40.080        23
40.100        40
40.120        13
40.140        23
40.160        20
40.180        30
40.200        33
40.220        17
40.240        37
40.260        27
40.280        33
40.300        37
40.320        20
40.340        43
40.360        17
40.380        23
40.400        33
40.420        33
40.440        20
40.460        20
40.480        40
40.500        20
40.520        20
40.540        23
40.560        20
40.580        37
40.600        23
40.620        27
40.640        30
40.660        17
40.680        40
40.700        37
40.720        13
40.740        30
40.760        10
40.780        27
40.800        43
40.820        27
40.840        27
40.860        20
40.880        17
40.900        10
40.920        10
40.940        27
40.960        23
40.980        33
41.000        23
41.020        27
41.040        43
41.060        37
41.080        30
41.100        27
41.120        27
41.140        13
41.160        17
41.180        23
41.200        27
41.220        17
41.240        17
41.260        30
41.280        33
41.300        20
41.320         7
41.340        37
41.360        27
41.380        30
41.400        27
41.420        33
41.440        17
41.460        33
41.480        17
41.500        17
41.520        37
41.540        13
41.560        23
41.580        30
41.600        23
41.620        30
41.640        37
41.660        53
41.680        70
41.700        80
41.720        83
41.740        40
41.760        50
41.780        40
41.800        43
41.820        53
41.840        67
41.860        13
41.880        37
41.900        23
41.920        27
41.940        23
41.960        27
41.980        37
42.000        27
42.020        33
42.040        13
42.060        13
42.080        23
42.100        37
42.120        27
42.140        10
42.160        33
42.180        30
42.200        20
42.220        13
42.240        13
42.260        23
42.280        33
42.300        37
42.320        33
42.340        23
42.360        17
42.380        17
42.400        17
42.420        10
42.440        10
42.460        17
42.480        17
42.500        33
42.520        37
42.540        23
42.560        20
42.580        37
42.600        17
42.620        33
42.640        33
42.660        23
42.680        27
42.700        20
42.720        43
42.740        20
42.760        27
42.780        30
42.800        30
42.820        23
42.840        37
42.860        10
42.880        20
42.900        23
42.920        20
42.940        30
42.960        27
42.980        53
43.000        30
43.020        27
43.040        27
43.060        27
43.080        17
43.100        27
43.120        40
43.140        37
43.160        33
43.180        30
43.200        37
43.220        27
43.240        20
43.260        20
43.280        47
43.300        43
43.320        17
43.340        17
43.360        40
43.380        33
43.400        60
43.420        47
43.440        23
43.460        40
43.480        60
43.500        30
43.520        50
43.540        20
43.560        30
43.580        37
43.600        23
43.620        27
43.640        40
43.660        27
43.680        23
43.700        37
43.720        17
43.740        17
43.760        27
43.780        43
43.800        20
43.820        33
43.840        27
43.860        40
43.880        37
43.900        67
43.920        30
43.940        53
43.960        37
43.980        57
44.000        63
44.020        73
44.040        63
44.060        97
44.080       113
44.100       113
44.120       150
44.140       157
44.160       143
44.180       213
44.200       200
44.220       303
44.240       387
44.260       480
44.280       563
44.300       740
44.320       953
44.340      1116
44.360      1230
44.380      1226
44.400      1263
44.420      1080
44.440       943
44.460       943
44.480       826
44.500       820
44.520       680
44.540       553
44.560       377
44.580       270
44.600       210
44.620       193
44.640       143
44.660       100
44.680       130
44.700       120
44.720        73
44.740        67
44.760        70
44.780        57
44.800        37
44.820        37
44.840        70
44.860        67
44.880        40
44.900        30
44.920        37
44.940        40
44.960        47
44.980        53
45.000        37
45.020        30
45.040        20
45.060        33
45.080        47
45.100        27
45.120        43
45.140        20
45.160        47
45.180        30
45.200        20
45.220        33
45.240        27
45.260        50
45.280        10
45.300        27
45.320        30
45.340        47
45.360        23
45.380        47
45.400        17
45.420        33
45.440        20
45.460        20
45.480        17
45.500        30
45.520        20
45.540        30
45.560        20
45.580        30
45.600        17
45.620        23
45.640        20
45.660        30
45.680        43
45.700        30
45.720        13
45.740        40
45.760        27
45.780        27
45.800        33
45.820        40
45.840        27
45.860        20
45.880        40
45.900        13
45.920        17
45.940        30
45.960        23
45.980        23
46.000        13
46.020        33
46.040        10
46.060        10
46.080        23
46.100        37
46.120        23
46.140        30
46.160        17
46.180        30
46.200        23
46.220        30
46.240        20
46.260        13
46.280        17
46.300        27
46.320        20
46.340        40
46.360        20
46.380        33
46.400        10
46.420        40
46.440        37
46.460        27
46.480        27
46.500        13
46.520        37
46.540        10
46.560        13
46.580        30
46.600        37
46.620        10
46.640        13
46.660        10
46.680        17
46.700        43
46.720        27
46.740         7
46.760        30
46.780        33
46.800        13
46.820        47
46.840        20
46.860        10
46.880        20
46.900        20
46.920        17
46.940        20
46.960        27
46.980        17
47.000        13
47.020        23
47.040        20
47.060        20
47.080        40
47.100        27
47.120         7
47.140        47
47.160         7
47.180        20
47.200        13
47.220        13
47.240        27
47.260        23
47.280        40
47.300        17
47.320        13
47.340        17
47.360        33
47.380        27
47.400        37
47.420        17
47.440        20
47.460        17
47.480        30
47.500        23
47.520        17
47.540        13
47.560        13
47.580        23
47.600        10
47.620        23
47.640        30
47.660        13
47.680        20
47.700        20
47.720        20
47.740        20
47.760        27
47.780         7
47.800        17
47.820        23
47.840        13
47.860         7
47.880        27
47.900        33
47.920        17
47.940         7
47.960        10
47.980        20
48.000         7
48.020        10
48.040        17
48.060        20
48.080         7
48.100        20
48.120         7
48.140        10
48.160        20
48.180        33
48.200        20
48.220        13
48.240        23
48.260        13
48.280        13
48.300        17
48.320        33
48.340        17
48.360        23
48.380        30
48.400        23
48.420        30
48.440         7
48.460        10
48.480        33
48.500        27
48.520        17
48.540        10
48.560        10
48.580        23
48.600        10
48.620        23
48.640        10
48.660        13
48.680        20
48.700        17
48.720        17
48.740        20
48.760        10
48.780        30
48.800        13
48.820        20
48.840        20
48.860        13
48.880        13
48.900        13
48.920        20
48.940        17
48.960        23
48.980        27
49.000        17
49.020        17
49.040         7
49.060         7
49.080        27
49.100         7
49.120        23
49.140        27
49.160        20
49.180        10
49.200        10
49.220        27
49.240        20
49.260        27
49.280        17
49.300        40
49.320        17
49.340        20
49.360        27
49.380        33
49.400        23
49.420        23
49.440        13
49.460        17
49.480        27
49.500        23
49.520        17
49.540        20
49.560        13
49.580        30
49.600        23
49.620         7
49.640        23
49.660        27
49.680        27
49.700        17
49.720        17
49.740        10
49.760        33
49.780        13
49.800        13
49.820        20
49.840        20
49.860        27
49.880        17
49.900        30
49.920        20
49.940        10
49.960        27
49.980        17
50.000        13
50.020        30
50.040        20
50.060        17
50.080        27
50.100        33
50.120        17
50.140        17
50.160        13
50.180        20
50.200        37
50.220         7
50.240         3
50.260        17
50.280        23
50.300        17
50.320        23
50.340        17
50.360        17
50.380         7
50.400        13
50.420         3
50.440        17
50.460        17
50.480        17
50.500        17
50.520        30
50.540        17
50.560        20
50.580        13
50.600        33
50.620        13
50.640        33
50.660         7
50.680        33
50.700        17
50.720        13
50.740        23
50.760        30
50.780        20
50.800        33
50.820        27
50.840        17
50.860        13
50.880        43
50.900        17
50.920        20
50.940        27
50.960        17
50.980         7
51.000        10
51.020        20
51.040        17
51.060        30
51.080        23
51.100        13
51.120        10
51.140        13
51.160        13
51.180        27
51.200         7
51.220        13
51.240        17
51.260        17
51.280         7
51.300        20
51.320        17
51.340        23
51.360        17
51.380        17
51.400        13
51.420        20
51.440        10
51.460        23
51.480        23
51.500        17
51.520        30
51.540         7
51.560         7
51.580        23
51.600        20
51.620        23
51.640        10
51.660        10
51.680        13
51.700        10
51.720        20
51.740        10
51.760        27
51.780        10
51.800        27
51.820        13
51.840        17
51.860         7
51.880         7
51.900        13
51.920         7
51.940        13
51.960         7
51.980        23
52.000        10
52.020        20
52.040        10
52.060        10
52.080        17
52.100        10
52.120        20
52.140        10
52.160        13
52.180        30
52.200        23
52.220        13
52.240        23
52.260        20
52.280        33
52.300        10
52.320        13
52.340        17
52.360        10
52.380        17
52.400        20
52.420        10
52.440        13
52.460        10
52.480        20
52.500        23
52.520        17
52.540        20
52.560        20
52.580        23
52.600        20
52.620        13
52.640        10
52.660        10
52.680        23
52.700        20
52.720        23
52.740        17
52.760        10
52.780        13
52.800         7
52.820        17
52.840        13
52.860        13
52.880        17
52.900        13
52.920        33
52.940         7
52.960         3
52.980        10
53.000        30
53.020        27
53.040         3
53.060        17
53.080        17
53.100        17
53.120         0
53.140        20
53.160        27
53.180        30
53.200        27
53.220         7
53.240        13
53.260        17
53.280        23
53.300        17
53.320        40
53.340        17
53.360        30
53.380        20
53.400        17
53.420        13
53.440         7
53.460        27
53.480         7
53.500        13
53.520        20
53.540         3
53.560        13
53.580         7
53.600        13
53.620        17
53.640        23
53.660        23
53.680        17
53.700        13
53.720        27
53.740        30
53.760        13
53.780        20
53.800        17
53.820        20
53.840        23
53.860        10
53.880        40
53.900        10
53.920        20
53.940        23
53.960        20
53.980        10
54.000        17
54.020        27
54.040        10
54.060        13
54.080        13
54.100        20
54.120        17
54.140        20
54.160         7
54.180        13
54.200        23
54.220        10
54.240        13
54.260        23
54.280         3
54.300        17
54.320        13
54.340        23
54.360        30
54.380        10
54.400        23
54.420         3
54.440        20
54.460        27
54.480        10
54.500        27
54.520        27
54.540        23
54.560        10
54.580        27
54.600        23
54.620        23
54.640        23
54.660        23
54.680        23
54.700        53
54.720        30
54.740        37
54.760        60
54.780        47
54.800        60
54.820        27
54.840        53
54.860        77
54.880        67
54.900       130
54.920       150
54.940       190
54.960       197
54.980       280
55.000       327
55.020       353
55.040       347
55.060       440
55.080       453
55.100       453
55.120       436
55.140       337
55.160       240
55.180       263
55.200       247
55.220       253
55.240       230
55.260       197
55.280       190
55.300       160
55.320       110
55.340        73
55.360        83
55.380        47
55.400        33
55.420        60
55.440        20
55.460        37
55.480        23
55.500        23
55.520        37
55.540        23
55.560        30
55.580        20
55.600         7
55.620        37
55.640        33
55.660         3
55.680        17
55.700        20
55.720        17
55.740        20
55.760        13
55.780        23
55.800        30
55.820        17
55.840        13
55.860        17
55.880        27
55.900        13
55.920        23
55.940        20
55.960        23
55.980        10
56.000        13
56.020        10
56.040        20
56.060        23
56.080        17
56.100        10
56.120        30
56.140        20
56.160        20
56.180        13
56.200        20
56.220        27
56.240        27
56.260        10
56.280        20
56.300        27
56.320        23
56.340        17
56.360        27
56.380        20
56.400        10
56.420        20
56.440        27
56.460        17
56.480        17
56.500         7
56.520        17
56.540         7
56.560        17
56.580        20
56.600        10
56.620        10
56.640         3
56.660        13
56.680        10
56.700        27
56.720         7
56.740        13
56.760        27
56.780        17
56.800         7
56.820        27
56.840         7
56.860        13
56.880        27
56.900        30
56.920        13
56.940        17
56.960        33
56.980        13
57.000         3
57.020        17
57.040        27
57.060         7
57.080        23
57.100         0
57.120        20
57.140        23
57.160        20
57.180        23
57.200        20
57.220        13
57.240        13
57.260        20
57.280        10
57.300        13
57.320        30
57.340        20
57.360        27
57.380        27
57.400        30
57.420        17
57.440        30
57.460        23
57.480        27
57.500        33
57.520        43
57.540        60
57.560        50
57.580        40
57.600        17
57.620        30
57.640         7
57.660        23
57.680        37
57.700        37
57.720        20
57.740        40
57.760        23
57.780        17
57.800        13
57.820        10
57.840        17
57.860        10
57.880        23
57.900        20
57.920        20
57.940        27
57.960        10
57.980        17
58.000        27
58.020        13
58.040        17
58.060        17
58.080        13
58.100        13
58.120        10
58.140        17
58.160        27
58.180        10
58.200        20
58.220         7
58.240        17
58.260         3
58.280        17
58.300        20
58.320        13
58.340        17
58.360         7
58.380         7
58.400        13
58.420        20
58.440        30
58.460         7
58.480        20
58.500        20
58.520        10
58.540         7
58.560        23
58.580        10
58.600         7
58.620        13
58.640        20
58.660         3
58.680        17
58.700        10
58.720        13
58.740        30
58.760        17
58.780         7
58.800        10
58.820        10
58.840        20
58.860        27
58.880        10
58.900         7
58.920         3
58.940        13
58.960        10
58.980        13
59.000        13
59.020        10
59.040        13
59.060        13
59.080         0
59.100        17
59.120        17
59.140        37
59.160        10
59.180        13
59.200        13
59.220        27
59.240         7
59.260         3
59.280        10
59.300         7
59.320        20
59.340        10
59.360        20
59.380        10
59.400        10
59.420        10
59.440        17
59.460        17
59.480        10
59.500        27
59.520         3
59.540        13
59.560        17
59.580        20
59.600        17
59.620         7
59.640        13
59.660        13
59.680        30
59.700        17
59.720        20
59.740        13
59.760         7
59.780        10
59.800        13
59.820        10
59.840         7
59.860         0
59.880         7
59.900        30
59.920        20
59.940         7
59.960        27
59.980         3
60.000         3
