20.000        23
20.020        23
20.040        33
20.060        50
20.080        57
20.100        43
20.120        43
20.140        40
20.160        37
20.180        27
20.200        17
20.220        40
20.240        53
20.260        33
20.280        33
20.300        37
20.320        23
20.340        50
20.360        47
20.380        27
20.400        30
20.420        43
20.440        43
20.460        47
20.480        63
20.500        57
20.520        43
20.540        43
20.560        43
20.580        37
20.600        37
20.620        37
20.640        57
20.660        33
20.680        47
20.700        57
20.720        27
20.740        47
20.760        30
20.780        43
20.800        47
20.820        50
20.840        23
20.860        40
20.880        53
20.900        47
20.920        23
20.940        50
20.960        33
20.980        53
21.000        33
21.020        30
21.040        40
21.060        50
21.080        33
21.100        50
21.120        63
21.140        43
21.160        43
21.180        17
21.200        57
21.220        57
21.240        43
21.260        53
21.280        43
21.300        77
21.320        37
21.340        53
21.360        43
21.380        67
21.400        57
21.420        27
21.440        50
21.460        33
21.480        50
21.500        40
21.520        37
21.540        50
21.560        33
21.580        37
21.600        60
21.620        37
21.640        53
21.660        37
21.680        30
21.700        33
21.720        47
21.740        47
21.760        53
21.780        27
21.800        27
21.820        47
21.840        47
21.860        30
21.880        43
21.900        53
21.920        50
21.940        23
21.960        47
21.980        43
22.000        37
22.020        23
22.040        40
22.060        33
22.080        47
22.100        50
22.120        40
22.140        67
22.160        60
22.180        17
22.200        30
22.220        40
22.240        23
22.260        33
22.280        30
22.300        37
22.320        23
22.340        20
22.360        33
22.380        27
22.400        17
22.420        40
22.440        20
22.460        37
22.480        60
22.500        23
22.520        30
22.540        40
22.560        47
22.580        47
22.600        33
22.620        27
22.640        27
22.660        53
22.680        20
22.700        50
22.720        40
22.740        33
22.760        27
22.780        17
22.800        33
22.820        43
22.840        23
22.860        50
22.880        40
22.900        30
22.920        30
22.940        30
22.960        43
22.980        30
23.000        33
23.020        40
23.040        37
23.060        33
23.080        43
23.100        47
23.120        30
23.140        23
23.160        33
23.180        43
23.200        43
23.220        40
23.240        17
23.260        27
23.280        33
23.300        37
23.320        27
23.340        20
23.360        37
23.380        43
23.400        47
23.420        17
23.440        27
23.460        33
23.480        63
23.500        47
23.520        37
23.540        23
23.560        17
23.580        37
23.600        37
23.620        53
23.640        47
23.660        27
23.680        47
23.700        27
23.720        40
23.740        37
23.760        17
23.780        20
23.800        30
23.820        23
23.840        37
23.860        27
23.880        40
23.900        27
23.920        27
23.940        20
23.960        20
23.980        43
24.000        37
24.020        27
24.040        17
24.060        33
24.080        33
24.100        33
24.120        37
24.140        43
24.160        13
24.180        40
24.200        57
24.220        37
24.240        20
24.260        30
24.280        30
24.300        50
24.320         7
24.340        33
24.360        30
24.380        43
24.400        43
24.420        50
24.440        37
24.460        17
24.480        43
24.500        10
24.520        43
24.540        30
24.560        50
24.580        30
24.600        30
24.620        57
24.640        47
24.660        37
24.680        47
24.700        30
24.720        37
24.740        27
24.760        50
24.780        37
24.800        53
24.820        50
24.840        53
24.860        43
24.880        40
24.900        40
24.920        27
24.940        37
24.960        40
24.980        43
25.000        37
25.020        30
25.040        23
25.060        33
25.080        37
25.100        37
25.120        40
25.140        33
25.160        40
25.180        33
25.200        30
25.220        50
25.240        30
25.260        13
25.280        63
25.300        40
25.320        30
25.340        43
25.360        53
25.380        30
25.400        33
25.420        33
25.440        47
25.460        57
25.480        17
25.500        23
25.520        43
25.540        17
25.560        30
25.580        30
25.600        40
25.620        50
25.640        63
25.660        50
25.680        37
25.700        33
25.720        27
25.740        37
25.760        37
25.780        47
25.800        37
25.820        43
25.840        37
25.860        53
25.880        23
25.900        40
25.920        53
25.940        43
25.960        23
25.980        17
26.000        50
26.020        43
26.040        43
26.060        43
26.080        17
26.100        30
26.120        23
26.140        13
26.160        27
26.180        30
26.200        53
26.220        37
26.240        33
26.260        30
26.280        27
26.300        37
26.320        60
26.340        30
26.360        17
26.380        23
26.400        40
26.420        50
26.440        43
26.460        20
26.480        33
26.500        27
26.520        47
26.540        23
26.560        33
26.580        20
26.600        33
26.620        40
26.640        23
26.660        30
26.680        50
26.700        23
26.720        27
26.740        43
26.760        33
26.780        30
26.800        67
26.820        53
26.840        20
26.860        23
26.880        47
26.900        33
26.920        30
26.940        40
26.960        47
26.980        30
27.000        30
27.020        23
27.040        10
27.060        33
27.080        33
27.100        17
27.120        30
27.140        33
27.160        47
27.180        33
27.200        33
27.220        23
27.240        27
27.260        30
27.280        33
27.300        50
27.320        33
27.340        23
27.360        13
27.380        33
27.400        43
27.420        50
27.440        30
27.460        33
27.480        33
27.500        30
27.520        33
27.540        50
27.560        23
27.580        43
27.600        23
27.620        40
27.640        20
27.660        27
27.680        20
27.700        43
27.720        43
27.740        30
27.760        23
27.780        33
27.800        53
27.820        47
27.840        27
27.860        30
27.880        37
27.900        40
27.920        37
27.940        20
27.960        23
27.980        37
28.000        30
28.020        33
28.040        33
28.060        43
28.080        27
28.100        43
28.120        43
28.140        47
28.160        27
28.180        23
28.200        27
28.220        47
28.240        13
28.260        27
28.280        57
28.300        20
28.320        43
28.340        37
28.360        37
28.380        40
28.400        23
28.420        37
28.440        33
28.460        27
28.480        53
28.500        47
28.520        23
28.540        20
28.560        27
28.580        17
28.600        37
28.620        27
28.640        33
28.660        33
28.680        40
28.700        30
28.720        23
28.740        40
28.760        53
28.780        23
28.800        30
28.820        23
28.840        53
28.860        30
28.880        37
28.900        23
28.920        27
28.940        30
28.960        37
28.980        30
29.000        37
29.020        50
29.040        33
29.060        33
29.080        40
29.100        50
29.120        63
29.140        27
29.160        53
29.180        30
29.200        83
29.220        70
29.240        80
29.260        43
29.280        47
29.300        73
29.320        57
29.340        57
29.360        53
29.380        67
29.400        40
29.420        60
29.440        67
29.460        37
29.480        37
29.500        33
29.520        27
29.540        37
29.560        17
29.580        47
29.600        37
29.620        30
29.640        37
29.660        33
29.680        40
29.700        47
29.720        30
29.740        33
29.760        43
29.780        27
29.800        37
29.820        27
29.840        37
29.860        20
29.880        37
29.900        27
29.920        43
29.940        40
29.960        57
29.980        23
30.000        43
30.020        30
30.040        23
30.060        43
30.080        30
30.100        47
30.120        57
30.140        63
30.160        50
30.180        43
30.200        57
30.220        43
30.240        37
30.260        43
30.280        40
30.300        50
30.320        47
30.340        63
30.360        70
30.380        43
30.400        60
30.420        40
30.440        63
30.460        97
30.480        70
30.500        60
30.520        60
30.540        73
30.560        53
30.580        67
30.600        67
30.620        53
30.640        73
30.660        80
30.680        73
30.700        50
30.720        67
30.740        50
30.760        47
30.780        67
30.800        43
30.820        37
30.840        40
30.860        60
30.880        57
30.900        50
30.920        43
30.940        43
30.960        20
30.980        23
31.000        50
31.020        57
31.040        50
31.060        23
31.080        40
31.100        20
31.120        43
31.140        40
31.160        33
31.180        20
31.200        27
31.220        37
31.240        30
31.260        23
31.280        30
31.300        23
31.320        40
31.340        27
31.360        27
31.380        37
31.400        43
31.420        23
31.440        50
31.460        50
31.480        33
31.500        10
31.520        30
31.540        50
31.560         7
31.580        43
31.600        33
31.620        17
31.640        50
31.660        37
31.680        30
31.700        27
31.720        27
31.740        17
31.760        37
31.780        43
31.800        47
31.820        43
31.840        20
31.860        47
31.880        27
31.900        47
31.920        30
31.940        17
31.960        20
31.980        23
32.000        23
32.020        13
32.040        33
32.060        30
32.080        20
32.100        23
32.120        27
32.140        30
32.160        20
32.180        33
32.200        23
32.220        30
32.240        27
32.260        23
32.280        20
32.300        17
32.320        27
32.340        20
32.360        30
32.380        23
32.400        43
32.420        50
32.440        23
32.460        20
32.480        40
32.500        10
32.520        30
32.540        27
32.560        13
32.580        23
32.600        10
32.620        23
32.640        10
32.660        20
32.680        17
32.700        17
32.720        37
32.740        23
32.760        23
32.780        33
32.800        30
32.820        10
32.840        40
32.860        37
32.880        33
32.900        37
32.920        23
32.940        27
32.960        27
32.980        50
33.000        23
33.020        17
33.040        10
33.060         7
33.080        30
33.100        30
33.120        20
33.140        13
33.160        27
33.180        20
33.200        37
33.220        17
33.240        27
33.260        30
33.280        27
33.300        17
33.320        30
33.340        23
33.360        23
33.380        13
33.400        10
33.420        23
33.440        23
33.460        27
33.480        13
33.500        43
33.520        37
33.540        37
33.560        17
33.580        23
33.600        17
33.620        27
33.640        27
33.660        27
33.680        13
33.700        30
33.720        50
33.740        23
33.760        30
33.780        20
33.800        40
33.820        17
33.840        23
33.860        33
33.880        23
33.900        17
33.920        30
33.940        20
33.960        27
33.980        40
34.000        13
34.020        23
34.040        43
34.060        40
34.080        17
34.100        20
34.120        53
34.140        13
34.160        27
34.180        23
34.200        23
34.220        20
34.240        20
34.260        30
34.280        10
34.300        17
34.320        23
34.340        13
34.360        23
34.380        23
34.400         0
34.420        17
34.440        40
34.460        17
34.480        40
34.500        20
34.520        30
34.540        17
34.560        20
34.580        33
34.600        17
34.620        37
34.640        20
34.660        30
34.680        23
34.700        17
34.720        40
34.740        13
34.760        33
34.780        17
34.800        30
34.820        20
34.840        30
34.860        23
34.880        20
34.900        37
34.920        23
34.940        27
34.960        33
34.980        17
35.000        33
35.020        20
35.040        10
35.060        23
35.080        20
35.100        33
35.120        20
35.140        17
35.160        13
35.180        10
35.200        23
35.220        13
35.240        13
35.260        30
35.280        27
35.300        20
35.320        23
35.340        27
35.360        37
35.380        17
35.400        30
35.420        27
35.440        13
35.460        20
35.480        27
35.500        13
35.520        23
35.540        23
35.560        33
35.580        40
35.600        50
35.620        23
35.640        33
35.660        33
35.680        30
35.700        33
35.720        23
35.740        33
35.760        33
35.780        13
35.800        40
35.820        40
35.840        20
35.860        23
35.880        43
35.900        27
35.920        13
35.940        27
35.960        33
35.980        33
36.000        30
36.020        43
36.040        23
36.060        33
36.080        37
36.100        20
36.120         7
36.140        37
36.160        23
36.180        30
36.200        20
36.220        27
36.240        33
36.260        17
36.280        30
36.300        33
36.320        17
36.340        23
36.360        20
36.380        37
36.400        23
36.420        20
36.440        33
36.460        23
36.480        10
36.500        33
36.520        30
36.540        37
36.560        40
36.580        20
36.600        33
36.620        17
36.640        17
36.660        27
36.680        20
36.700        20
36.720        23
36.740        23
36.760        33
36.780        20
36.800        20
36.820        23
36.840        13
36.860        27
36.880        47
36.900        40
36.920        17
36.940        30
36.960        30
36.980        40
37.000        33
37.020        23
37.040        37
37.060        27
37.080        47
37.100        27
37.120        50
37.140        20
37.160        50
37.180        30
37.200        33
37.220        20
37.240        23
37.260        60
37.280        30
37.300        50
37.320        30
37.340        53
37.360        57
37.380        57
37.400        73
37.420        57
37.440        77
37.460       100
37.480       117
37.500       123
37.520       140
37.540       140
37.560       193
37.580       173
37.600       240
37.620       260
37.640       267
37.660       273
37.680       323
37.700       450
37.720       560
37.740       633
37.760       703
37.780       866
37.800       890
37.820       903
37.840       910
37.860       783
37.880       870
37.900       730
37.920       606
37.940       493
37.960       443
37.980       350
38.000       257
38.020       303
38.040       227
38.060       220
38.080       147
38.100       157
38.120       157
38.140       167
38.160       107
38.180        87
38.200       123
38.220       107
38.240       117
38.260        77
38.280        73
38.300        77
38.320        83
38.340        83
38.360       107
38.380        57
38.400        80
38.420        63
38.440        67
38.460        47
38.480        50
38.500        60
38.520        60
38.540        37
38.560        50
38.580        47
38.600        63
38.620        47
38.640        37
38.660        57
38.680        40
38.700        57
38.720        30
38.740        27
38.760        47
38.780        27
38.800        43
38.820        27
38.840        43
38.860        60
38.880        37
38.900        33
38.920        23
38.940        37
38.960        33
38.980        47
39.000        37
39.020        40
39.040        43
39.060        23
39.080        47
39.100        40
39.120        57
39.140        40
39.160        43
39.180        37
39.200        47
39.220        43
39.240        67
39.260        33
39.280        57
39.300        50
39.320        47
39.340        43
39.360        57
39.380        47
39.400        33
39.420        30
39.440        10
39.460        33
39.480        37
39.500        30
39.520        50
39.540        17
39.560        27
39.580        37
39.600        50
39.620        47
39.640        33
39.660        20
39.680        27
39.700        20
39.720        13
39.740        20
39.760        37
39.780        10
39.800        33
39.820        47
39.840        30
39.860        30
39.880        30
39.900        40
39.920        20
39.940        20
39.960        40
39.980        27
40.000        20
40.020        13
40.040        30
40.060        17
40.080        17
40.100        17
40.120        23
40.140        27
40.160        13
40.180        27
40.200        13
40.220        17
40.240        30
40.260        43
40.280        40
40.300        23
40.320        30
40.340        23
40.360        23
40.380        20
40.400        30
40.420        47
40.440        30
40.460        23
40.480        20
40.500        13
40.520        20
40.540        17
40.560        30
40.580        20
40.600        20
40.620        53
40.640        23
40.660        30
40.680        37
40.700        33
40.720        23
40.740        27
40.760        20
40.780        20
40.800        33
40.820        40
40.840        20
40.860        23
40.880        10
40.900        20
40.920        20
40.940        33
40.960        30
40.980        20
41.000        43
41.020        20
41.040        20
41.060        37
41.080        13
41.100        30
41.120        37
41.140        33
41.160        30
41.180        40
41.200        23
41.220        27
41.240        20
41.260        27
41.280        20
41.300        30
41.320        23
41.340        23
41.360        33
41.380        13
41.400        33
41.420        23
41.440        30
41.460        20
41.480        17
41.500        10
41.520        27
41.540        20
41.560        20
41.580        33
41.600        27
41.620        23
41.640        40
41.660        13
41.680        23
41.700        30
41.720        30
41.740        13
41.760        23
41.780        43
41.800        10
41.820        40
41.840        33
41.860        30
41.880        30
41.900        23
41.920        20
41.940        30
41.960        23
41.980        23
42.000        20
42.020        40
42.040        17
42.060        23
42.080        23
42.100        27
42.120        30
42.140        13
42.160        23
42.180        13
42.200        17
42.220        23
42.240        33
42.260        20
42.280        27
42.300        37
42.320        33
42.340        33
42.360        23
42.380        33
42.400        27
42.420        23
42.440        20
42.460        27
42.480        27
42.500        13
42.520        17
42.540        23
42.560        23
42.580        50
42.600        17
42.620        17
42.640        13
42.660        67
42.680        17
42.700        23
42.720        27
42.740        13
42.760        33
42.780        17
42.800        30
42.820        13
42.840        37
42.860        10
42.880        23
42.900        20
42.920        17
42.940        33
42.960        23
42.980        40
43.000        37
43.020        33
43.040        40
43.060        37
43.080        47
43.100        53
43.120        40
43.140        30
43.160        63
43.180        23
43.200        20
43.220        27
43.240        43
43.260        33
43.280        17
43.300        47
43.320        30
43.340        47
43.360        33
43.380        33
43.400        60
43.420        40
43.440        27
43.460        33
43.480        37
43.500        30
43.520        37
43.540        63
43.560        33
43.580        30
43.600        33
43.620        27
43.640        60
43.660        50
43.680        60
43.700        80
43.720        53
43.740        47
43.760        47
43.780        73
43.800        37
43.820        47
43.840        57
43.860        27
43.880        33
43.900        47
43.920        40
43.940        40
43.960        50
43.980        33
44.000        50
44.020        43
44.040        57
44.060        40
44.080        33
44.100        27
44.120        33
44.140        27
44.160        37
44.180        20
44.200        33
44.220        27
44.240        30
44.260        47
44.280        20
44.300        37
44.320        33
44.340        17
44.360        17
44.380        33
44.400        20
44.420        30
44.440        33
44.460        20
44.480        27
44.500        10
44.520        27
44.540        23
44.560        17
44.580        17
44.600        23
44.620        30
44.640         3
44.660        20
44.680        50
44.700        33
44.720        23
44.740        27
44.760        30
44.780        23
44.800        20
44.820        23
44.840        17
44.860        33
44.880        13
44.900        40
44.920        37
44.940        43
44.960        33
44.980        10
45.000        10
45.020        23
45.040        23
45.060        37
45.080        37
45.100        23
45.120        13
45.140        20
45.160        17
45.180        17
45.200        13
45.220        17
45.240        60
45.260        17
45.280        30
45.300        30
45.320        30
45.340        17
45.360        23
45.380        30
45.400        20
45.420        33
45.440        20
45.460        30
45.480        30
45.500        10
45.520        47
45.540        10
45.560        17
45.580        30
45.600        33
45.620        23
45.640        10
45.660        23
45.680        17
45.700        23
45.720        27
45.740        17
45.760        33
45.780        27
45.800        10
45.820        27
45.840        17
45.860        37
45.880        27
45.900        17
45.920        27
45.940        20
45.960        27
45.980        13
46.000        33
46.020        23
46.040        30
46.060        20
46.080        17
46.100        13
46.120        17
46.140        10
46.160        20
46.180        13
46.200        30
46.220        20
46.240        27
46.260        23
46.280        17
46.300        13
46.320        27
46.340        30
46.360        23
46.380        27
46.400        30
46.420        20
46.440        20
46.460        20
46.480        20
46.500        27
46.520        30
46.540        20
46.560        17
46.580        17
46.600        20
46.620        30
46.640        43
46.660        27
46.680        20
46.700        17
46.720        30
46.740        17
46.760        23
46.780        17
46.800        23
46.820        20
46.840        23
46.860        30
46.880        23
46.900        33
46.920        20
46.940        47
46.960        13
46.980        40
47.000        40
47.020        27
47.040        33
47.060        30
47.080        37
47.100        27
47.120        30
47.140        10
47.160        23
47.180        33
47.200        20
47.220        40
47.240        47
47.260        60
47.280        27
47.300        33
47.320        37
47.340        70
47.360        40
47.380        33
47.400        37
47.420        40
47.440        23
47.460        33
47.480        33
47.500        27
47.520        37
47.540        27
47.560        40
47.580        47
47.600        20
47.620        13
47.640        20
47.660        30
47.680        13
47.700        30
47.720        23
47.740        17
47.760        13
47.780        17
47.800        37
47.820        40
47.840        13
47.860        23
47.880        47
47.900         7
47.920        23
47.940        27
47.960        27
47.980        10
48.000        23
48.020        30
48.040        27
48.060        20
48.080        33
48.100        30
48.120        33
48.140        17
48.160        27
48.180        27
48.200        37
48.220        10
48.240        40
48.260        30
48.280        37
48.300        33
48.320        17
48.340        37
48.360        40
48.380        30
48.400        20
48.420        30
48.440        53
48.460        47
48.480        23
48.500        47
48.520        40
48.540        40
48.560        40
48.580        33
48.600        23
48.620        23
48.640        33
48.660        13
48.680        20
48.700        30
48.720        20
48.740        37
48.760        27
48.780        17
48.800        10
48.820        10
48.840        20
48.860        23
48.880        27
48.900        17
48.920        13
48.940         7
48.960        30
48.980        17
49.000        13
49.020        10
49.040        27
49.060        17
49.080        27
49.100        27
49.120        23
49.140        10
49.160        20
49.180        23
49.200        27
49.220        23
49.240        13
49.260        27
49.280        17
49.300        20
49.320        23
49.340        40
49.360        30
49.380        47
49.400        20
49.420        20
49.440        10
49.460        27
49.480        27
49.500        20
49.520        20
49.540        27
49.560        40
49.580        10
49.600        23
49.620        17
49.640        10
49.660        17
49.680        27
49.700        30
49.720        30
49.740        20
49.760        10
49.780        23
49.800        33
49.820        27
49.840        30
49.860        10
49.880         7
49.900        20
49.920        10
49.940        33
49.960        17
49.980        20
50.000        10
50.020        20
50.040        30
50.060        23
50.080        27
50.100        23
50.120         7
50.140        10
50.160        27
50.180        30
50.200        23
50.220        20
50.240        30
50.260        23
50.280        23
50.300        30
50.320        10
50.340        20
50.360        13
50.380        17
50.400        17
50.420        20
50.440        20
50.460        20
50.480        13
50.500        20
50.520        13
50.540        27
50.560        17
50.580        10
50.600        10
50.620        10
50.640        20
50.660        33
50.680        10
50.700         7
50.720        17
50.740        13
50.760        13
50.780        20
50.800        37
50.820        33
50.840        27
50.860        20
50.880        23
50.900        17
50.920        43
50.940        27
50.960        10
50.980        33
51.000        13
51.020        33
51.040        13
51.060        17
51.080        13
51.100        37
51.120        17
51.140        30
51.160        33
51.180        30
51.200        20
51.220        23
51.240        30
51.260        20
51.280         7
51.300        10
51.320         7
51.340        20
51.360        23
51.380        20
51.400        20
51.420        23
51.440        20
51.460        20
51.480        17
51.500        23
51.520        20
51.540        23
51.560        20
51.580        17
51.600        30
51.620         3
51.640        10
51.660        33
51.680        13
51.700        20
51.720        37
51.740        23
51.760        17
51.780        37
51.800        37
51.820        27
51.840        17
51.860        30
51.880        13
51.900        27
51.920        33
51.940        13
51.960        43
51.980        20
52.000        20
52.020        30
52.040        20
52.060        20
52.080        20
52.100         7
52.120        20
52.140        30
52.160        17
52.180        23
52.200        20
52.220        33
52.240        23
52.260        23
52.280        17
52.300        20
52.320        27
52.340        20
52.360         7
52.380        27
52.400        27
52.420        23
52.440        37
52.460        23
52.480        20
52.500        33
52.520        27
52.540        53
52.560        40
52.580        63
52.600        43
52.620        53
52.640        47
52.660        43
52.680        43
52.700        20
52.720        37
52.740        53
52.760        50
52.780        30
52.800        23
52.820        43
52.840        27
52.860        37
52.880        23
52.900        23
52.920        30
52.940        60
52.960        20
52.980        20
53.000        10
53.020        27
53.040        27
53.060        20
53.080        43
53.100        17
53.120        13
53.140        30
53.160        27
53.180        23
53.200        37
53.220        30
53.240        17
53.260        20
53.280        13
53.300        23
53.320        13
53.340        13
53.360        37
53.380        20
53.400        33
53.420        10
53.440        27
53.460        20
53.480        40
53.500        17
53.520        23
53.540        23
53.560        20
53.580        10
53.600        17
53.620        30
53.640        27
53.660        17
53.680        20
53.700        27
53.720        30
53.740        20
53.760        30
53.780        23
53.800        17
53.820        13
53.840        27
53.860        23
53.880        30
53.900        30
53.920        17
53.940        17
53.960         3
53.980        23
54.000        27
54.020        20
54.040        13
54.060        33
54.080        30
54.100        13
54.120        40
54.140        27
54.160        17
54.180         7
54.200        27
54.220        27
54.240        53
54.260        23
54.280        30
54.300        50
54.320        27
54.340        50
54.360        33
54.380        50
54.400        53
54.420        50
54.440        57
54.460        43
54.480        57
54.500        43
54.520        47
54.540        57
54.560        67
54.580        60
54.600        53
54.620        33
54.640        37
54.660        50
54.680        53
54.700        30
54.720        10
54.740        30
54.760        63
54.780        27
54.800        57
54.820        17
54.840        30
54.860        10
54.880        23
54.900        20
54.920        20
54.940        27
54.960        10
54.980        27
55.000        27
55.020        60
55.040        17
55.060         7
55.080        10
55.100        23
55.120        10
55.140        13
55.160        27
55.180        10
55.200        17
55.220        23
55.240        17
55.260        33
55.280        30
55.300        33
55.320        23
55.340        30
55.360        20
55.380         7
55.400        27
55.420        10
55.440        27
55.460        27
55.480        27
55.500        37
55.520        20
55.540         3
55.560        20
55.580        23
55.600        27
55.620        13
55.640        10
55.660        17
55.680        27
55.700        23
55.720        17
55.740        20
55.760        13
55.780        20
55.800        40
55.820        27
55.840         7
55.860        27
55.880        20
55.900        27
55.920        20
55.940        20
55.960        10
55.980        20
56.000        13
56.020        13
56.040        13
56.060        23
56.080        13
56.100        17
56.120        13
56.140        23
56.160        13
56.180        33
56.200        10
56.220        27
56.240        13
56.260        10
56.280        17
56.300        37
56.320        40
56.340        20
56.360        23
56.380        17
56.400        23
56.420        17
56.440        13
56.460        10
56.480        37
56.500        23
56.520        33
56.540        20
56.560        30
56.580         7
56.600        20
56.620        30
56.640        13
56.660        17
56.680        23
56.700        17
56.720        20
56.740        20
56.760        20
56.780        37
56.800        23
56.820        23
56.840        23
56.860        17
56.880        30
56.900        27
56.920        23
56.940        13
56.960        13
56.980        23
57.000        13
57.020        17
57.040        17
57.060        13
57.080        27
57.100        23
57.120        10
57.140        13
57.160        20
57.180        27
57.200        27
57.220        43
57.240        33
57.260        30
57.280        20
57.300        23
57.320        33
57.340        27
57.360        23
57.380        20
57.400        40
57.420        30
57.440        40
57.460        17
57.480        27
57.500        43
57.520        17
57.540        20
57.560        27
57.580        23
57.600        30
57.620        23
57.640        10
57.660        20
57.680        27
57.700        23
57.720        20
57.740        27
57.760        13
57.780        23
57.800        13
57.820        23
57.840        27
57.860        17
57.880        13
57.900        20
57.920        13
57.940        23
57.960        10
57.980        10
58.000        17
58.020        13
58.040        17
58.060        23
58.080        23
58.100        13
58.120        27
58.140        17
58.160        27
58.180        23
58.200        27
58.220        13
58.240        10
58.260        10
58.280        27
58.300        23
58.320        10
58.340        23
58.360        23
58.380        13
58.400         7
58.420        17
58.440        13
58.460        30
58.480        10
58.500        23
58.520        23
58.540        13
58.560        17
58.580        13
58.600         7
58.620        10
58.640        10
58.660        13
58.680        10
58.700        13
58.720        30
58.740        10
58.760        13
58.780         7
58.800        13
58.820        13
58.840        33
58.860        13
58.880        17
58.900        27
58.920        20
58.940         7
58.960        13
58.980         7
59.000        10
59.020        10
59.040        30
59.060        23
59.080        23
59.100        17
59.120        13
59.140        23
59.160        13
59.180        27
59.200        23
59.220        10
59.240        17
59.260        13
59.280        13
59.300        10
59.320        20
59.340         3
59.360        30
59.380        10
59.400        17
59.420        17
59.440         7
59.460        30
59.480        33
59.500        13
59.520        27
59.540        10
59.560        37
59.580         7
59.600        20
59.620        23
59.640        17
59.660        13
59.680        23
59.700        10
59.720        23
59.740        23
59.760        13
59.780        13
59.800        17
59.820        17
59.840        10
59.860        13
59.880        23
59.900        23
59.920        10
59.940        27
59.960        10
59.980        20
60.000        13
