20.000        33
20.020        33
20.040        37
20.060        33
20.080        60
20.100        53
20.120        70
20.140        27
20.160        33
20.180        37
20.200        30
20.220        57
20.240        30
20.260        33
20.280        47
20.300        37
20.320        50
20.340        47
20.360        40
20.380        33
20.400        47
20.420        47
20.440        70
20.460        27
20.480        43
20.500        37
20.520        47
20.540        47
20.560        50
20.580        30
20.600        43
20.620        37
20.640        47
20.660        57
20.680        40
20.700        47
20.720        37
20.740        60
20.760        53
20.780        37
20.800        53
20.820        30
20.840        40
20.860        47
20.880        33
20.900        47
20.920        57
20.940        17
20.960        60
20.980        30
21.000        20
21.020        50
21.040        43
21.060        40
21.080        23
21.100        37
21.120        53
21.140        20
21.160        33
21.180        43
21.200        37
21.220        40
21.240        43
21.260        30
21.280        43
21.300        40
21.320        47
21.340        43
21.360        57
21.380        37
21.400        33
21.420        50
21.440        27
21.460        40
21.480        20
21.500        30
21.520        47
21.540        57
21.560        37
21.580        17
21.600        33
21.620        53
21.640        53
21.660        60
21.680        40
21.700        50
21.720        67
21.740        57
21.760        37
21.780        57
21.800        40
21.820        37
21.840        37
21.860        23
21.880        30
21.900        40
21.920        53
21.940        47
21.960        23
21.980        53
22.000        30
22.020        20
22.040        43
22.060        20
22.080        50
22.100        33
22.120        23
22.140        30
22.160        43
22.180        33
22.200        33
22.220        40
22.240        37
22.260         7
22.280        37
22.300        30
22.320        63
22.340        63
22.360        37
22.380        57
22.400        43
22.420        33
22.440        30
22.460        47
22.480        27
22.500        43
22.520        37
22.540        33
22.560        50
22.580        67
22.600        50
22.620        27
22.640        43
22.660        10
22.680        40
22.700        23
22.720        43
22.740        30
22.760        47
22.780        43
22.800        47
22.820        43
22.840        40
22.860        33
22.880        57
22.900        50
22.920        33
22.940        43
22.960        37
22.980        20
23.000        47
23.020        43
23.040        43
23.060        47
23.080         7
23.100        27
23.120        30
23.140        47
23.160        47
23.180        53
23.200        27
23.220        23
23.240        33
23.260        23
23.280        37
23.300        27
23.320        30
23.340        37
23.360        30
23.380        23
23.400        30
23.420        27
23.440        33
23.460        40
23.480        33
23.500        47
23.520        47
23.540        37
23.560        17
23.580        30
23.600        20
23.620        27
23.640        47
23.660        20
23.680        30
23.700        20
23.720        27
23.740        33
23.760        40
23.780        33
23.800        33
23.820        27
23.840        30
23.860        47
23.880        40
23.900        53
23.920        17
23.940        33
23.960        27
23.980        47
24.000        50
24.020        33
24.040        37
24.060        37
24.080        40
24.100         3
24.120        40
24.140        17
24.160        33
24.180        30
24.200        27
24.220        37
24.240        37
24.260        43
24.280        33
24.300        37
24.320        40
24.340        60
24.360        43
24.380        23
24.400        17
24.420        37
24.440        27
24.460        20
24.480        30
24.500        23
24.520        20
24.540        23
24.560        40
24.580        27
24.600        43
24.620        43
24.640        30
24.660        20
24.680        20
24.700        33
24.720        57
24.740        40
24.760        20
24.780        43
24.800        13
24.820        30
24.840        10
24.860        13
24.880        33
24.900        20
24.920        33
24.940        50
24.960        27
24.980        23
25.000        23
25.020        37
25.040        27
25.060        30
25.080        33
25.100        13
25.120        37
25.140        37
25.160        40
25.180        20
25.200        17
25.220        43
25.240        30
25.260        20
25.280        47
25.300        27
25.320        30
25.340        30
25.360        30
25.380        23
25.400        20
25.420        27
25.440        40
25.460        50
25.480        30
25.500        30
25.520        37
25.540        33
25.560        37
25.580        30
25.600        37
25.620        37
25.640        23
25.660        27
25.680        43
25.700        47
25.720        37
25.740        23
25.760        27
25.780        17
25.800        40
25.820        13
25.840        33
25.860        37
25.880        20
25.900        40
25.920        40
25.940        20
25.960        20
25.980        40
26.000        27
26.020        30
26.040        37
26.060        17
26.080        30
26.100        33
26.120        20
26.140        27
26.160        20
26.180        27
26.200        20
26.220        27
26.240        27
26.260        43
26.280         3
26.300        23
26.320        37
26.340        27
26.360        27
26.380        30
26.400        20
26.420        27
26.440        37
26.460        20
26.480        33
26.500        37
26.520        30
26.540        37
26.560        43
26.580        27
26.600        23
26.620        43
26.640        23
26.660        30
26.680        37
26.700        37
26.720        30
26.740        37
26.760        47
26.780        40
26.800        33
26.820        33
26.840        30
26.860        20
26.880        13
26.900        30
26.920        43
26.940        50
26.960        23
26.980        27
27.000        30
27.020        17
27.040        30
27.060        30
27.080        40
27.100        37
27.120        43
27.140        13
27.160        17
27.180        20
27.200        27
27.220        23
27.240        37
27.260        40
27.280        50
27.300        37
27.320        33
27.340        53
27.360        27
27.380        27
27.400        17
27.420        40
27.440        30
27.460        23
27.480        30
27.500        20
27.520        20
27.540        33
27.560        23
27.580        17
27.600        20
27.620        47
27.640        13
27.660        20
27.680        50
27.700        20
27.720        23
27.740        20
27.760        23
27.780        37
27.800        23
27.820        27
27.840        30
27.860        30
27.880        27
27.900        20
27.920        30
27.940        43
27.960        20
27.980        17
28.000        33
28.020        20
28.040        43
28.060        20
28.080        20
28.100        23
28.120        37
28.140        23
28.160        30
28.180        33
28.200        23
28.220        20
28.240        13
28.260        20
28.280        23
28.300        17
28.320         7
28.340        30
28.360        13
28.380        17
28.400        17
28.420        30
28.440        30
28.460        20
28.480        37
28.500        13
28.520        30
28.540        23
28.560        17
28.580        33
28.600        30
28.620        30
28.640        23
28.660        27
28.680        43
28.700        23
28.720        27
28.740        17
28.760        43
28.780        33
28.800        13
28.820        27
28.840        33
28.860        30
28.880        27
28.900        23
28.920        13
28.940        37
28.960        23
28.980        40
29.000        30
29.020        23
29.040        37
29.060        27
29.080        30
29.100        50
29.120        20
29.140        27
29.160        20
29.180        30
29.200        43
29.220        23
29.240        33
29.260        40
29.280        27
29.300        30
29.320        33
29.340        60
29.360        20
29.380        23
29.400        30
29.420        23
29.440        23
29.460        23
29.480        27
29.500        27
29.520        23
29.540        30
29.560        30
29.580        23
29.600        17
29.620        37
29.640        20
29.660        20
29.680        27
29.700        37
29.720        30
29.740        13
29.760        13
29.780        33
29.800        30
29.820        20
29.840        27
29.860        17
29.880        27
29.900        17
29.920        23
29.940        23
29.960        20
29.980        33
30.000        30
30.020        20
30.040        33
30.060        27
30.080        47
30.100        33
30.120        10
30.140        17
30.160        27
30.180        30
30.200        30
30.220        13
30.240        23
30.260        20
30.280        30
30.300        33
30.320        37
30.340        23
30.360        40
30.380        37
30.400        27
30.420        17
30.440        27
30.460        20
30.480        33
30.500        23
30.520        37
30.540        37
30.560        33
30.580        47
30.600        47
30.620        37
30.640        43
30.660        57
30.680        53
30.700        43
30.720        77
30.740        83
30.760       107
30.780       127
30.800       153
30.820       203
30.840       170
30.860       160
30.880       163
30.900       120
30.920       130
30.940        70
30.960        53
30.980        47
31.000        40
31.020        50
31.040        20
31.060        37
31.080        27
31.100        40
31.120        20
31.140        30
31.160        27
31.180        23
31.200        30
31.220        30
31.240        30
31.260        27
31.280        30
31.300        13
31.320        17
31.340        17
31.360        27
31.380        33
31.400        30
31.420        13
31.440        23
31.460        30
31.480        47
31.500        37
31.520        17
31.540        37
31.560        17
31.580        27
31.600        37
31.620        17
31.640        27
31.660        40
31.680        23
31.700        20
31.720        20
31.740        20
31.760        20
31.780        17
31.800        27
31.820        30
31.840        10
31.860         3
31.880        33
31.900        17
31.920        27
31.940        17
31.960        23
31.980         7
32.000        10
32.020        20
32.040        30
32.060        30
32.080        10
32.100        10
32.120        17
32.140        20
32.160        40
32.180        27
32.200        23
32.220        17
32.240        27
32.260        20
32.280        37
32.300        23
32.320        23
32.340        20
32.360        10
32.380        13
32.400        23
32.420        27
32.440        47
32.460        27
32.480        17
32.500        13
32.520        43
32.540        20
32.560        13
32.580        27
32.600        23
32.620        23
32.640        30
32.660        27
32.680        17
32.700        27
32.720        13
32.740        10
32.760        13
32.780        17
32.800        20
32.820        30
32.840        13
32.860        30
32.880        27
32.900        40
32.920         3
32.940         7
32.960        13
32.980        33
33.000        23
33.020        33
33.040        20
33.060        20
33.080        17
33.100        30
33.120        13
33.140        20
33.160        13
33.180        20
33.200        27
33.220        17
33.240        10
33.260        13
33.280        33
33.300        20
33.320        20
33.340        23
33.360        20
33.380        20
33.400        17
33.420        20
33.440        10
33.460        20
33.480        30
33.500        13
33.520        13
33.540        37
33.560        20
33.580        13
33.600        17
33.620        27
33.640        13
33.660        20
33.680        10
33.700        10
33.720        27
33.740        20
33.760        33
33.780        17
33.800        23
33.820        33
33.840        17
33.860        33
33.880        43
33.900        27
33.920        23
33.940         7
33.960         7
33.980        27
34.000        20
34.020        17
34.040        23
34.060        17
34.080        27
34.100        40
34.120        43
34.140        33
34.160        20
34.180        33
34.200        17
34.220        27
34.240        27
34.260        13
34.280        43
34.300        23
34.320        13
34.340        30
34.360        23
34.380        20
34.400        23
34.420        17
34.440         7
34.460        43
34.480        27
34.500        17
34.520        33
34.540        27
34.560        30
34.580        20
34.600        23
34.620        27
34.640        27
34.660        20
34.680        17
34.700        20
34.720        10
34.740        13
34.760        20
34.780        13
34.800        17
34.820        13
34.840        33
34.860        27
34.880        20
34.900        23
34.920        10
34.940        33
34.960        10
34.980        27
35.000        37
35.020        23
35.040        30
35.060        47
35.080        37
35.100        20
35.120        50
35.140        53
35.160        73
35.180        60
35.200        43
35.220        53
35.240        43
35.260        50
35.280        30
35.300        27
35.320        37
35.340        30
35.360        23
35.380        20
35.400        13
35.420        17
35.440        33
35.460        10
35.480        40
35.500        17
35.520        37
35.540        17
35.560        13
35.580        27
35.600        20
35.620        23
35.640        17
35.660        23
35.680         3
35.700        30
35.720        27
35.740        23
35.760        17
35.780        20
35.800        30
35.820        40
35.840        23
35.860        20
35.880        27
35.900        13
35.920        17
35.940        13
35.960        13
35.980        30
36.000        23
36.020        13
36.040        23
36.060        30
36.080        23
36.100        33
36.120        20
36.140        27
36.160        13
36.180        37
36.200        30
36.220        17
36.240        23
36.260        40
36.280        23
36.300        27
36.320        27
36.340        20
36.360        13
36.380        27
36.400        23
36.420         7
36.440        37
36.460        17
36.480        23
36.500        27
36.520        23
36.540        27
36.560        23
36.580        17
36.600         7
36.620        13
36.640        13
36.660        33
36.680        27
36.700        43
36.720        17
36.740        17
36.760        37
36.780        33
36.800        13
36.820        50
36.840        33
36.860        20
36.880        23
36.900        27
36.920        17
36.940        20
36.960        33
36.980        17
37.000        17
37.020        27
37.040        40
37.060        20
37.080        30
37.100        40
37.120        50
37.140        20
37.160        23
37.180        50
37.200        33
37.220        30
37.240        40
37.260        23
37.280        47
37.300         3
37.320        37
37.340        27
37.360        43
37.380        40
37.400        20
37.420        40
37.440        27
37.460        30
37.480        27
37.500        40
37.520        53
37.540        40
37.560        57
37.580        57
37.600        37
37.620        40
37.640        73
37.660        63
37.680        80
37.700       103
37.720        70
37.740       100
37.760       103
37.780        67
37.800       113
37.820       167
37.840       137
37.860       187
37.880       207
37.900       210
37.920       253
37.940       353
37.960       566
37.980       793
38.000       946
38.020      1200
38.040      1263
38.060      1150
38.080       926
38.100       793
38.120       776
38.140       743
38.160       606
38.180       420
38.200       217
38.220       157
38.240       120
38.260       103
38.280       113
38.300        73
38.320        80
38.340        43
38.360        43
38.380        67
38.400        37
38.420        47
38.440        70
38.460        40
38.480        53
38.500        60
38.520        30
38.540        43
38.560        67
38.580        47
38.600        43
38.620        43
38.640        27
38.660        37
38.680        27
38.700        37
38.720        33
38.740        47
38.760        33
38.780        20
38.800        30
38.820        30
38.840        37
38.860        43
38.880        53
38.900        37
38.920        30
38.940        37
38.960        13
38.980        30
39.000        20
39.020        13
39.040        53
39.060        43
39.080        50
39.100        23
39.120        37
39.140        40
39.160        27
39.180        20
39.200        37
39.220        33
39.240        50
39.260        33
39.280        27
39.300        30
39.320        50
39.340        23
39.360        47
39.380        33
39.400        47
39.420        30
39.440        27
39.460        43
39.480        33
39.500        17
39.520        33
39.540        10
39.560        17
39.580        30
39.600        27
39.620        10
39.640        43
39.660        27
39.680        27
39.700        23
39.720        30
39.740        53
39.760        43
39.780        20
39.800        27
39.820        37
39.840        27
39.860        27
39.880        30
39.900        37
39.920        17
39.940        30
39.960        30
39.980        20
40.000        30
40.020        20
40.040        30
40.060        17
40.080        30
40.100        20
40.120        50
40.140        60
40.160        23
40.180        27
40.200        20
40.220        40
40.240        43
40.260        27
40.280        27
40.300        20
40.320        17
40.340        33
40.360        37
40.380        23
40.400        30
40.420        27
40.440        47
40.460        30
40.480        10
40.500        17
40.520        30
40.540        10
40.560        37
40.580        17
40.600        23
40.620        27
40.640        27
40.660        37
40.680         7
40.700        43
40.720        50
40.740        23
40.760         7
40.780        13
40.800        30
40.820        20
40.840         7
40.860        23
40.880        27
40.900         7
40.920        17
40.940        17
40.960        20
40.980        17
41.000        33
41.020        23
41.040        23
41.060        23
41.080        37
41.100        33
41.120        23
41.140        30
41.160        17
41.180        20
41.200        27
41.220        17
41.240        33
41.260        20
41.280        30
41.300        33
41.320        33
41.340        33
41.360        30
41.380        17
41.400        43
41.420        17
41.440        43
41.460        27
41.480        20
41.500        13
41.520        33
41.540        20
41.560        13
41.580        30
41.600        23
41.620        47
41.640        27
41.660        40
41.680        37
41.700        37
41.720        40
41.740        30
41.760        33
41.780        37
41.800        27
41.820        27
41.840        30
41.860        37
41.880        47
41.900        17
41.920        10
41.940        17
41.960        33
41.980        30
42.000        20
42.020        17
42.040        23
42.060        17
42.080        10
42.100        20
42.120        37
42.140        27
42.160        17
42.180        17
42.200        17
42.220         7
42.240        23
42.260        20
42.280        33
42.300         7
42.320        23
42.340        10
42.360        23
42.380        23
42.400        20
42.420        17
42.440        33
42.460        30
42.480        33
42.500        27
42.520        33
42.540         7
42.560        17
42.580        13
42.600        20
42.620        13
42.640        13
42.660        27
42.680        30
42.700        33
42.720        10
42.740        30
42.760        23
42.780        10
42.800        30
42.820        17
42.840        10
42.860        23
42.880        20
42.900        37
42.920        30
42.940        20
42.960        17
42.980        17
43.000        47
43.020        53
43.040        33
43.060        23
43.080        40
43.100        47
43.120        37
43.140        60
43.160        20
43.180        23
43.200        37
43.220        37
43.240        40
43.260        23
43.280        37
43.300        17
43.320        27
43.340        13
43.360        27
43.380        27
43.400        30
43.420        30
43.440        33
43.460        40
43.480        33
43.500        40
43.520        33
43.540        43
43.560        23
43.580        17
43.600        20
43.620        23
43.640        20
43.660        30
43.680        27
43.700        20
43.720         7
43.740        37
43.760        37
43.780        23
43.800        30
43.820        37
43.840        30
43.860        27
43.880        40
43.900        40
43.920        47
43.940        33
43.960        37
43.980        27
44.000        67
44.020        63
44.040        77
44.060        83
44.080        90
44.100        90
44.120       103
44.140       100
44.160       110
44.180        80
44.200        70
44.220       103
44.240       100
44.260        77
44.280        73
44.300        97
44.320        43
44.340        43
44.360        50
44.380        60
44.400        47
44.420        77
44.440        63
44.460        37
44.480        27
44.500        23
44.520        30
44.540        37
44.560        20
44.580        33
44.600        23
44.620        27
44.640        33
44.660        43
44.680        30
44.700        33
44.720        37
44.740        20
44.760        20
44.780        20
44.800        23
44.820         7
44.840        13
44.860        27
44.880        17
44.900        40
44.920        10
44.940        20
44.960        33
44.980        27
45.000        37
45.020        20
45.040        17
45.060        20
45.080        23
45.100        23
45.120        13
45.140        17
45.160        17
45.180        13
45.200        13
45.220        20
45.240        17
45.260        13
45.280        13
45.300        33
45.320        10
45.340        23
45.360        13
45.380        30
45.400        27
45.420        23
45.440        30
45.460        33
45.480        17
45.500        23
45.520        30
45.540        33
45.560        23
45.580        17
45.600        17
45.620        17
45.640        27
45.660        13
45.680        20
45.700        13
45.720        23
45.740        17
45.760        30
45.780        27
45.800        17
45.820        23
45.840        20
45.860        13
45.880        17
45.900        27
45.920        17
45.940        20
45.960        23
45.980        37
46.000        17
46.020        20
46.040         0
46.060        23
46.080        20
46.100        30
46.120        20
46.140        13
46.160        10
46.180        23
46.200        10
46.220        30
46.240        23
46.260        13
46.280        13
46.300        27
46.320        13
46.340        17
46.360        17
46.380        23
46.400        23
46.420        27
46.440        20
46.460        10
46.480         7
46.500        27
46.520        13
46.540        20
46.560        23
46.580        13
46.600        10
46.620        10
46.640        23
46.660        17
46.680        10
46.700        13
46.720        20
46.740        23
46.760        17
46.780        17
46.800        20
46.820        37
46.840        13
46.860        37
46.880        43
46.900        40
46.920        17
46.940        23
46.960        50
46.980        13
47.000        43
47.020        23
47.040        20
47.060        23
47.080        33
47.100        13
47.120        37
47.140        20
47.160        37
47.180        27
47.200        10
47.220        27
47.240        33
47.260        27
47.280        10
47.300        30
47.320        23
47.340        27
47.360        40
47.380        37
47.400        40
47.420        27
47.440        17
47.460        50
47.480        27
47.500        63
47.520        27
47.540        40
47.560        20
47.580        20
47.600        20
47.620        17
47.640        13
47.660        17
47.680        30
47.700        23
47.720        20
47.740        13
47.760        17
47.780        13
47.800        33
47.820        37
47.840         7
47.860        27
47.880        30
47.900        20
47.920        23
47.940        13
47.960         7
47.980        30
48.000        10
48.020        30
48.040        30
48.060        10
48.080        23
48.100        13
48.120        23
48.140        20
48.160        17
48.180        17
48.200        27
48.220         7
48.240         7
48.260        23
48.280        30
48.300        60
48.320        20
48.340        27
48.360        20
48.380        47
48.400        57
48.420        40
48.440        23
48.460        33
48.480        37
48.500        20
48.520        27
48.540        20
48.560        23
48.580        20
48.600        13
48.620        23
48.640        13
48.660        23
48.680        23
48.700         7
48.720        17
48.740        17
48.760        17
48.780         3
48.800        20
48.820        27
48.840        13
48.860        13
48.880        27
48.900        40
48.920        13
48.940        23
48.960        17
48.980        23
49.000        23
49.020        20
49.040        13
49.060        10
49.080        17
49.100        20
49.120        20
49.140        23
49.160        13
49.180        17
49.200        20
49.220         7
49.240        20
49.260         7
49.280        23
49.300        23
49.320        23
49.340        13
49.360        30
49.380        23
49.400        13
49.420        23
49.440         0
49.460        10
49.480        17
49.500         7
49.520        23
49.540        27
49.560        13
49.580        20
49.600        13
49.620        20
49.640        27
49.660        13
49.680        27
49.700        17
49.720        20
49.740        10
49.760        20
49.780        20
49.800        17
49.820        23
49.840         7
49.860        13
49.880        10
49.900        13
49.920        27
49.940        20
49.960        13
49.980        17
50.000        23
50.020        13
50.040        23
50.060        17
50.080        23
50.100        23
50.120        23
50.140        17
50.160        20
50.180        23
50.200        23
50.220        17
50.240        10
50.260        10
50.280        27
50.300        20
50.320        27
50.340        20
50.360        13
50.380        13
50.400        23
50.420        17
50.440        20
50.460        37
50.480        23
50.500        13
50.520        23
50.540         7
50.560        13
50.580        30
50.600        23
50.620        23
50.640         7
50.660        27
50.680        17
50.700        13
50.720        27
50.740        20
50.760        17
50.780        10
50.800        23
50.820        17
50.840        13
50.860        33
50.880        27
50.900        10
50.920        37
50.940        23
50.960        30
50.980        20
51.000        13
51.020        10
51.040        30
51.060         3
51.080         7
51.100        20
51.120        23
51.140        10
51.160         3
51.180        27
51.200        23
51.220         7
51.240        30
51.260        20
51.280        27
51.300        13
51.320        17
51.340        27
51.360        17
51.380        20
51.400        17
51.420        17
51.440        10
51.460        23
51.480         7
51.500         3
51.520        20
51.540        20
51.560        17
51.580        20
51.600        17
51.620        20
51.640        33
51.660        10
51.680        27
51.700        17
51.720        17
51.740        10
51.760        23
51.780        10
51.800        13
51.820        20
51.840        30
51.860        20
51.880        10
51.900        33
51.920        17
51.940        10
51.960        13
51.980        30
52.000        47
52.020        33
52.040        20
52.060        20
52.080        13
52.100        13
52.120        10
52.140        20
52.160        20
52.180        27
52.200        23
52.220        13
52.240         0
52.260        27
52.280        30
52.300        27
52.320        20
52.340        30
52.360        33
52.380        13
52.400         0
52.420        27
52.440        10
52.460        30
52.480        23
52.500        23
52.520        10
52.540        33
52.560        33
52.580        47
52.600        43
52.620        87
52.640        37
52.660        27
52.680        23
52.700        23
52.720        30
52.740        27
52.760        20
52.780        27
52.800        27
52.820         7
52.840        10
52.860        17
52.880        17
52.900        17
52.920         7
52.940        17
52.960        20
52.980        13
53.000        17
53.020        13
53.040        17
53.060        10
53.080        17
53.100        27
53.120        10
53.140        17
53.160        13
53.180        17
53.200        20
53.220        17
53.240        10
53.260        13
53.280        20
53.300         3
53.320        27
53.340        23
53.360        17
53.380        17
53.400        20
53.420        13
53.440        13
53.460        10
53.480         7
53.500        10
53.520        27
53.540        10
53.560        17
53.580        20
53.600        27
53.620        20
53.640        20
53.660        10
53.680        20
53.700        20
53.720        13
53.740        30
53.760         7
53.780        17
53.800        37
53.820        20
53.840        17
53.860        10
53.880         7
53.900        10
53.920        13
53.940        20
53.960        17
53.980        13
54.000        20
54.020        20
54.040        13
54.060        20
54.080         7
54.100        10
54.120        20
54.140        10
54.160        17
54.180        27
54.200        23
54.220         3
54.240        10
54.260        13
54.280        17
54.300        17
54.320        20
54.340        27
54.360        23
54.380        20
54.400        20
54.420         3
54.440        27
54.460         3
54.480        37
54.500        23
54.520        17
54.540        20
54.560        40
54.580        23
54.600        27
54.620        23
54.640        27
54.660        40
54.680        17
54.700        43
54.720        37
54.740        47
54.760        53
54.780        63
54.800        90
54.820        87
54.840       103
54.860       113
54.880       103
54.900        97
54.920        80
54.940        90
54.960        70
54.980        67
55.000        57
55.020        30
55.040        50
55.060        33
55.080        43
55.100        20
55.120        60
55.140        47
55.160        23
55.180        17
55.200        27
55.220        13
55.240        33
55.260        13
55.280        20
55.300        33
55.320        23
55.340         7
55.360        13
55.380        20
55.400        13
55.420        20
55.440        10
55.460        17
55.480        13
55.500        17
55.520        17
55.540        27
55.560        10
55.580        23
55.600         3
55.620        17
55.640        20
55.660         7
55.680        13
55.700        27
55.720         7
55.740        30
55.760        13
55.780        40
55.800        23
55.820        10
55.840         3
55.860        20
55.880        20
55.900        20
55.920        20
55.940        17
55.960         7
55.980        23
56.000        27
56.020        17
56.040        10
56.060        27
56.080        30
56.100        17
56.120        17
56.140         7
56.160         7
56.180        17
56.200        13
56.220        10
56.240        23
56.260        17
56.280        23
56.300        27
56.320        13
56.340        10
56.360        10
56.380        13
56.400         3
56.420        13
56.440        23
56.460        23
56.480        13
56.500        17
56.520        33
56.540        23
56.560        17
56.580         3
56.600        27
56.620        23
56.640        20
56.660        17
56.680        13
56.700        40
56.720         3
56.740        13
56.760         7
56.780        17
56.800         7
56.820        10
56.840        37
56.860        17
56.880        20
56.900        23
56.920        23
56.940         0
56.960        23
56.980        17
57.000        13
57.020        13
57.040        20
57.060        10
57.080        27
57.100        23
57.120        30
57.140        30
57.160        20
57.180        20
57.200        23
57.220        17
57.240        20
57.260        33
57.280        30
57.300        17
57.320        20
57.340        23
57.360        23
57.380        20
57.400        10
57.420        30
57.440        37
57.460        37
57.480        30
57.500        57
57.520        70
57.540        80
57.560       137
57.580       103
57.600        80
57.620        83
57.640        50
57.660        40
57.680        60
57.700        57
57.720        67
57.740        87
57.760        60
57.780        37
57.800        13
57.820        30
57.840        23
57.860        17
57.880        23
57.900        10
57.920        10
57.940        23
57.960        17
57.980        27
58.000        17
58.020        17
58.040        23
58.060        17
58.080        20
58.100        17
58.120        17
58.140        13
58.160        10
58.180         7
58.200        23
58.220        10
58.240        17
58.260        10
58.280        10
58.300        17
58.320        10
58.340         7
58.360         0
58.380        13
58.400         7
58.420        10
58.440        23
58.460        17
58.480        17
58.500        10
58.520        13
58.540        10
58.560        23
58.580        23
58.600        23
58.620        20
58.640        23
58.660        20
58.680        17
58.700        23
58.720        23
58.740         7
58.760        17
58.780        17
58.800        30
58.820        13
58.840         7
58.860        20
58.880        20
58.900        10
58.920        20
58.940         7
58.960        17
58.980        17
59.000        10
59.020        17
59.040        10
59.060        20
59.080        23
59.100        13
59.120        17
59.140        17
59.160        17
59.180        20
59.200        10
59.220        20
59.240        10
59.260         7
59.280        20
59.300        13
59.320        17
59.340         7
59.360         3
59.380        23
59.400        17
59.420        27
59.440        17
59.460        10
59.480        17
59.500        27
59.520        17
59.540        13
59.560        13
59.580        17
59.600        13
59.620        13
59.640        10
59.660        23
59.680        13
59.700        13
59.720        20
59.740        23
59.760        10
59.780        13
59.800        10
59.820        23
59.840        10
59.860        17
59.880        23
59.900        17
59.920        30
59.940         7
59.960        10
59.980        10
60.000         7
