20.000        33
20.020        33
20.040        43
20.060        67
20.080        37
20.100        60
20.120        50
20.140        23
20.160        33
20.180        47
20.200        47
20.220        57
20.240        37
20.260        33
20.280        33
20.300        57
20.320        23
20.340        57
20.360        43
20.380        50
20.400        33
20.420        40
20.440        70
20.460        30
20.480        47
20.500        30
20.520        37
20.540        47
20.560        60
20.580        43
20.600        50
20.620        23
20.640        40
20.660        40
20.680        57
20.700        47
20.720        73
20.740        53
20.760        30
20.780        50
20.800        37
20.820        43
20.840        47
20.860        30
20.880        43
20.900        30
20.920        43
20.940        43
20.960        33
20.980        33
21.000        53
21.020        43
21.040        57
21.060        70
21.080        33
21.100        53
21.120        40
21.140        53
21.160        50
21.180        33
21.200        37
21.220        43
21.240        43
21.260        30
21.280        43
21.300        33
21.320        37
21.340        43
21.360        37
21.380        30
21.400        50
21.420        37
21.440        13
21.460        50
21.480        37
21.500        40
21.520        27
21.540        27
21.560        40
21.580        30
21.600        43
21.620        30
21.640        17
21.660        23
21.680        70
21.700        27
21.720        43
21.740        47
21.760        33
21.780        43
21.800        53
21.820        47
21.840        50
21.860        27
21.880        50
21.900        33
21.920        40
21.940        37
21.960        60
21.980        37
22.000        37
22.020        23
22.040        53
22.060        23
22.080        43
22.100        27
22.120        53
22.140        43
22.160        27
22.180        47
22.200        37
22.220        33
22.240        30
22.260        33
22.280        30
22.300        23
22.320        37
22.340        47
22.360        37
22.380        23
22.400        27
22.420        63
22.440        50
22.460        20
22.480        37
22.500        33
22.520        47
22.540        37
22.560        20
22.580        40
22.600        47
22.620        43
22.640        23
22.660        37
22.680        47
22.700        40
22.720        43
22.740        23
22.760        37
22.780        27
22.800        33
22.820        53
22.840        33
22.860        40
22.880        27
22.900        40
22.920        47
22.940        47
22.960        27
22.980        30
23.000        40
23.020        33
23.040        30
23.060        30
23.080        57
23.100        43
23.120        27
23.140        33
23.160        43
23.180        60
23.200        20
23.220        23
23.240        47
23.260        37
23.280        40
23.300        40
23.320        33
23.340        17
23.360        30
23.380        43
23.400        53
23.420        40
23.440        40
23.460        37
23.480        23
23.500        33
23.520        53
23.540        43
23.560        23
23.580        37
23.600        50
23.620        27
23.640        30
23.660        23
23.680        53
23.700        13
23.720        17
23.740        27
23.760        43
23.780        30
23.800        63
23.820        23
23.840        17
23.860        27
23.880        37
23.900        10
23.920        57
23.940        30
23.960        33
23.980        47
24.000        43
24.020        23
24.040        37
24.060        47
24.080        23
24.100        47
24.120        23
24.140        23
24.160        50
24.180        50
24.200        23
24.220        13
24.240        27
24.260        50
24.280        43
24.300        47
24.320        23
24.340        30
24.360        37
24.380        40
24.400        27
24.420        10
24.440        30
24.460        33
24.480        47
24.500        40
24.520        33
24.540        30
24.560        40
24.580        10
24.600        50
24.620        47
24.640        37
24.660        43
24.680        40
24.700        50
24.720        33
24.740        40
24.760        27
24.780        47
24.800        23
24.820        27
24.840        23
24.860        53
24.880        47
24.900        30
24.920        13
24.940        27
24.960        37
24.980        47
25.000        30
25.020        33
25.040        23
25.060        20
25.080        33
25.100        50
25.120        27
25.140        17
25.160        27
25.180        17
25.200        30
25.220        27
25.240        40
25.260        33
25.280        47
25.300        37
25.320        33
25.340        40
25.360        20
25.380        30
25.400        40
25.420        27
25.440        20
25.460        30
25.480        60
25.500        40
25.520        73
25.540        33
25.560        87
25.580       160
25.600       263
25.620       327
25.640       280
25.660       177
25.680       190
25.700       183
25.720        77
25.740        70
25.760        53
25.780        33
25.800        27
25.820        40
25.840        43
25.860        23
25.880        57
25.900        27
25.920        40
25.940        13
25.960        27
25.980        30
26.000        33
26.020        33
26.040        27
26.060        47
26.080         7
26.100        20
26.120        30
26.140        33
26.160        23
26.180        30
26.200        23
26.220        50
26.240        53
26.260        13
26.280        43
26.300        33
26.320        47
26.340        20
26.360        30
26.380        50
26.400        40
26.420        53
26.440        37
26.460        20
26.480        23
26.500        27
26.520        20
26.540        17
26.560        33
26.580        27
26.600        30
26.620        23
26.640        27
26.660        30
26.680        23
26.700        23
26.720        43
26.740        37
26.760        13
26.780        17
26.800        30
26.820        20
26.840        27
26.860        30
26.880        17
26.900        30
26.920        13
26.940        37
26.960        47
26.980        17
27.000        27
27.020        30
27.040        23
27.060        23
27.080        27
27.100        23
27.120        53
27.140        23
27.160        30
27.180        23
27.200        20
27.220        30
27.240        33
27.260        17
27.280        30
27.300        53
27.320        40
27.340        43
27.360        27
27.380        33
27.400        47
27.420        37
27.440         7
27.460        40
27.480        23
27.500        30
27.520        47
27.540        27
27.560        13
27.580        13
27.600        30
27.620        37
27.640        20
27.660        23
27.680        37
27.700        33
27.720        27
27.740        33
27.760        20
27.780        20
27.800        53
27.820        20
27.840        17
27.860        40
27.880        20
27.900        27
27.920        17
27.940        23
27.960        27
27.980        40
28.000        40
28.020        27
28.040        30
28.060        17
28.080        17
28.100        23
28.120        23
28.140        37
28.160        43
28.180        30
28.200        43
28.220        43
28.240        47
28.260        50
28.280        17
28.300        23
28.320        30
28.340        47
28.360        33
28.380        40
28.400        23
28.420        10
28.440        37
28.460        23
28.480        20
28.500        17
28.520        13
28.540        33
28.560        27
28.580        37
28.600        30
28.620        20
28.640        33
28.660        37
28.680        43
28.700        43
28.720        10
28.740        37
28.760        27
28.780        40
28.800        23
28.820        50
28.840        53
28.860        20
28.880        37
28.900        27
28.920        30
28.940        27
28.960        47
28.980        37
29.000        37
29.020        33
29.040        40
29.060        43
29.080        60
29.100        27
29.120        30
29.140        53
29.160        50
29.180        57
29.200        77
29.220        43
29.240        73
29.260        33
29.280        40
29.300        37
29.320        40
29.340        27
29.360        47
29.380        40
29.400        17
29.420        27
29.440        20
29.460        27
29.480        17
29.500        23
29.520        30
29.540        27
29.560        37
29.580        27
29.600        20
29.620        20
29.640        17
29.660        30
29.680        20
29.700        33
29.720        27
29.740        33
29.760        17
29.780        23
29.800        37
29.820        20
29.840        33
29.860        23
29.880        13
29.900        20
29.920        30
29.940        23
29.960        40
29.980        37
30.000        33
30.020        13
30.040        37
30.060        33
30.080        33
30.100        23
30.120        43
30.140        20
30.160        30
30.180        27
30.200        23
30.220        27
30.240        37
30.260        33
30.280        47
30.300        50
30.320        23
30.340        13
30.360        27
30.380        30
30.400        43
30.420        20
30.440        30
30.460        37
30.480        37
30.500        23
30.520        40
30.540        33
30.560        27
30.580        47
30.600        57
30.620        47
30.640        60
30.660        67
30.680        73
30.700        97
30.720       133
30.740       127
30.760       147
30.780       110
30.800        73
30.820        80
30.840        73
30.860       100
30.880        57
30.900        47
30.920        40
30.940        53
30.960        30
30.980        40
31.000        27
31.020        40
31.040        27
31.060        30
31.080        50
31.100        27
31.120        37
31.140        13
31.160        23
31.180         7
31.200        23
31.220        47
31.240        33
31.260         7
31.280        30
31.300        37
31.320        37
31.340        17
31.360        40
31.380        33
31.400        37
31.420        20
31.440        33
31.460        43
31.480        33
31.500        17
31.520        40
31.540        10
31.560        33
31.580        30
31.600        17
31.620        27
31.640        37
31.660        13
31.680        10
31.700        37
31.720        17
31.740        20
31.760        20
31.780        10
31.800        20
31.820        27
31.840        23
31.860        23
31.880        23
31.900        20
31.920        37
31.940        27
31.960        43
31.980        17
32.000        27
32.020        13
32.040        23
32.060        17
32.080        30
32.100        23
32.120        33
32.140        37
32.160        20
32.180        27
32.200        20
32.220        37
32.240        43
32.260        27
32.280        23
32.300        27
32.320        27
32.340        27
32.360        20
32.380        33
32.400        27
32.420        33
32.440        27
32.460        30
32.480        27
32.500        23
32.520        20
32.540        17
32.560        30
32.580        17
32.600        20
32.620        30
32.640        27
32.660        27
32.680        17
32.700        23
32.720        13
32.740        33
32.760        27
32.780         7
32.800        33
32.820        10
32.840        23
32.860        20
32.880        20
32.900        20
32.920        20
32.940        13
32.960         7
32.980        33
33.000        40
33.020        43
33.040        17
33.060        20
33.080        17
33.100        33
33.120        33
33.140        13
33.160        33
33.180        20
33.200        20
33.220        13
33.240        20
33.260        27
33.280        17
33.300        27
33.320        23
33.340        30
33.360        10
33.380        10
33.400        13
33.420        23
33.440        20
33.460        23
33.480        17
33.500        20
33.520        40
33.540        13
33.560        17
33.580        30
33.600        13
33.620        27
33.640        27
33.660        13
33.680        23
33.700         7
33.720        17
33.740        20
33.760        27
33.780        13
33.800        17
33.820        23
33.840        23
33.860        13
33.880        17
33.900        20
33.920        30
33.940        17
33.960        23
33.980        20
34.000        17
34.020        37
34.040        17
34.060        23
34.080        30
34.100        27
34.120        37
34.140        27
34.160        23
34.180        40
34.200        27
34.220        33
34.240        33
34.260        27
34.280        13
34.300        13
34.320        13
34.340        27
34.360        37
34.380        23
34.400        23
34.420        27
34.440        33
34.460        27
34.480        40
34.500        27
34.520        23
34.540        23
34.560        30
34.580        17
34.600        23
34.620        20
34.640        27
34.660         7
34.680        10
34.700        10
34.720        13
34.740        23
34.760        17
34.780        23
34.800        13
34.820        13
34.840        37
34.860        17
34.880        23
34.900        30
34.920        13
34.940        20
34.960        20
34.980        17
35.000        57
35.020        33
35.040        13
35.060        17
35.080        27
35.100        20
35.120        27
35.140        10
35.160        20
35.180        50
35.200        23
35.220        27
35.240        33
35.260        20
35.280        20
35.300        17
35.320        13
35.340        30
35.360        23
35.380        27
35.400        30
35.420        37
35.440        20
35.460        30
35.480        17
35.500        13
35.520        20
35.540        23
35.560        27
35.580        23
35.600        17
35.620        30
35.640        40
35.660        10
35.680        37
35.700        17
35.720        17
35.740        23
35.760        30
35.780        27
35.800        33
35.820        33
35.840        20
35.860        17
35.880        37
35.900        17
35.920        17
35.940         3
35.960        17
35.980        23
36.000        20
36.020        17
36.040        23
36.060        30
36.080        37
36.100        17
36.120        10
36.140        23
36.160        30
36.180        27
36.200        23
36.220        10
36.240        17
36.260        37
36.280         7
36.300        20
36.320        33
36.340        23
36.360        33
36.380        10
36.400        17
36.420        17
36.440        30
36.460        17
36.480        23
36.500        23
36.520        10
36.540        30
36.560        30
36.580        20
36.600        27
36.620        23
36.640        20
36.660        23
36.680        23
36.700        30
36.720        20
36.740        17
36.760        33
36.780        10
36.800        27
36.820        20
36.840        33
36.860        30
36.880        27
36.900        17
36.920        30
36.940        20
36.960        30
36.980        23
37.000        37
37.020        27
37.040        37
37.060        33
37.080        33
37.100        47
37.120        30
37.140        13
37.160        37
37.180        27
37.200        23
37.220        30
37.240        37
37.260        30
37.280        27
37.300        30
37.320        20
37.340        40
37.360        27
37.380        37
37.400        50
37.420        40
37.440        47
37.460        37
37.480        33
37.500        30
37.520        23
37.540        57
37.560        67
37.580        37
37.600        77
37.620        67
37.640        57
37.660        63
37.680        53
37.700       107
37.720        87
37.740        93
37.760       120
37.780       163
37.800       150
37.820       247
37.840       350
37.860       453
37.880       603
37.900       776
37.920      1160
37.940      1329
37.960      1173
37.980      1046
38.000       900
38.020       873
38.040       716
38.060       620
38.080       476
38.100       290
38.120       190
38.140       107
38.160       103
38.180       113
38.200        67
38.220        67
38.240        37
38.260        50
38.280        63
38.300        57
38.320        57
38.340        83
38.360        30
38.380        33
38.400        50
38.420        47
38.440        27
38.460        27
38.480        47
38.500        50
38.520        33
38.540        40
38.560        37
38.580        27
38.600        43
38.620        40
38.640        30
38.660        40
38.680        57
38.700        37
38.720        33
38.740        43
38.760        30
38.780        37
38.800        60
38.820        13
38.840        33
38.860        57
38.880        37
38.900        40
38.920        43
38.940        13
38.960        30
38.980        47
39.000        13
39.020        40
39.040        33
39.060        23
39.080        30
39.100        50
39.120        33
39.140        37
39.160        33
39.180        40
39.200        40
39.220        37
39.240        37
39.260        40
39.280        27
39.300        60
39.320        20
39.340        70
39.360        60
39.380        27
39.400        50
39.420        30
39.440        23
39.460        20
39.480        37
39.500        23
39.520        47
39.540        37
39.560        40
39.580        37
39.600        20
39.620        23
39.640        13
39.660        30
39.680        23
39.700        10
39.720        10
39.740        23
39.760        30
39.780        20
39.800        27
39.820        40
39.840        30
39.860        23
39.880        17
39.900        40
39.920        30
39.940        33
39.960        33
39.980        23
40.000        27
40.020        17
40.040        33
40.060        23
40.080        30
40.100        30
40.120        27
40.140        23
40.160        33
40.180        20
40.200        37
40.220        30
40.240        13
40.260        17
40.280        40
40.300        23
40.320        27
40.340        27
40.360        17
40.380        33
40.400         7
40.420        30
40.440        23
40.460        17
40.480        17
40.500        30
40.520        53
40.540        43
40.560         7
40.580        27
40.600        17
40.620        27
40.640        20
40.660        33
40.680        33
40.700        13
40.720        17
40.740        20
40.760        40
40.780        30
40.800        20
40.820        20
40.840         3
40.860        30
40.880        17
40.900        30
40.920        40
40.940        17
40.960        27
40.980        30
41.000        40
41.020        23
41.040        13
41.060        23
41.080        13
41.100        17
41.120        17
41.140        17
41.160        40
41.180        20
41.200        23
41.220        27
41.240        23
41.260        27
41.280        13
41.300        30
41.320        23
41.340        23
41.360        17
41.380        13
41.400        13
41.420        20
41.440        20
41.460        27
41.480        27
41.500        53
41.520        20
41.540        17
41.560        20
41.580        30
41.600        37
41.620        10
41.640        20
41.660        17
41.680        30
41.700        20
41.720        13
41.740        17
41.760        43
41.780        27
41.800        17
41.820        23
41.840        13
41.860        30
41.880        27
41.900        27
41.920         7
41.940        37
41.960        27
41.980        23
42.000        33
42.020        17
42.040        10
42.060        33
42.080        23
42.100        47
42.120        13
42.140        20
42.160        27
42.180        23
42.200        27
42.220         7
42.240        30
42.260        20
42.280        20
42.300        30
42.320        27
42.340        23
42.360         7
42.380        20
42.400        33
42.420        47
42.440        17
42.460        30
42.480        17
42.500        13
42.520        23
42.540        23
42.560         7
42.580        27
42.600        30
42.620        27
42.640        13
42.660        10
42.680        27
42.700        13
42.720        40
42.740        17
42.760        23
42.780        13
42.800        13
42.820        30
42.840        17
42.860        10
42.880        17
42.900        30
42.920        20
42.940        13
42.960        30
42.980        30
43.000        23
43.020        47
43.040        43
43.060        30
43.080        23
43.100        33
43.120        13
43.140        10
43.160        17
43.180        13
43.200        17
43.220        33
43.240        17
43.260        17
43.280        13
43.300        30
43.320        27
43.340        33
43.360        23
43.380        17
43.400        20
43.420        13
43.440        13
43.460        20
43.480        17
43.500        23
43.520        17
43.540        20
43.560        20
43.580        30
43.600        10
43.620        20
43.640        23
43.660        20
43.680        27
43.700        40
43.720         7
43.740        20
43.760        23
43.780        20
43.800        23
43.820        40
43.840        37
43.860        30
43.880        27
43.900        33
43.920        47
43.940        27
43.960        50
43.980        57
44.000        47
44.020        53
44.040        50
44.060        30
44.080        47
44.100        40
44.120        53
44.140        43
44.160        27
44.180        43
44.200        40
44.220        20
44.240        37
44.260        30
44.280        27
44.300        37
44.320        17
44.340        40
44.360        47
44.380        37
44.400        33
44.420        23
44.440        20
44.460        17
44.480        17
44.500        27
44.520        27
44.540        27
44.560        27
44.580        30
44.600        10
44.620        23
44.640        23
44.660        27
44.680        33
44.700        27
44.720        13
44.740        20
44.760        30
44.780        27
44.800        17
44.820        27
44.840        13
44.860        20
44.880        23
44.900        13
44.920        23
44.940        23
44.960        20
44.980        27
45.000        20
45.020        27
45.040        27
45.060        23
45.080        20
45.100        30
45.120        40
45.140        37
45.160        27
45.180        30
45.200        10
45.220        20
45.240        30
45.260        20
45.280        20
45.300        33
45.320        23
45.340        17
45.360        30
45.380        17
45.400        13
45.420        17
45.440        23
45.460        30
45.480        10
45.500        37
45.520        17
45.540        43
45.560        13
45.580        20
45.600        20
45.620        33
45.640        20
45.660        23
45.680        27
45.700        20
45.720        27
45.740        37
45.760        43
45.780        10
45.800        10
45.820        13
45.840        17
45.860        17
45.880        17
45.900        10
45.920        13
45.940        30
45.960        27
45.980        17
46.000        20
46.020        20
46.040        10
46.060        10
46.080        13
46.100        30
46.120        33
46.140        27
46.160        37
46.180        13
46.200        17
46.220        27
46.240        17
46.260        17
46.280        13
46.300        10
46.320        20
46.340        20
46.360        27
46.380        33
46.400        23
46.420        13
46.440        13
46.460        37
46.480        10
46.500        10
46.520        23
46.540        30
46.560        20
46.580        23
46.600        17
46.620         7
46.640        27
46.660        13
46.680         7
46.700        23
46.720        20
46.740         7
46.760        33
46.780        20
46.800        33
46.820        10
46.840        37
46.860        17
46.880        40
46.900        20
46.920        43
46.940        23
46.960        13
46.980        17
47.000        20
47.020        10
47.040        40
47.060        13
47.080        30
47.100        27
47.120        37
47.140        27
47.160        27
47.180        30
47.200        37
47.220        33
47.240        30
47.260        20
47.280        47
47.300        17
47.320        23
47.340        37
47.360        63
47.380        43
47.400        30
47.420        37
47.440        37
47.460        37
47.480        43
47.500        10
47.520        17
47.540        10
47.560        10
47.580        27
47.600        30
47.620        27
47.640        13
47.660        23
47.680        30
47.700        30
47.720        27
47.740        27
47.760        20
47.780        30
47.800        23
47.820        17
47.840        40
47.860        10
47.880        10
47.900        30
47.920        30
47.940        20
47.960        23
47.980        17
48.000        33
48.020        17
48.040        30
48.060        27
48.080        17
48.100        30
48.120        33
48.140        50
48.160        30
48.180        10
48.200        20
48.220        20
48.240        30
48.260        30
48.280        30
48.300        30
48.320        33
48.340        20
48.360        17
48.380        10
48.400        27
48.420        37
48.440        30
48.460        27
48.480        17
48.500        20
48.520        13
48.540        23
48.560        27
48.580        20
48.600        23
48.620         7
48.640        30
48.660        17
48.680        30
48.700        17
48.720        10
48.740        20
48.760        20
48.780        13
48.800        17
48.820        23
48.840        13
48.860        10
48.880        23
48.900        20
48.920         7
48.940        33
48.960        23
48.980         7
49.000        23
49.020        13
49.040        17
49.060         7
49.080        23
49.100        13
49.120        17
49.140        23
49.160        17
49.180        27
49.200        10
49.220        17
49.240        13
49.260        20
49.280        20
49.300        13
49.320        17
49.340        33
49.360         7
49.380        23
49.400        23
49.420        37
49.440        17
49.460         0
49.480        17
49.500        10
49.520        23
49.540        17
49.560        13
49.580        10
49.600        17
49.620        10
49.640        17
49.660        23
49.680        30
49.700        17
49.720        20
49.740         7
49.760        17
49.780        37
49.800        17
49.820        20
49.840        23
49.860        20
49.880        20
49.900        20
49.920        27
49.940        13
49.960        23
49.980        20
50.000        23
50.020        13
50.040        10
50.060        13
50.080        23
50.100        17
50.120        30
50.140        30
50.160        13
50.180        10
50.200        10
50.220        20
50.240        17
50.260        13
50.280        23
50.300        23
50.320        23
50.340        13
50.360        10
50.380        23
50.400        27
50.420        17
50.440        13
50.460        13
50.480        20
50.500        17
50.520        27
50.540        10
50.560        20
50.580        17
50.600        20
50.620        20
50.640        30
50.660        47
50.680        37
50.700        30
50.720        20
50.740        13
50.760        17
50.780        10
50.800        20
50.820        20
50.840        23
50.860        23
50.880        23
50.900        20
50.920        33
50.940        13
50.960        17
50.980        23
51.000        20
51.020        10
51.040        30
51.060        20
51.080        17
51.100        23
51.120        20
51.140         0
51.160        13
51.180        23
51.200        23
51.220        13
51.240        20
51.260        10
51.280        13
51.300        20
51.320        10
51.340        17
51.360        13
51.380        20
51.400        13
51.420        13
51.440        23
51.460        10
51.480        17
51.500        27
51.520        13
51.540        30
51.560        23
51.580        10
51.600        20
51.620        17
51.640        23
51.660        17
51.680        17
51.700        10
51.720        10
51.740        13
51.760        27
51.780        13
51.800        37
51.820        23
51.840        10
51.860         7
51.880        20
51.900        23
51.920        17
51.940        13
51.960        20
51.980        10
52.000        33
52.020        17
52.040        13
52.060        20
52.080        23
52.100        13
52.120        23
52.140        23
52.160        10
52.180        17
52.200        40
52.220        30
52.240        30
52.260        23
52.280        17
52.300        33
52.320        50
52.340        20
52.360        30
52.380        37
52.400        40
52.420        30
52.440        33
52.460        37
52.480        60
52.500        63
52.520       113
52.540       113
52.560       193
52.580       167
52.600       123
52.620       170
52.640       117
52.660       143
52.680        87
52.700       123
52.720       120
52.740        80
52.760        73
52.780        53
52.800        50
52.820        43
52.840        40
52.860        77
52.880        27
52.900        23
52.920        23
52.940        27
52.960        37
52.980        30
53.000        27
53.020        27
53.040        37
53.060        27
53.080        17
53.100        23
53.120        13
53.140         7
53.160        10
53.180        27
53.200        13
53.220        27
53.240        20
53.260        13
53.280        20
53.300        27
53.320         7
53.340        27
53.360        17
53.380        40
53.400        10
53.420        23
53.440        27
53.460        20
53.480        30
53.500        17
53.520        10
53.540        23
53.560        20
53.580        30
53.600        20
53.620         7
53.640        13
53.660        37
53.680        30
53.700        23
53.720         7
53.740        20
53.760        17
53.780        17
53.800        20
53.820        13
53.840        13
53.860        13
53.880        17
53.900         3
53.920        23
53.940        33
53.960        10
53.980        13
54.000        33
54.020        17
54.040        20
54.060        30
54.080        13
54.100        20
54.120        17
54.140        27
54.160        10
54.180        10
54.200        30
54.220         7
54.240        10
54.260        27
54.280        13
54.300        20
54.320        20
54.340        17
54.360        20
54.380        20
54.400        30
54.420        17
54.440        40
54.460        20
54.480        17
54.500        30
54.520        30
54.540        27
54.560        20
54.580        33
54.600        37
54.620        47
54.640        50
54.660        67
54.680        50
54.700        60
54.720        57
54.740        83
54.760        70
54.780        47
54.800        53
54.820        27
54.840        40
54.860        30
54.880        33
54.900        30
54.920        33
54.940        10
54.960        23
54.980        27
55.000        30
55.020        13
55.040        20
55.060        17
55.080        17
55.100        33
55.120        27
55.140        17
55.160        20
55.180        23
55.200        23
55.220        20
55.240        23
55.260        10
55.280        17
55.300        33
55.320        17
55.340        37
55.360        23
55.380        17
55.400        10
55.420        43
55.440        10
55.460        17
55.480        20
55.500        23
55.520        20
55.540        43
55.560        13
55.580        23
55.600        23
55.620         7
55.640        10
55.660        33
55.680        27
55.700        10
55.720        13
55.740         7
55.760        13
55.780         7
55.800        10
55.820        37
55.840        17
55.860        13
55.880        23
55.900        27
55.920         7
55.940        10
55.960        13
55.980        17
56.000        13
56.020        17
56.040        10
56.060        30
56.080        10
56.100        13
56.120        10
56.140         0
56.160        27
56.180        27
56.200        27
56.220        13
56.240        10
56.260        17
56.280        27
56.300        17
56.320         7
56.340        33
56.360        17
56.380        10
56.400        27
56.420        17
56.440        20
56.460        23
56.480        17
56.500        10
56.520         7
56.540        10
56.560        33
56.580        17
56.600        20
56.620        10
56.640        40
56.660        20
56.680         7
56.700        13
56.720        20
56.740        10
56.760        10
56.780         7
56.800        13
56.820        27
56.840        20
56.860         7
56.880        23
56.900        10
56.920        13
56.940        13
56.960        13
56.980        20
57.000         3
57.020        13
57.040        17
57.060        23
57.080        13
57.100        30
57.120        23
57.140        13
57.160        13
57.180         7
57.200        23
57.220        13
57.240        33
57.260        10
57.280        20
57.300        17
57.320        23
57.340         3
57.360        23
57.380         7
57.400        10
57.420        10
57.440         7
57.460        20
57.480        27
57.500        13
57.520        13
57.540        23
57.560        13
57.580        13
57.600         0
57.620        10
57.640        17
57.660        10
57.680        30
57.700         3
57.720        13
57.740        17
57.760         3
57.780         7
57.800        13
57.820        13
57.840        13
57.860         7
57.880        13
57.900        23
57.920        30
57.940        17
57.960        10
57.980        17
58.000        17
58.020        10
58.040        20
58.060        13
58.080        27
58.100        13
58.120        20
58.140        13
58.160        10
58.180        17
58.200         3
58.220        10
58.240        20
58.260        13
58.280        13
58.300        17
58.320        10
58.340        20
58.360        10
58.380        17
58.400         3
58.420        20
58.440         7
58.460        23
58.480        17
58.500        20
58.520        13
58.540        20
58.560        17
58.580         3
58.600        17
58.620         3
58.640        13
58.660        17
58.680        13
58.700        17
58.720        20
58.740         7
58.760        17
58.780        20
58.800        17
58.820        13
58.840        13
58.860        10
58.880        10
58.900        13
58.920        17
58.940        10
58.960        23
58.980         7
59.000        17
59.020        10
59.040        20
59.060        27
59.080        17
59.100         7
59.120         3
59.140        17
59.160        23
59.180         7
59.200        20
59.220        13
59.240        10
59.260        13
59.280        10
59.300        13
59.320        10
59.340        17
59.360        13
59.380        27
59.400        13
59.420        13
59.440        20
59.460        23
59.480        20
59.500        30
59.520        10
59.540        20
59.560         3
59.580        17
59.600        13
59.620         3
59.640        13
59.660        13
59.680        20
59.700        23
59.720        27
59.740         7
59.760        23
59.780        27
59.800         3
59.820        13
59.840        13
59.860        13
59.880         7
59.900        13
59.920        10
59.940        27
59.960        20
59.980        17
60.000         7
