20.000        43
20.020        37
20.040        43
20.060        30
20.080        43
20.100        23
20.120        43
20.140        40
20.160        60
20.180        37
20.200        63
20.220        47
20.240        43
20.260        27
20.280        43
20.300        60
20.320        40
20.340        53
20.360        27
20.380        47
20.400        60
20.420        43
20.440        40
20.460        27
20.480        50
20.500         7
20.520        37
20.540        50
20.560        47
20.580        30
20.600        33
20.620        47
20.640        40
20.660        47
20.680        37
20.700        33
20.720        53
20.740        27
20.760        37
20.780        53
20.800        27
20.820        27
20.840        63
20.860        47
20.880        40
20.900        23
20.920        37
20.940        47
20.960        30
20.980        50
21.000        53
21.020        27
21.040        40
21.060        40
21.080        20
21.100        40
21.120        37
21.140        50
21.160        47
21.180        47
21.200        13
21.220        50
21.240        67
21.260        40
21.280        47
21.300        50
21.320        43
21.340        40
21.360        50
21.380        53
21.400        43
21.420        63
21.440        37
21.460        30
21.480        37
21.500        20
21.520        40
21.540        17
21.560        40
21.580        37
21.600        27
21.620        30
21.640        20
21.660        47
21.680        33
21.700        43
21.720        37
21.740        37
21.760        57
21.780        57
21.800        37
21.820        43
21.840        43
21.860        50
21.880        40
21.900        23
21.920        27
21.940        40
21.960        33
21.980        17
22.000        33
22.020        30
22.040        10
22.060        17
22.080        30
22.100        50
22.120        40
22.140        43
22.160        30
22.180        67
22.200        40
22.220        17
22.240        27
22.260        33
22.280        53
22.300        17
22.320        33
22.340        40
22.360        53
22.380        40
22.400        23
22.420        17
22.440        27
22.460        37
22.480        27
22.500        20
22.520        27
22.540        47
22.560        23
22.580        30
22.600        40
22.620        47
22.640        23
22.660        30
22.680        43
22.700        30
22.720        37
22.740        37
22.760        30
22.780        50
22.800        30
22.820        37
22.840        37
22.860        50
22.880        30
22.900        30
22.920        37
22.940        37
22.960        53
22.980        20
23.000        50
23.020        20
23.040        30
23.060        63
23.080        20
23.100        30
23.120        33
23.140        30
23.160        43
23.180        30
23.200        30
23.220        60
23.240        33
23.260        13
23.280        33
23.300        30
23.320        27
23.340        27
23.360        33
23.380        40
23.400        40
23.420        40
23.440        43
23.460        23
23.480        30
23.500        43
23.520        27
23.540        40
23.560        30
23.580        40
23.600        60
23.620        27
23.640        57
23.660        50
23.680        30
23.700        37
23.720        33
23.740        20
23.760        40
23.780        57
23.800        30
23.820        37
23.840        37
23.860        23
23.880        20
23.900        23
23.920        23
23.940        43
23.960        43
23.980        20
24.000        43
24.020        13
24.040        47
24.060        30
24.080        30
24.100        33
24.120        40
24.140        33
24.160        43
24.180        13
24.200        20
24.220        47
24.240        27
24.260        43
24.280        43
24.300        40
24.320        27
24.340        23
24.360        40
24.380        27
24.400        23
24.420        30
24.440        20
24.460        40
24.480         7
24.500        27
24.520        20
24.540        33
24.560        47
24.580        30
24.600        63
24.620        40
24.640        50
24.660        47
24.680        23
24.700        30
24.720        33
24.740        33
24.760        30
24.780        57
24.800        43
24.820        50
24.840        33
24.860        40
24.880        27
24.900        50
24.920        30
24.940        37
24.960        17
24.980        33
25.000        43
25.020        37
25.040        30
25.060        23
25.080        37
25.100        30
25.120        40
25.140        23
25.160        10
25.180        27
25.200        47
25.220        17
25.240        33
25.260        50
25.280        47
25.300        23
25.320        30
25.340        23
25.360        33
25.380        20
25.400        27
25.420        20
25.440        23
25.460        33
25.480        47
25.500        23
25.520        37
25.540        40
25.560        33
25.580        47
25.600        33
25.620        37
25.640        20
25.660        17
25.680        27
25.700        40
25.720        50
25.740        37
25.760        47
25.780        30
25.800        20
25.820        13
25.840        20
25.860        30
25.880        33
25.900        37
25.920        43
25.940        17
25.960        33
25.980        30
26.000        33
26.020        40
26.040        43
26.060        50
26.080        20
26.100        40
26.120        23
26.140        23
26.160        33
26.180        40
26.200        30
26.220        47
26.240        23
26.260        40
26.280        20
26.300        27
26.320        33
26.340        33
26.360        53
26.380        43
26.400        30
26.420        30
26.440        70
26.460        23
26.480        47
26.500        43
26.520        27
26.540        57
26.560        37
26.580        43
26.600        43
26.620        13
26.640        30
26.660        33
26.680        30
26.700        20
26.720        27
26.740        20
26.760        33
26.780        40
26.800        37
26.820        23
26.840        43
26.860        33
26.880        50
26.900        50
26.920        27
26.940        20
26.960        27
26.980        33
27.000        37
27.020        27
27.040        27
27.060        23
27.080        30
27.100        43
27.120        40
27.140        30
27.160        23
27.180        20
27.200        20
27.220        57
27.240        23
27.260        17
27.280        10
27.300        37
27.320        40
27.340        20
27.360         7
27.380        30
27.400        30
27.420        20
27.440        20
27.460        33
27.480        30
27.500        27
27.520        20
27.540        20
27.560        27
27.580        23
27.600        43
27.620        10
27.640        27
27.660        13
27.680        20
27.700        27
27.720        10
27.740        40
27.760        30
27.780        23
27.800        23
27.820        27
27.840        40
27.860        37
27.880        40
27.900        23
27.920        13
27.940        27
27.960        30
27.980        47
28.000        33
28.020        37
28.040        30
28.060        27
28.080        23
28.100        33
28.120        37
28.140        27
28.160        40
28.180        20
28.200        53
28.220        37
28.240        20
28.260        40
28.280        20
28.300        27
28.320        13
28.340        17
28.360        37
28.380        40
28.400        43
28.420        20
28.440        20
28.460        60
28.480        17
28.500        13
28.520        30
28.540        23
28.560        40
28.580        37
28.600        20
28.620        17
28.640        30
28.660        47
28.680        33
28.700        23
28.720        53
28.740        23
28.760        17
28.780        23
28.800        27
28.820        17
28.840        27
28.860        47
28.880        57
28.900        40
28.920        23
28.940        33
28.960        30
28.980        33
29.000        27
29.020        27
29.040        27
29.060        30
29.080        47
29.100        50
29.120        53
29.140        43
29.160        57
29.180        50
29.200        67
29.220        73
29.240        93
29.260        60
29.280        93
29.300        70
29.320        60
29.340        53
29.360        43
29.380        37
29.400        40
29.420        30
29.440        33
29.460        33
29.480        43
29.500        27
29.520        37
29.540        33
29.560        30
29.580        13
29.600        37
29.620        23
29.640        37
29.660        23
29.680        23
29.700        27
29.720        23
29.740        30
29.760        27
29.780        37
29.800        33
29.820        20
29.840        30
29.860        30
29.880        37
29.900        33
29.920        30
29.940        13
29.960        20
29.980        33
30.000        17
30.020        33
30.040        33
30.060        53
30.080        13
30.100        43
30.120        60
30.140        30
30.160        27
30.180        30
30.200        27
30.220        33
30.240        43
30.260        57
30.280        50
30.300        23
30.320        23
30.340        27
30.360        53
30.380        53
30.400        37
30.420        37
30.440        33
30.460        60
30.480        33
30.500        30
30.520        33
30.540        43
30.560        30
30.580        60
30.600        37
30.620        30
30.640        40
30.660        43
30.680        43
30.700        40
30.720        27
30.740        23
30.760        27
30.780        27
30.800        40
30.820        17
30.840        43
30.860        33
30.880        33
30.900        47
30.920        60
30.940        53
30.960        33
30.980        50
31.000        30
31.020        40
31.040        27
31.060        43
31.080        27
31.100        27
31.120        50
31.140        47
31.160        17
31.180        23
31.200        23
31.220        43
31.240        17
31.260         7
31.280        13
31.300        27
31.320        50
31.340        30
31.360        40
31.380        40
31.400        30
31.420        30
31.440        43
31.460        10
31.480         7
31.500        33
31.520        27
31.540        23
31.560        23
31.580        40
31.600        23
31.620        27
31.640        13
31.660        30
31.680        27
31.700        23
31.720        30
31.740        27
31.760         3
31.780         7
31.800        17
31.820        33
31.840        33
31.860        30
31.880        23
31.900        20
31.920        30
31.940        17
31.960        40
31.980        30
32.000        33
32.020        17
32.040        20
32.060        47
32.080        30
32.100        20
32.120        10
32.140        13
32.160        13
32.180        33
32.200        37
32.220        20
32.240        17
32.260        23
32.280        37
32.300        27
32.320        40
32.340        50
32.360        20
32.380        33
32.400        27
32.420         7
32.440        13
32.460        10
32.480        23
32.500        20
32.520        27
32.540        37
32.560        30
32.580        40
32.600        23
32.620        17
32.640        17
32.660        30
32.680        27
32.700        13
32.720        17
32.740        30
32.760        40
32.780        30
32.800        20
32.820        20
32.840         7
32.860        20
32.880        23
32.900        23
32.920        30
32.940        17
32.960         7
32.980        23
33.000        13
33.020        37
33.040        17
33.060        23
33.080        47
33.100        43
33.120        17
33.140        33
33.160        27
33.180        20
33.200        23
33.220        20
33.240        17
33.260        13
33.280        13
33.300        20
33.320        20
33.340        17
33.360        10
33.380        13
33.400        13
33.420        23
33.440        30
33.460        20
33.480        10
33.500        23
33.520        33
33.540        27
33.560        13
33.580        27
33.600        13
33.620        23
33.640        20
33.660        13
33.680        27
33.700        33
33.720        17
33.740        13
33.760        23
33.780        23
33.800        23
33.820        17
33.840        20
33.860        23
33.880        17
33.900        17
33.920        27
33.940        23
33.960        33
33.980        13
34.000        20
34.020        17
34.040        33
34.060        17
34.080        47
34.100        20
34.120        33
34.140        17
34.160        33
34.180        23
34.200        23
34.220        13
34.240        20
34.260        10
34.280        13
34.300        17
34.320        20
34.340        17
34.360        37
34.380        30
34.400         3
34.420        23
34.440        30
34.460        37
34.480        23
34.500        13
34.520        20
34.540        20
34.560        20
34.580        23
34.600        10
34.620        43
34.640        17
34.660        17
34.680        47
34.700        20
34.720        20
34.740        17
34.760        33
34.780        30
34.800        33
34.820        17
34.840        33
34.860        23
34.880        23
34.900        33
34.920        20
34.940        17
34.960         3
34.980        13
35.000        20
35.020        33
35.040        27
35.060        17
35.080        10
35.100        20
35.120        23
35.140        30
35.160        23
35.180        23
35.200        10
35.220        20
35.240        33
35.260        20
35.280        13
35.300        33
35.320        17
35.340        30
35.360        33
35.380        13
35.400        37
35.420        23
35.440         7
35.460        17
35.480        10
35.500        30
35.520        10
35.540        23
35.560        43
35.580        30
35.600        23
35.620        23
35.640        30
35.660        33
35.680        17
35.700        10
35.720        23
35.740        37
35.760        33
35.780        40
35.800        40
35.820        50
35.840        47
35.860        30
35.880        37
35.900        27
35.920        47
35.940        40
35.960        33
35.980        33
36.000        33
36.020        33
36.040        27
36.060        33
36.080        27
36.100        10
36.120        30
36.140        17
36.160        43
36.180        30
36.200        27
36.220        13
36.240        17
36.260        13
36.280        23
36.300        43
36.320        17
36.340        40
36.360        33
36.380        20
36.400        33
36.420        23
36.440        30
36.460        13
36.480        20
36.500        13
36.520        20
36.540        27
36.560        17
36.580        30
36.600        27
36.620        23
36.640        20
36.660        30
36.680        30
36.700        23
36.720        33
36.740        27
36.760        37
36.780        23
36.800        23
36.820        27
36.840        13
36.860        17
36.880        23
36.900        37
36.920        27
36.940        43
36.960        43
36.980        57
37.000        40
37.020        47
37.040        63
37.060        50
37.080        63
37.100        53
37.120        53
37.140        37
37.160        90
37.180        73
37.200        73
37.220        60
37.240        80
37.260        60
37.280        93
37.300        60
37.320        83
37.340        80
37.360        80
37.380       100
37.400        77
37.420        73
37.440        83
37.460        97
37.480        70
37.500        97
37.520        63
37.540        83
37.560        77
37.580        70
37.600        73
37.620        77
37.640        97
37.660        60
37.680        57
37.700       107
37.720        73
37.740        93
37.760        77
37.780        63
37.800        50
37.820        57
37.840        40
37.860        47
37.880        60
37.900        60
37.920        97
37.940        60
37.960        37
37.980        17
38.000        57
38.020        43
38.040        27
38.060        43
38.080        33
38.100        47
38.120        53
38.140        50
38.160        23
38.180        33
38.200        20
38.220        47
38.240        23
38.260        43
38.280        53
38.300        50
38.320        30
38.340        60
38.360        47
38.380        40
38.400        47
38.420        13
38.440        33
38.460        37
38.480        27
38.500        23
38.520        30
38.540        43
38.560        33
38.580        23
38.600        33
38.620        30
38.640        50
38.660        33
38.680        23
38.700        37
38.720        20
38.740        30
38.760        27
38.780        20
38.800        20
38.820        23
38.840        40
38.860        23
38.880        20
38.900        13
38.920        27
38.940        27
38.960        37
38.980        33
39.000        30
39.020        13
39.040        20
39.060        53
39.080        33
39.100        37
39.120        33
39.140        10
39.160        20
39.180        37
39.200        33
39.220        53
39.240        33
39.260        30
39.280        63
39.300        33
39.320        37
39.340        53
39.360        27
39.380        33
39.400        47
39.420        40
39.440        37
39.460        17
39.480        33
39.500        20
39.520        13
39.540        13
39.560        17
39.580        30
39.600        47
39.620        20
39.640        10
39.660        10
39.680        20
39.700        23
39.720        27
39.740        37
39.760        10
39.780        30
39.800        27
39.820        10
39.840        20
39.860        30
39.880        13
39.900        20
39.920        33
39.940        17
39.960        30
39.980        17
40.000        30
40.020        23
40.040        10
40.060        40
40.080        17
40.100        30
40.120        20
40.140        27
40.160        33
40.180        13
40.200        20
40.220        17
40.240        37
40.260        33
40.280        13
40.300        13
40.320        10
40.340        13
40.360         7
40.380        17
40.400        27
40.420        40
40.440        13
40.460        33
40.480        33
40.500        27
40.520        20
40.540        13
40.560        23
40.580        17
40.600        10
40.620        20
40.640        27
40.660        27
40.680        30
40.700        40
40.720        43
40.740        40
40.760        20
40.780        17
40.800        23
40.820        30
40.840        33
40.860        30
40.880        20
40.900        10
40.920        23
40.940        30
40.960        40
40.980        27
41.000        30
41.020        10
41.040        43
41.060        30
41.080        13
41.100        27
41.120        23
41.140        27
41.160        17
41.180        33
41.200        30
41.220        27
41.240        10
41.260        13
41.280        33
41.300        17
41.320        20
41.340        27
41.360        30
41.380        17
41.400        20
41.420        27
41.440        30
41.460        23
41.480        43
41.500        17
41.520        37
41.540        40
41.560        30
41.580        33
41.600        17
41.620        20
41.640        37
41.660        23
41.680        53
41.700        23
41.720        33
41.740        30
41.760        13
41.780        23
41.800        40
41.820        37
41.840        27
41.860        33
41.880        20
41.900        10
41.920        33
41.940        17
41.960        27
41.980        17
42.000        23
42.020        33
42.040        27
42.060        30
42.080        30
42.100        17
42.120        30
42.140        27
42.160        27
42.180        37
42.200        20
42.220        30
42.240        23
42.260        43
42.280        30
42.300        37
42.320        20
42.340        30
42.360        10
42.380        40
42.400        13
42.420        33
42.440        30
42.460        13
42.480        23
42.500        13
42.520        33
42.540        27
42.560        33
42.580        17
42.600        23
42.620        33
42.640        23
42.660        37
42.680        43
42.700        37
42.720        27
42.740        30
42.760        23
42.780        20
42.800        33
42.820        37
42.840        33
42.860        43
42.880        40
42.900        50
42.920        47
42.940        70
42.960        50
42.980        53
43.000        57
43.020        50
43.040        70
43.060        73
43.080        40
43.100        30
43.120        50
43.140        53
43.160        53
43.180        50
43.200        50
43.220        43
43.240        50
43.260        67
43.280        33
43.300        53
43.320        63
43.340        43
43.360        57
43.380        50
43.400        50
43.420        40
43.440        27
43.460        67
43.480        63
43.500        67
43.520        60
43.540        37
43.560        50
43.580        47
43.600        27
43.620        63
43.640        67
43.660        30
43.680        60
43.700        80
43.720        50
43.740        43
43.760        47
43.780        37
43.800        43
43.820        73
43.840        63
43.860        47
43.880        47
43.900        63
43.920        43
43.940        37
43.960        37
43.980        50
44.000        47
44.020        47
44.040        50
44.060        17
44.080        40
44.100        17
44.120        47
44.140        20
44.160        27
44.180        40
44.200        53
44.220        23
44.240        40
44.260        33
44.280        37
44.300        13
44.320        23
44.340        47
44.360        43
44.380        50
44.400        30
44.420        50
44.440        50
44.460        33
44.480        47
44.500        17
44.520        33
44.540        17
44.560        33
44.580        30
44.600        40
44.620        33
44.640        33
44.660        33
44.680        20
44.700        33
44.720        30
44.740        23
44.760        23
44.780        23
44.800        13
44.820        30
44.840        17
44.860        30
44.880        20
44.900        17
44.920        20
44.940        37
44.960        30
44.980        23
45.000        37
45.020        33
45.040        23
45.060        17
45.080        33
45.100        40
45.120        27
45.140        17
45.160        40
45.180        37
45.200        33
45.220        67
45.240        23
45.260        40
45.280        30
45.300        23
45.320        33
45.340        27
45.360        30
45.380        27
45.400        23
45.420        33
45.440        33
45.460        10
45.480        23
45.500        43
45.520        27
45.540        23
45.560        10
45.580        13
45.600        20
45.620        20
45.640        23
45.660        50
45.680        20
45.700        30
45.720        20
45.740        27
45.760        17
45.780        30
45.800        20
45.820        13
45.840         7
45.860        40
45.880        10
45.900        20
45.920        37
45.940        20
45.960        17
45.980        13
46.000        30
46.020        23
46.040        13
46.060        30
46.080        20
46.100        20
46.120        27
46.140        30
46.160        17
46.180        17
46.200        17
46.220        23
46.240        33
46.260        23
46.280        27
46.300        27
46.320        27
46.340        27
46.360        10
46.380        27
46.400         7
46.420        30
46.440        23
46.460        27
46.480        47
46.500        17
46.520        30
46.540        40
46.560        27
46.580        37
46.600        30
46.620        37
46.640        33
46.660        27
46.680        13
46.700        17
46.720        23
46.740        27
46.760        43
46.780        23
46.800        20
46.820        37
46.840        33
46.860        17
46.880        23
46.900        23
46.920        13
46.940        33
46.960        30
46.980        30
47.000        33
47.020        37
47.040        30
47.060        10
47.080        23
47.100        30
47.120        17
47.140        30
47.160        27
47.180        20
47.200        37
47.220        33
47.240        50
47.260        27
47.280        40
47.300        43
47.320        53
47.340        43
47.360        17
47.380        47
47.400        47
47.420        30
47.440        23
47.460        37
47.480        43
47.500        47
47.520        17
47.540        23
47.560        33
47.580        27
47.600        27
47.620        13
47.640        30
47.660        17
47.680        30
47.700        27
47.720        30
47.740        13
47.760        27
47.780        27
47.800        27
47.820        20
47.840        17
47.860        27
47.880        27
47.900        20
47.920        13
47.940        20
47.960        10
47.980        13
48.000        20
48.020        23
48.040        27
48.060        30
48.080        20
48.100        17
48.120        33
48.140        43
48.160        20
48.180        30
48.200         7
48.220        33
48.240        30
48.260        27
48.280        60
48.300        43
48.320        27
48.340        43
48.360        53
48.380        30
48.400        43
48.420        60
48.440        47
48.460        27
48.480        43
48.500        40
48.520        30
48.540        50
48.560        23
48.580        10
48.600        33
48.620        27
48.640        37
48.660        23
48.680        23
48.700        20
48.720        17
48.740        23
48.760        17
48.780        27
48.800        33
48.820        20
48.840        20
48.860         7
48.880        23
48.900        27
48.920        20
48.940        10
48.960        23
48.980        20
49.000        23
49.020        23
49.040        27
49.060        30
49.080        20
49.100        23
49.120        30
49.140        20
49.160         3
49.180        20
49.200        23
49.220        30
49.240        50
49.260        23
49.280        27
49.300        17
49.320        23
49.340        20
49.360        27
49.380        40
49.400        13
49.420        23
49.440        37
49.460        17
49.480         3
49.500        13
49.520        27
49.540        17
49.560        30
49.580        30
49.600        27
49.620        23
49.640        27
49.660        27
49.680         7
49.700        10
49.720        53
49.740        20
49.760        20
49.780        13
49.800        13
49.820        37
49.840        27
49.860        20
49.880        27
49.900        17
49.920        20
49.940        20
49.960        30
49.980        17
50.000        23
50.020        20
50.040        17
50.060        47
50.080        20
50.100        27
50.120        13
50.140        17
50.160        13
50.180        13
50.200        17
50.220        27
50.240        30
50.260        23
50.280        23
50.300        27
50.320        23
50.340        17
50.360        20
50.380        33
50.400        17
50.420        17
50.440        27
50.460        40
50.480        20
50.500        27
50.520        17
50.540        27
50.560        17
50.580        27
50.600        33
50.620         3
50.640        10
50.660        23
50.680        13
50.700        17
50.720        27
50.740        20
50.760        27
50.780        40
50.800        27
50.820        20
50.840        30
50.860        27
50.880        13
50.900        50
50.920        37
50.940        57
50.960        27
50.980        30
51.000        23
51.020        43
51.040        23
51.060        13
51.080        17
51.100        23
51.120        27
51.140        17
51.160        17
51.180        30
51.200        43
51.220        17
51.240        20
51.260        23
51.280        23
51.300        27
51.320        23
51.340        23
51.360        20
51.380        13
51.400         7
51.420        13
51.440        30
51.460        20
51.480        20
51.500        10
51.520        30
51.540        17
51.560        20
51.580        30
51.600        33
51.620        30
51.640        30
51.660        27
51.680        20
51.700        23
51.720        33
51.740        37
51.760        30
51.780        23
51.800        20
51.820        40
51.840        23
51.860        20
51.880        40
51.900        20
51.920        27
51.940        30
51.960        27
51.980        20
52.000        40
52.020        23
52.040        20
52.060        20
52.080        20
52.100        40
52.120        37
52.140        50
52.160        30
52.180        20
52.200        23
52.220        53
52.240        33
52.260        37
52.280        33
52.300        33
52.320        40
52.340        20
52.360        43
52.380        40
52.400        33
52.420        17
52.440        50
52.460        37
52.480        43
52.500        33
52.520        47
52.540        53
52.560        37
52.580        37
52.600        43
52.620        47
52.640        70
52.660        33
52.680        30
52.700        33
52.720        67
52.740        57
52.760        47
52.780        40
52.800        30
52.820        47
52.840        43
52.860        33
52.880        43
52.900        43
52.920        17
52.940        30
52.960        30
52.980        27
53.000        23
53.020        30
53.040        30
53.060        33
53.080        37
53.100        43
53.120        27
53.140        40
53.160        20
53.180        30
53.200        43
53.220        50
53.240        30
53.260        37
53.280        37
53.300        40
53.320        27
53.340        30
53.360        23
53.380        20
53.400        17
53.420        40
53.440        53
53.460        23
53.480        33
53.500        37
53.520        33
53.540        43
53.560        30
53.580        43
53.600        27
53.620        40
53.640        33
53.660        40
53.680        20
53.700        27
53.720        13
53.740        50
53.760        23
53.780        40
53.800        37
53.820        23
53.840        30
53.860        30
53.880        33
53.900        50
53.920        30
53.940        30
53.960        37
53.980        17
54.000        30
54.020        27
54.040        40
54.060        20
54.080        33
54.100        27
54.120        53
54.140        27
54.160        43
54.180        47
54.200        57
54.220        27
54.240        27
54.260        27
54.280        27
54.300        37
54.320        40
54.340        47
54.360        23
54.380        27
54.400        33
54.420        43
54.440        17
54.460        43
54.480        40
54.500        23
54.520        23
54.540        50
54.560        33
54.580        57
54.600        33
54.620        23
54.640        43
54.660        53
54.680        17
54.700        37
54.720        27
54.740        33
54.760        43
54.780        20
54.800        30
54.820        43
54.840        43
54.860        33
54.880        37
54.900        27
54.920        30
54.940        50
54.960        17
54.980        40
55.000        33
55.020        47
55.040        40
55.060        30
55.080        20
55.100        17
55.120        20
55.140        23
55.160        23
55.180        33
55.200        37
55.220        50
55.240        40
55.260        23
55.280        37
55.300        40
55.320        13
55.340        10
55.360        30
55.380        43
55.400        13
55.420        20
55.440         7
55.460        33
55.480        27
55.500        30
55.520        20
55.540        30
55.560        27
55.580        20
55.600        10
55.620        23
55.640        17
55.660        30
55.680        20
55.700        20
55.720        37
55.740        33
55.760        37
55.780        17
55.800        23
55.820        23
55.840        23
55.860        20
55.880        17
55.900        10
55.920        27
55.940        10
55.960        23
55.980        37
56.000        43
56.020        17
56.040        17
56.060        27
56.080        23
56.100        30
56.120        23
56.140        27
56.160        13
56.180        20
56.200        17
56.220        27
56.240        27
56.260        17
56.280        27
56.300        27
56.320        17
56.340        27
56.360        30
56.380        13
56.400        30
56.420        13
56.440        27
56.460        33
56.480        17
56.500        30
56.520        20
56.540        27
56.560        20
56.580        13
56.600        23
56.620        10
56.640        33
56.660        23
56.680        23
56.700        40
56.720        20
56.740        17
56.760        23
56.780        20
56.800        13
56.820        17
56.840        20
56.860        10
56.880        27
56.900        13
56.920        30
56.940        17
56.960        23
56.980        17
57.000        30
57.020        17
57.040        23
57.060        17
57.080        30
57.100        33
57.120        27
57.140        20
57.160        17
57.180        20
57.200        27
57.220        20
57.240        30
57.260        30
57.280        23
57.300        27
57.320        33
57.340        23
57.360        27
57.380        10
57.400        30
57.420        20
57.440        30
57.460        17
57.480         7
57.500        27
57.520        20
57.540        10
57.560        10
57.580        27
57.600        30
57.620        20
57.640        27
57.660        20
57.680        13
57.700        23
57.720        23
57.740        27
57.760         3
57.780         7
57.800        10
57.820        20
57.840        27
57.860        17
57.880        30
57.900        27
57.920        10
57.940        27
57.960        23
57.980        33
58.000        13
58.020        23
58.040        10
58.060        20
58.080        17
58.100        30
58.120        20
58.140        13
58.160        30
58.180        20
58.200        23
58.220        37
58.240        23
58.260        13
58.280         3
58.300        23
58.320        20
58.340        17
58.360        10
58.380        23
58.400        13
58.420        17
58.440        17
58.460        47
58.480        20
58.500         3
58.520        20
58.540        23
58.560        13
58.580        13
58.600        17
58.620         7
58.640        20
58.660        23
58.680        20
58.700        10
58.720        13
58.740        20
58.760        27
58.780        10
58.800        13
58.820        17
58.840        33
58.860        27
58.880         7
58.900         7
58.920        10
58.940         3
58.960        10
58.980        27
59.000        23
59.020        33
59.040         7
59.060        23
59.080        13
59.100        20
59.120        10
59.140        23
59.160         7
59.180         0
59.200         7
59.220        23
59.240        20
59.260        17
59.280        10
59.300        20
59.320         7
59.340        13
59.360        23
59.380        10
59.400        17
59.420        13
59.440        23
59.460        27
59.480        17
59.500        13
59.520        10
59.540        20
59.560        10
59.580         7
59.600        17
59.620        17
59.640        20
59.660        33
59.680        17
59.700        37
59.720        17
59.740        20
59.760        40
59.780        20
59.800         0
59.820         0
59.840         0
59.860         0
59.880         0
59.900         0
59.920         0
59.940         0
59.960         0
59.980         0
60.000         0
