20.000        50
20.020        70
20.040        60
20.060        60
20.080        53
20.100        53
20.120        40
20.140        43
20.160        20
20.180        67
20.200        47
20.220        53
20.240        47
20.260        40
20.280        57
20.300        63
20.320        33
20.340        60
20.360        37
20.380        30
20.400        27
20.420        50
20.440        43
20.460        27
20.480        17
20.500        43
20.520        37
20.540        57
20.560        40
20.580        40
20.600        37
20.620        27
20.640        43
20.660        27
20.680        53
20.700        40
20.720        37
20.740        37
20.760        47
20.780        40
20.800        47
20.820        47
20.840        23
20.860        23
20.880        47
20.900        27
20.920        47
20.940        30
20.960        27
20.980        67
21.000        23
21.020        70
21.040        43
21.060        53
21.080        43
21.100        27
21.120        60
21.140        37
21.160        40
21.180        23
21.200        33
21.220        33
21.240        37
21.260        47
21.280        20
21.300        43
21.320        40
21.340        40
21.360        67
21.380        27
21.400        33
21.420        20
21.440        47
21.460        47
21.480        67
21.500        33
21.520        43
21.540        50
21.560        43
21.580        50
21.600        33
21.620        33
21.640        23
21.660        40
21.680        50
21.700        33
21.720        37
21.740        37
21.760        50
21.780        43
21.800        47
21.820        50
21.840        30
21.860        27
21.880        40
21.900        40
21.920        50
21.940        27
21.960        50
21.980        30
22.000        53
22.020        37
22.040        27
22.060        47
22.080        23
22.100        47
22.120        30
22.140        43
22.160        37
22.180        30
22.200        33
22.220        57
22.240        57
22.260        37
22.280        40
22.300        23
22.320        47
22.340        33
22.360        30
22.380        27
22.400        30
22.420        23
22.440        27
22.460        60
22.480        37
22.500        53
22.520        57
22.540        43
22.560        33
22.580        27
22.600        43
22.620        40
22.640        57
22.660        43
22.680        30
22.700        47
22.720        37
22.740        30
22.760        33
22.780        40
22.800        43
22.820        30
22.840        10
22.860        53
22.880        57
22.900        13
22.920        33
22.940        40
22.960        60
22.980        30
23.000        30
23.020        50
23.040        40
23.060        37
23.080        23
23.100        30
23.120        33
23.140        20
23.160        20
23.180        40
23.200        23
23.220        30
23.240        33
23.260        47
23.280        47
23.300        30
23.320        37
23.340        27
23.360        50
23.380        43
23.400        33
23.420        33
23.440        30
23.460        27
23.480        47
23.500        47
23.520        47
23.540        20
23.560        27
23.580        43
23.600        53
23.620        60
23.640        30
23.660        30
23.680        30
23.700        27
23.720        17
23.740        30
23.760        37
23.780        30
23.800        23
23.820        47
23.840        33
23.860        33
23.880        43
23.900        43
23.920        33
23.940        47
23.960        13
23.980        23
24.000        37
24.020        53
24.040        40
24.060        47
24.080        37
24.100        33
24.120        33
24.140        27
24.160        43
24.180        37
24.200        40
24.220        53
24.240        33
24.260        30
24.280        50
24.300        37
24.320        70
24.340        47
24.360        37
24.380        83
24.400        30
24.420        20
24.440        47
24.460        50
24.480        30
24.500        23
24.520        43
24.540        37
24.560        33
24.580        30
24.600        27
24.620        37
24.640        27
24.660        40
24.680        27
24.700        30
24.720        63
24.740        43
24.760        33
24.780        37
24.800        60
24.820        47
24.840        40
24.860        53
24.880        30
24.900        47
24.920        23
24.940        33
24.960        40
24.980        37
25.000        13
25.020        40
25.040        30
25.060        20
25.080        33
25.100        17
25.120        30
25.140        33
25.160        27
25.180        50
25.200        33
25.220        23
25.240        30
25.260        63
25.280        43
25.300        50
25.320        33
25.340        27
25.360        40
25.380        10
25.400        30
25.420        47
25.440        27
25.460        27
25.480        30
25.500        17
25.520        20
25.540        30
25.560        37
25.580        13
25.600        33
25.620        37
25.640        27
25.660        17
25.680        13
25.700        37
25.720        20
25.740        30
25.760        33
25.780        27
25.800        37
25.820        20
25.840        37
25.860        27
25.880        37
25.900        20
25.920        23
25.940        30
25.960        23
25.980        33
26.000        43
26.020        13
26.040        10
26.060        33
26.080        40
26.100        27
26.120        30
26.140        50
26.160        20
26.180        37
26.200        30
26.220        30
26.240        33
26.260        20
26.280        17
26.300        33
26.320        33
26.340        47
26.360         7
26.380        37
26.400        37
26.420        43
26.440        30
26.460        30
26.480        33
26.500        30
26.520        33
26.540        23
26.560        27
26.580        30
26.600        37
26.620        20
26.640        33
26.660        27
26.680        23
26.700        10
26.720        40
26.740        33
26.760        23
26.780        37
26.800        40
26.820        33
26.840        60
26.860        50
26.880        23
26.900        37
26.920        47
26.940        20
26.960        23
26.980        47
27.000        30
27.020        23
27.040        30
27.060        30
27.080        23
27.100        50
27.120        43
27.140        17
27.160        23
27.180        40
27.200        30
27.220        27
27.240        23
27.260        20
27.280        37
27.300        27
27.320        33
27.340        27
27.360        27
27.380        30
27.400        23
27.420        20
27.440        33
27.460        13
27.480        30
27.500        43
27.520        33
27.540        43
27.560        33
27.580        30
27.600        40
27.620        13
27.640        37
27.660        27
27.680        30
27.700        40
27.720        40
27.740        27
27.760        20
27.780        30
27.800        23
27.820        23
27.840        47
27.860        27
27.880        40
27.900        30
27.920        17
27.940        17
27.960        37
27.980        40
28.000        17
28.020        30
28.040        10
28.060        47
28.080        17
28.100        20
28.120        20
28.140        37
28.160        23
28.180        13
28.200        37
28.220        17
28.240        30
28.260        27
28.280        23
28.300        40
28.320        20
28.340        30
28.360        17
28.380        33
28.400        27
28.420        30
28.440        20
28.460        27
28.480        17
28.500         7
28.520        33
28.540        27
28.560        30
28.580        30
28.600        40
28.620        23
28.640        27
28.660        27
28.680        33
28.700        40
28.720        10
28.740        50
28.760        17
28.780        33
28.800        17
28.820        23
28.840        23
28.860        13
28.880        23
28.900        37
28.920        30
28.940        37
28.960        27
28.980        47
29.000        20
29.020        30
29.040        37
29.060        33
29.080        27
29.100        50
29.120        30
29.140        43
29.160        17
29.180        47
29.200        73
29.220        43
29.240        40
29.260        50
29.280        50
29.300        47
29.320        90
29.340        63
29.360        40
29.380        60
29.400        33
29.420        37
29.440        23
29.460        50
29.480        47
29.500        17
29.520        13
29.540        17
29.560        30
29.580         7
29.600        30
29.620        27
29.640        27
29.660        23
29.680        23
29.700        47
29.720        23
29.740        47
29.760        17
29.780        17
29.800        33
29.820        33
29.840        17
29.860        17
29.880        43
29.900        20
29.920        13
29.940        13
29.960        20
29.980         7
30.000        23
30.020        20
30.040         7
30.060        20
30.080        17
30.100        23
30.120        30
30.140        23
30.160        17
30.180        37
30.200        23
30.220        47
30.240        40
30.260        13
30.280        23
30.300        13
30.320        30
30.340        17
30.360        47
30.380        17
30.400        43
30.420        17
30.440        20
30.460        20
30.480        27
30.500        23
30.520        57
30.540        20
30.560        30
30.580        20
30.600        33
30.620        23
30.640        43
30.660        43
30.680        43
30.700        23
30.720        33
30.740       140
30.760        57
30.780        23
30.800        63
30.820        57
30.840        47
30.860        70
30.880        63
30.900       107
30.920       137
30.940       173
30.960       140
30.980       157
31.000       193
31.020       180
31.040       123
31.060       153
31.080        97
31.100        87
31.120        70
31.140        63
31.160        27
31.180        60
31.200        37
31.220        33
31.240        47
31.260        40
31.280        23
31.300        37
31.320        30
31.340        27
31.360        27
31.380        20
31.400        27
31.420        10
31.440        23
31.460        23
31.480        27
31.500        23
31.520        13
31.540        30
31.560        27
31.580        23
31.600        47
31.620        33
31.640        23
31.660        27
31.680        43
31.700        43
31.720        30
31.740        20
31.760        33
31.780        13
31.800        23
31.820        17
31.840        27
31.860        20
31.880        23
31.900        23
31.920        27
31.940        23
31.960        27
31.980        30
32.000        23
32.020        20
32.040        30
32.060        20
32.080        30
32.100        37
32.120        30
32.140        10
32.160        23
32.180        33
32.200        30
32.220        27
32.240        30
32.260        30
32.280        40
32.300        23
32.320        30
32.340        23
32.360        23
32.380        27
32.400        23
32.420        17
32.440        17
32.460        13
32.480        20
32.500        20
32.520        10
32.540        20
32.560        20
32.580        30
32.600        17
32.620         3
32.640        13
32.660        33
32.680        17
32.700         7
32.720        20
32.740        27
32.760        17
32.780        37
32.800        10
32.820        30
32.840        23
32.860        47
32.880        20
32.900        13
32.920        17
32.940        37
32.960        17
32.980        20
33.000        30
33.020        23
33.040        13
33.060        17
33.080        13
33.100        27
33.120        23
33.140        27
33.160        30
33.180        13
33.200         7
33.220        23
33.240        20
33.260        17
33.280        10
33.300        13
33.320        13
33.340        27
33.360        30
33.380        23
33.400        30
33.420        13
33.440        20
33.460        43
33.480        17
33.500        20
33.520        27
33.540        23
33.560        20
33.580        23
33.600        33
33.620        13
33.640        20
33.660         7
33.680        17
33.700        33
33.720        13
33.740        33
33.760        30
33.780        20
33.800        13
33.820        23
33.840        23
33.860        17
33.880        23
33.900        10
33.920        20
33.940        30
33.960        23
33.980        27
34.000         7
34.020        27
34.040        37
34.060        37
34.080        37
34.100        23
34.120        13
34.140         7
34.160        30
34.180        30
34.200        30
34.220         7
34.240        20
34.260        30
34.280        33
34.300        40
34.320        23
34.340        20
34.360        30
34.380        23
34.400        53
34.420        53
34.440        53
34.460        40
34.480        30
34.500        23
34.520        40
34.540        20
34.560        13
34.580        20
34.600        20
34.620        10
34.640        23
34.660        23
34.680        20
34.700        10
34.720        20
34.740        20
34.760        37
34.780        20
34.800        17
34.820        37
34.840        17
34.860        20
34.880        17
34.900        27
34.920        23
34.940         7
34.960        20
34.980        13
35.000        20
35.020        23
35.040        20
35.060        27
35.080        30
35.100        57
35.120        37
35.140        60
35.160        60
35.180        63
35.200        33
35.220        33
35.240        47
35.260        30
35.280        23
35.300        33
35.320        27
35.340        13
35.360        27
35.380        37
35.400        27
35.420         7
35.440        10
35.460        33
35.480        27
35.500        20
35.520        30
35.540        47
35.560        30
35.580        20
35.600        17
35.620        23
35.640        27
35.660        33
35.680        43
35.700        53
35.720        33
35.740        37
35.760        43
35.780         7
35.800        30
35.820        27
35.840        33
35.860        40
35.880        30
35.900        27
35.920        47
35.940        20
35.960        30
35.980        13
36.000        23
36.020        27
36.040        33
36.060        20
36.080        27
36.100        23
36.120        23
36.140        23
36.160        10
36.180        33
36.200        33
36.220        20
36.240        40
36.260        17
36.280        17
36.300        30
36.320         7
36.340        23
36.360        20
36.380        17
36.400        30
36.420        30
36.440        23
36.460        23
36.480        27
36.500        30
36.520        20
36.540        17
36.560        13
36.580        20
36.600        27
36.620        13
36.640        10
36.660        23
36.680        17
36.700        30
36.720        17
36.740        30
36.760        20
36.780        47
36.800        17
36.820        37
36.840        30
36.860        33
36.880        30
36.900        40
36.920        30
36.940        23
36.960        30
36.980        30
37.000        20
37.020        33
37.040        20
37.060        23
37.080        20
37.100        47
37.120        37
37.140        27
37.160        20
37.180        23
37.200        37
37.220        27
37.240        37
37.260        43
37.280        33
37.300        27
37.320        30
37.340        50
37.360        40
37.380        23
37.400        27
37.420        23
37.440        33
37.460        33
37.480        20
37.500        43
37.520        33
37.540        43
37.560        27
37.580        33
37.600        57
37.620        37
37.640        47
37.660        43
37.680        57
37.700        53
37.720        47
37.740        37
37.760        53
37.780        67
37.800        60
37.820        60
37.840        80
37.860       103
37.880        93
37.900       100
37.920       117
37.940       123
37.960       110
37.980       150
38.000       163
38.020       190
38.040       300
38.060       393
38.080       530
38.100       713
38.120       743
38.140      1193
38.160      1369
38.180      1459
38.200      1536
38.220      1326
38.240      1269
38.260      1150
38.280      1013
38.300       876
38.320       730
38.340       526
38.360       413
38.380       337
38.400       270
38.420       240
38.440       167
38.460       200
38.480       133
38.500       133
38.520        83
38.540       123
38.560        83
38.580        87
38.600        53
38.620        63
38.640        57
38.660        53
38.680        67
38.700        23
38.720        93
38.740        80
38.760        73
38.780        63
38.800        83
38.820        43
38.840        60
38.860        37
38.880        53
38.900        73
38.920        43
38.940        33
38.960        10
38.980        57
39.000        50
39.020        23
39.040        43
39.060        27
39.080        37
39.100        60
39.120        53
39.140        33
39.160        27
39.180        33
39.200        33
39.220        47
39.240        50
39.260        57
39.280        30
39.300        37
39.320        40
39.340        47
39.360        30
39.380        20
39.400        27
39.420        50
39.440        47
39.460        27
39.480        23
39.500        27
39.520        10
39.540        40
39.560        33
39.580        27
39.600        27
39.620        27
39.640        40
39.660        30
39.680        23
39.700        33
39.720        37
39.740        33
39.760        20
39.780        20
39.800        30
39.820        40
39.840        43
39.860        20
39.880        20
39.900        27
39.920        33
39.940        23
39.960        20
39.980        17
40.000        37
40.020        20
40.040        27
40.060        13
40.080        13
40.100        30
40.120        13
40.140        17
40.160        33
40.180        43
40.200        27
40.220        17
40.240        30
40.260        37
40.280        10
40.300         7
40.320        10
40.340        27
40.360        17
40.380        63
40.400        30
40.420        37
40.440        17
40.460        50
40.480        27
40.500        20
40.520        17
40.540        17
40.560        37
40.580        20
40.600        20
40.620        17
40.640        30
40.660        20
40.680        20
40.700        17
40.720        20
40.740        13
40.760        20
40.780        20
40.800        23
40.820        33
40.840        33
40.860        17
40.880        23
40.900        13
40.920        20
40.940        13
40.960        33
40.980        17
41.000        40
41.020        13
41.040        53
41.060        33
41.080        17
41.100        37
41.120        23
41.140        17
41.160        27
41.180        17
41.200        30
41.220        17
41.240        17
41.260        17
41.280        10
41.300        20
41.320        27
41.340        17
41.360        17
41.380        23
41.400        27
41.420        13
41.440        27
41.460        27
41.480        17
41.500        23
41.520        40
41.540        10
41.560        17
41.580        20
41.600        23
41.620        17
41.640        20
41.660        10
41.680        27
41.700        30
41.720        17
41.740        37
41.760        33
41.780        17
41.800        23
41.820        47
41.840        23
41.860        27
41.880        27
41.900        30
41.920        23
41.940        77
41.960        23
41.980        20
42.000        10
42.020        17
42.040        27
42.060        33
42.080        13
42.100        47
42.120        23
42.140        23
42.160        23
42.180        17
42.200        33
42.220        27
42.240        27
42.260        20
42.280        33
42.300        20
42.320        23
42.340        30
42.360        23
42.380        23
42.400        13
42.420        10
42.440        27
42.460        13
42.480        20
42.500        17
42.520        27
42.540        27
42.560        33
42.580        17
42.600        20
42.620        27
42.640        23
42.660        27
42.680        20
42.700        20
42.720        10
42.740        17
42.760        20
42.780        23
42.800        33
42.820        33
42.840        17
42.860        33
42.880        17
42.900        33
42.920        20
42.940        17
42.960        33
42.980        33
43.000        10
43.020        20
43.040        27
43.060        37
43.080        37
43.100        40
43.120        30
43.140        33
43.160        27
43.180        13
43.200        50
43.220        27
43.240        23
43.260        27
43.280        20
43.300        27
43.320        27
43.340        27
43.360        83
43.380        80
43.400        80
43.420        47
43.440        47
43.460        30
43.480        30
43.500        43
43.520        47
43.540        37
43.560        17
43.580        23
43.600         7
43.620        30
43.640        23
43.660        20
43.680        20
43.700        30
43.720        40
43.740        20
43.760        20
43.780         7
43.800         7
43.820        30
43.840        23
43.860        30
43.880        13
43.900        27
43.920        30
43.940        10
43.960        13
43.980        27
44.000        27
44.020        23
44.040        30
44.060        30
44.080        23
44.100        17
44.120        40
44.140        23
44.160        33
44.180        43
44.200        37
44.220        43
44.240        63
44.260        67
44.280        67
44.300        57
44.320        67
44.340        73
44.360        87
44.380        87
44.400        67
44.420        83
44.440        47
44.460        80
44.480        63
44.500        77
44.520        63
44.540        67
44.560        57
44.580        50
44.600        57
44.620        50
44.640        33
44.660        40
44.680        33
44.700        33
44.720        27
44.740        17
44.760        43
44.780        13
44.800         7
44.820        23
44.840        17
44.860        17
44.880        13
44.900        30
44.920        27
44.940        17
44.960        10
44.980        23
45.000        20
45.020        33
45.040        23
45.060        17
45.080        20
45.100        10
45.120        33
45.140        27
45.160        20
45.180        20
45.200        23
45.220        23
45.240        23
45.260        37
45.280        23
45.300        47
45.320        33
45.340        23
45.360        30
45.380        23
45.400        13
45.420        23
45.440        17
45.460        27
45.480        23
45.500        17
45.520        23
45.540        20
45.560        13
45.580        27
45.600        17
45.620        20
45.640        30
45.660        20
45.680        20
45.700        23
45.720        30
45.740        30
45.760        30
45.780        10
45.800        13
45.820        23
45.840        17
45.860        10
45.880        13
45.900        13
45.920        13
45.940        20
45.960        30
45.980        20
46.000        13
46.020        13
46.040        27
46.060        20
46.080        40
46.100        23
46.120        27
46.140        43
46.160        23
46.180        20
46.200        23
46.220        13
46.240         7
46.260        20
46.280        30
46.300         3
46.320        13
46.340        17
46.360        17
46.380        13
46.400        17
46.420        10
46.440         3
46.460        13
46.480        17
46.500        10
46.520        30
46.540        10
46.560        10
46.580        13
46.600        33
46.620        33
46.640        20
46.660        20
46.680        30
46.700         7
46.720        17
46.740        10
46.760        13
46.780        23
46.800        23
46.820         0
46.840        17
46.860        30
46.880        37
46.900        27
46.920        13
46.940        17
46.960        23
46.980        10
47.000        40
47.020        20
47.040        23
47.060        23
47.080        13
47.100        20
47.120        23
47.140         7
47.160        20
47.180        20
47.200        23
47.220        23
47.240        17
47.260        27
47.280        30
47.300        30
47.320        37
47.340        30
47.360        50
47.380        27
47.400        30
47.420        43
47.440        27
47.460        27
47.480        13
47.500        27
47.520        23
47.540        17
47.560        20
47.580        23
47.600        17
47.620         0
47.640        17
47.660        23
47.680        17
47.700        10
47.720        17
47.740        10
47.760         7
47.780        13
47.800        17
47.820        13
47.840        23
47.860        27
47.880         7
47.900        60
47.920        13
47.940        13
47.960        10
47.980        23
48.000        40
48.020        13
48.040         7
48.060        13
48.080        13
48.100        23
48.120        10
48.140        20
48.160        13
48.180        13
48.200        23
48.220         7
48.240        30
48.260        30
48.280        10
48.300        17
48.320        17
48.340        17
48.360        30
48.380        37
48.400        23
48.420        30
48.440        27
48.460        20
48.480        33
48.500        30
48.520        27
48.540        20
48.560        33
48.580        23
48.600        20
48.620        10
48.640        40
48.660        20
48.680        30
48.700        10
48.720        10
48.740        17
48.760        13
48.780        17
48.800        17
48.820        20
48.840        10
48.860         3
48.880        10
48.900        23
48.920        13
48.940        13
48.960        13
48.980         3
49.000        17
49.020        13
49.040        27
49.060        17
49.080        23
49.100         7
49.120        20
49.140        27
49.160        10
49.180        17
49.200        10
49.220         3
49.240        23
49.260        20
49.280         3
49.300        10
49.320        10
49.340         7
49.360        10
49.380         7
49.400         7
49.420        13
49.440         7
49.460        30
49.480         7
49.500        13
49.520        17
49.540        17
49.560        20
49.580        10
49.600        17
49.620        10
49.640        10
49.660        10
49.680         7
49.700        20
49.720        13
49.740        13
49.760        17
49.780        23
49.800         3
49.820        27
49.840        17
49.860         7
49.880        10
49.900         3
49.920        17
49.940        23
49.960        20
49.980        23
50.000        20
50.020        17
50.040        17
50.060        27
50.080        13
50.100        13
50.120        30
50.140         0
50.160        10
50.180        13
50.200        10
50.220        30
50.240        13
50.260        13
50.280        13
50.300        20
50.320        10
50.340        33
50.360        10
50.380        17
50.400        23
50.420        13
50.440         3
50.460        23
50.480        23
50.500        33
50.520        30
50.540        27
50.560        17
50.580        17
50.600        20
50.620        17
50.640        30
50.660         7
50.680        10
50.700        27
50.720        17
50.740         7
50.760        17
50.780        17
50.800        17
50.820        17
50.840        10
50.860        17
50.880        10
50.900        13
50.920        50
50.940        17
50.960        20
50.980        17
51.000        13
51.020         3
51.040        23
51.060        17
51.080        10
51.100        13
51.120        10
51.140        27
51.160        27
51.180        20
51.200        27
51.220         7
51.240        10
51.260        23
51.280        10
51.300        17
51.320        17
51.340        20
51.360        23
51.380        17
51.400         7
51.420        13
51.440         7
51.460        10
51.480        10
51.500        10
51.520        13
51.540        10
51.560        17
51.580        17
51.600        20
51.620        13
51.640        13
51.660        10
51.680        23
51.700        13
51.720        10
51.740         7
51.760        13
51.780        23
51.800        17
51.820        27
51.840        13
51.860        23
51.880        20
51.900        20
51.920        17
51.940        13
51.960        13
51.980        13
52.000        17
52.020        13
52.040        23
52.060        13
52.080         7
52.100        13
52.120        17
52.140        10
52.160        10
52.180        13
52.200        13
52.220         7
52.240        13
52.260        20
52.280        23
52.300        37
52.320         7
52.340        17
52.360        23
52.380        13
52.400        30
52.420        17
52.440        13
52.460         7
52.480        13
52.500        10
52.520        13
52.540        23
52.560        30
52.580        17
52.600        20
52.620        17
52.640         0
52.660        27
52.680        23
52.700        10
52.720        33
52.740        20
52.760        13
52.780        17
52.800        23
52.820        23
52.840        17
52.860        27
52.880        20
52.900        10
52.920        23
52.940        27
52.960        17
52.980        20
53.000        17
53.020        20
53.040        10
53.060        10
53.080        10
53.100        30
53.120        13
53.140         3
53.160        23
53.180        13
53.200        23
53.220        10
53.240        10
53.260        10
53.280        13
53.300        27
53.320        20
53.340        37
53.360        10
53.380        23
53.400        20
53.420        13
53.440        20
53.460        13
53.480        20
53.500         7
53.520        13
53.540        20
53.560         7
53.580        10
53.600        17
53.620        20
53.640        33
53.660        13
53.680        23
53.700        20
53.720        13
53.740        13
53.760        27
53.780        13
53.800        13
53.820        13
53.840         7
53.860        17
53.880        17
53.900        23
53.920        10
53.940        13
53.960        13
53.980         3
54.000         3
54.020        10
54.040        10
54.060        13
54.080        17
54.100        20
54.120        13
54.140        17
54.160        27
54.180        13
54.200        10
54.220        20
54.240        17
54.260        33
54.280        17
54.300        10
54.320        10
54.340        10
54.360         3
54.380        13
54.400        20
54.420        27
54.440         7
54.460        13
54.480        13
54.500        13
54.520        10
54.540        13
54.560        13
54.580        10
54.600        27
54.620        13
54.640        20
54.660         3
54.680        27
54.700         7
54.720        27
54.740        17
54.760        23
54.780        27
54.800        20
54.820        13
54.840        23
54.860        30
54.880        17
54.900        20
54.920        30
54.940        37
54.960        23
54.980        30
55.000        33
55.020        57
55.040        57
55.060        63
55.080        40
55.100        77
55.120        83
55.140        87
55.160        87
55.180        80
55.200        93
55.220        60
55.240        67
55.260        83
55.280        70
55.300        57
55.320        60
55.340        50
55.360        70
55.380        40
55.400        33
55.420        13
55.440        10
55.460        33
55.480        17
55.500        30
55.520        23
55.540        10
55.560        20
55.580        20
55.600        13
55.620        10
55.640        17
55.660        17
55.680        10
55.700        30
55.720        17
55.740         3
55.760         3
55.780        13
55.800        13
55.820        20
55.840        13
55.860        13
55.880        13
55.900        20
55.920        13
55.940         7
55.960        10
55.980         3
56.000         3
56.020        27
56.040        10
56.060        17
56.080        33
56.100        20
56.120         3
56.140         7
56.160        10
56.180        17
56.200        10
56.220        13
56.240        20
56.260        17
56.280         7
56.300        17
56.320        33
56.340        20
56.360        10
56.380         7
56.400        23
56.420         3
56.440        23
56.460        13
56.480        13
56.500        20
56.520        17
56.540        37
56.560        23
56.580        17
56.600        17
56.620        17
56.640        23
56.660        30
56.680        10
56.700        17
56.720        27
56.740        13
56.760        17
56.780        20
56.800        17
56.820        17
56.840         3
56.860         7
56.880         7
56.900        17
56.920        23
56.940        20
56.960        13
56.980        17
57.000        33
57.020        17
57.040        23
57.060        20
57.080        13
57.100        20
57.120         7
57.140        27
57.160        27
57.180        13
57.200         0
57.220        17
57.240        10
57.260        10
57.280        27
57.300        20
57.320        13
57.340        20
57.360        10
57.380        13
57.400        33
57.420        30
57.440         7
57.460        50
57.480        33
57.500        23
57.520        43
57.540        37
57.560        37
57.580        33
57.600        17
57.620        20
57.640        43
57.660        30
57.680        47
57.700        30
57.720        20
57.740        20
57.760        23
57.780        13
57.800        13
57.820        10
57.840        27
57.860        23
57.880        33
57.900        23
57.920        20
57.940        13
57.960        13
57.980        27
58.000        30
58.020        23
58.040        13
58.060         0
58.080        10
58.100        10
58.120         7
58.140        23
58.160        13
58.180        20
58.200        20
58.220        10
58.240        10
58.260        13
58.280         7
58.300        10
58.320         0
58.340        13
58.360        17
58.380         7
58.400         0
58.420        30
58.440        23
58.460         3
58.480         3
58.500        20
58.520         7
58.540        17
58.560        13
58.580        17
58.600        23
58.620        13
58.640         3
58.660        13
58.680        20
58.700        10
58.720        30
58.740        23
58.760        10
58.780         3
58.800         3
58.820        10
58.840         3
58.860         7
58.880         3
58.900        20
58.920        10
58.940         3
58.960         7
58.980         7
59.000        10
59.020        10
59.040         7
59.060        17
59.080        20
59.100         7
59.120        20
59.140         0
59.160         7
59.180        17
59.200        23
59.220        20
59.240         3
59.260        20
59.280        13
59.300        17
59.320         3
59.340        10
59.360        20
59.380        13
59.400        13
59.420         7
59.440         7
59.460        17
59.480         3
59.500        17
59.520         3
59.540        23
59.560        30
59.580        20
59.600         7
59.620        10
59.640        17
59.660         7
59.680        10
59.700        13
59.720        10
59.740        17
59.760         7
59.780        17
59.800        13
59.820         0
59.840        20
59.860        13
59.880        17
59.900         7
59.920         3
59.940        10
59.960        23
59.980         3
60.000         3
