20.000        63
20.020        53
20.040        23
20.060        27
20.080        23
20.100        47
20.120        43
20.140        23
20.160        33
20.180        27
20.200        20
20.220        33
20.240        53
20.260        30
20.280        27
20.300        23
20.320        33
20.340        47
20.360        37
20.380        40
20.400        33
20.420        50
20.440        37
20.460        20
20.480        30
20.500        53
20.520        30
20.540        60
20.560        33
20.580        57
20.600        40
20.620        43
20.640        50
20.660        33
20.680        33
20.700        33
20.720        30
20.740        20
20.760        43
20.780        43
20.800        23
20.820        13
20.840        47
20.860        50
20.880        40
20.900        43
20.920        40
20.940        40
20.960        27
20.980        33
21.000        50
21.020        57
21.040        33
21.060        43
21.080        57
21.100        33
21.120        27
21.140        23
21.160        33
21.180        33
21.200        43
21.220        57
21.240        47
21.260        30
21.280        40
21.300        23
21.320        33
21.340        43
21.360        43
21.380        30
21.400        33
21.420        50
21.440        23
21.460        37
21.480        23
21.500        27
21.520        33
21.540        23
21.560        23
21.580        23
21.600        60
21.620        30
21.640        20
21.660        47
21.680        27
21.700        33
21.720        50
21.740        57
21.760        40
21.780        37
21.800        50
21.820        47
21.840        27
21.860        40
21.880        33
21.900        33
21.920        30
21.940        47
21.960        53
21.980        47
22.000        67
22.020        27
22.040        30
22.060        43
22.080        27
22.100        53
22.120        53
22.140        30
22.160        47
22.180        23
22.200        33
22.220        37
22.240        37
22.260        37
22.280        43
22.300        13
22.320        43
22.340        30
22.360        27
22.380        27
22.400        37
22.420        37
22.440        40
22.460        57
22.480        20
22.500        47
22.520        47
22.540        27
22.560        47
22.580        30
22.600        43
22.620        43
22.640        17
22.660        50
22.680        47
22.700        20
22.720        33
22.740        33
22.760        43
22.780        33
22.800        27
22.820        30
22.840        30
22.860        33
22.880        27
22.900        27
22.920        20
22.940        20
22.960        43
22.980        27
23.000        50
23.020        20
23.040        37
23.060        40
23.080        37
23.100        50
23.120        37
23.140        20
23.160        37
23.180        27
23.200        33
23.220        30
23.240        20
23.260        27
23.280        37
23.300        40
23.320        47
23.340        43
23.360        67
23.380        23
23.400        40
23.420        43
23.440        23
23.460        37
23.480        20
23.500        27
23.520        33
23.540        20
23.560        20
23.580        27
23.600        30
23.620        30
23.640        40
23.660        30
23.680        47
23.700        40
23.720        23
23.740        47
23.760        27
23.780        20
23.800        30
23.820        60
23.840        17
23.860        30
23.880        30
23.900        40
23.920        20
23.940        27
23.960        50
23.980        47
24.000        47
24.020        37
24.040        43
24.060        43
24.080        23
24.100        23
24.120        33
24.140        47
24.160        33
24.180        63
24.200        40
24.220        33
24.240        30
24.260        20
24.280        17
24.300        27
24.320        47
24.340        20
24.360        27
24.380        23
24.400        23
24.420        40
24.440        30
24.460        17
24.480        53
24.500        27
24.520        33
24.540        33
24.560        40
24.580        23
24.600        30
24.620        33
24.640        33
24.660        43
24.680        33
24.700        27
24.720        33
24.740        37
24.760        63
24.780        43
24.800        23
24.820        47
24.840        50
24.860        27
24.880        30
24.900        13
24.920        33
24.940        30
24.960        47
24.980        40
25.000        50
25.020        23
25.040        27
25.060        27
25.080        33
25.100        30
25.120        47
25.140        27
25.160        30
25.180        40
25.200        13
25.220        37
25.240        37
25.260        43
25.280        30
25.300        20
25.320        43
25.340        30
25.360        10
25.380        17
25.400        40
25.420        43
25.440        47
25.460        27
25.480        27
25.500        23
25.520        40
25.540        27
25.560        53
25.580        23
25.600        43
25.620        33
25.640        37
25.660        37
25.680        53
25.700        37
25.720        33
25.740        50
25.760        23
25.780        33
25.800        27
25.820        37
25.840        33
25.860        50
25.880        33
25.900        37
25.920        23
25.940        33
25.960        13
25.980        23
26.000        53
26.020        20
26.040        47
26.060        10
26.080        10
26.100        13
26.120        10
26.140        33
26.160        33
26.180        10
26.200        33
26.220        23
26.240        27
26.260        20
26.280        27
26.300        27
26.320        27
26.340        27
26.360        43
26.380        40
26.400        33
26.420        30
26.440        23
26.460        23
26.480        33
26.500        30
26.520        20
26.540        30
26.560        23
26.580        27
26.600        23
26.620        37
26.640        33
26.660        17
26.680        27
26.700        20
26.720        27
26.740        20
26.760        20
26.780        20
26.800        17
26.820        10
26.840        27
26.860        23
26.880        30
26.900        40
26.920        27
26.940        27
26.960        30
26.980        13
27.000        40
27.020        37
27.040        13
27.060        30
27.080        30
27.100        27
27.120        40
27.140        40
27.160        17
27.180        23
27.200        23
27.220        40
27.240        40
27.260        20
27.280        20
27.300        33
27.320        23
27.340        20
27.360        30
27.380        23
27.400        40
27.420        23
27.440        20
27.460        20
27.480        27
27.500        37
27.520        33
27.540        27
27.560        13
27.580        30
27.600        10
27.620        43
27.640        20
27.660        17
27.680        23
27.700        17
27.720        13
27.740        20
27.760        33
27.780        37
27.800        30
27.820        23
27.840        23
27.860        23
27.880        23
27.900        23
27.920        40
27.940        30
27.960        10
27.980        47
28.000         7
28.020        23
28.040        40
28.060        37
28.080        23
28.100        30
28.120        27
28.140        10
28.160        30
28.180        13
28.200        50
28.220        23
28.240        17
28.260        27
28.280        13
28.300        20
28.320        30
28.340        13
28.360        33
28.380        17
28.400        20
28.420        30
28.440        20
28.460         7
28.480        30
28.500        33
28.520        23
28.540        37
28.560        37
28.580        13
28.600        47
28.620        30
28.640        27
28.660        43
28.680        13
28.700        27
28.720        23
28.740        43
28.760        33
28.780         3
28.800        20
28.820        37
28.840        23
28.860        33
28.880        13
28.900        33
28.920        30
28.940        20
28.960        20
28.980        37
29.000        37
29.020        37
29.040        17
29.060        27
29.080        40
29.100        40
29.120        30
29.140        47
29.160        37
29.180        47
29.200        47
29.220        53
29.240        37
29.260        47
29.280        53
29.300        37
29.320        37
29.340        33
29.360        23
29.380        20
29.400        30
29.420        10
29.440        17
29.460        33
29.480        20
29.500        23
29.520        20
29.540        17
29.560        37
29.580        20
29.600        23
29.620        23
29.640        10
29.660        17
29.680        13
29.700        27
29.720        30
29.740        20
29.760        10
29.780        37
29.800        20
29.820        23
29.840        20
29.860        30
29.880        23
29.900        20
29.920        17
29.940        23
29.960        33
29.980        33
30.000        37
30.020        23
30.040        33
30.060        10
30.080        30
30.100        23
30.120        17
30.140        30
30.160        13
30.180        30
30.200        30
30.220        10
30.240        33
30.260        17
30.280        17
30.300        30
30.320        30
30.340        10
30.360        17
30.380        30
30.400        20
30.420        10
30.440        37
30.460        33
30.480        30
30.500        27
30.520        10
30.540        33
30.560        30
30.580        17
30.600        23
30.620        20
30.640        17
30.660        30
30.680        20
30.700        20
30.720        23
30.740        17
30.760        13
30.780        23
30.800        27
30.820        13
30.840        10
30.860        23
30.880        23
30.900        37
30.920        20
30.940        17
30.960        37
30.980        13
31.000        13
31.020        17
31.040        10
31.060        17
31.080        13
31.100        40
31.120        30
31.140        17
31.160        23
31.180        17
31.200        27
31.220        13
31.240        17
31.260        40
31.280        23
31.300        17
31.320        23
31.340        17
31.360        17
31.380        20
31.400        33
31.420        27
31.440        13
31.460        20
31.480        13
31.500        27
31.520        13
31.540        33
31.560        33
31.580        27
31.600        13
31.620        10
31.640         3
31.660        17
31.680        20
31.700        27
31.720        20
31.740        33
31.760        23
31.780        13
31.800        23
31.820        13
31.840        10
31.860        17
31.880        13
31.900        10
31.920        17
31.940        30
31.960        20
31.980        13
32.000        37
32.020        10
32.040        20
32.060        37
32.080        17
32.100        10
32.120        17
32.140        13
32.160        30
32.180        27
32.200        33
32.220        17
32.240        27
32.260        33
32.280        10
32.300        20
32.320        10
32.340        30
32.360        13
32.380        23
32.400        10
32.420        13
32.440        20
32.460        17
32.480         7
32.500        13
32.520        10
32.540        13
32.560         3
32.580        30
32.600        23
32.620        20
32.640        27
32.660        27
32.680        20
32.700        13
32.720        37
32.740        10
32.760        23
32.780         7
32.800         0
32.820        10
32.840        10
32.860        17
32.880        23
32.900        27
32.920        13
32.940        17
32.960        13
32.980        17
33.000        10
33.020        23
33.040        17
33.060        17
33.080        13
33.100        40
33.120        13
33.140        20
33.160        10
33.180        27
33.200        23
33.220        20
33.240        23
33.260        27
33.280        20
33.300        17
33.320        20
33.340        20
33.360        20
33.380        20
33.400        23
33.420        23
33.440        20
33.460        20
33.480        27
33.500        20
33.520         7
33.540        23
33.560        20
33.580        27
33.600        37
33.620        13
33.640        13
33.660        17
33.680        13
33.700        17
33.720        27
33.740        20
33.760        37
33.780        13
33.800        17
33.820        30
33.840        10
33.860        23
33.880        37
33.900        17
33.920        30
33.940        17
33.960        20
33.980        13
34.000        13
34.020        13
34.040        17
34.060        17
34.080        20
34.100        17
34.120        10
34.140        23
34.160        17
34.180        23
34.200        13
34.220        23
34.240        23
34.260        30
34.280        10
34.300        20
34.320        20
34.340        23
34.360        27
34.380        13
34.400        27
34.420        30
34.440        23
34.460        10
34.480        17
34.500        20
34.520        13
34.540        23
34.560        20
34.580        13
34.600        23
34.620        13
34.640        20
34.660        10
34.680        10
34.700        20
34.720        20
34.740        33
34.760        10
34.780        23
34.800        13
34.820        20
34.840        20
34.860        33
34.880        10
34.900        23
34.920        30
34.940        23
34.960         7
34.980        13
35.000        17
35.020        17
35.040        23
35.060        17
35.080        33
35.100        17
35.120        17
35.140        33
35.160        30
35.180        10
35.200        20
35.220        33
35.240        37
35.260        20
35.280        33
35.300        17
35.320        17
35.340        23
35.360        17
35.380        10
35.400         3
35.420         7
35.440        23
35.460         3
35.480        17
35.500        17
35.520        13
35.540        17
35.560        23
35.580         7
35.600        20
35.620        13
35.640        20
35.660        27
35.680        17
35.700        13
35.720        20
35.740        47
35.760        13
35.780        23
35.800        17
35.820        43
35.840        37
35.860        13
35.880        27
35.900        30
35.920        27
35.940        20
35.960        20
35.980        23
36.000        17
36.020        13
36.040        30
36.060        30
36.080         3
36.100        10
36.120        13
36.140        10
36.160        23
36.180        13
36.200        17
36.220        17
36.240        10
36.260         0
36.280        10
36.300        20
36.320         7
36.340        40
36.360        10
36.380        30
36.400        13
36.420        40
36.440        37
36.460        13
36.480        20
36.500        20
36.520        10
36.540        40
36.560        17
36.580        23
36.600        13
36.620        17
36.640        10
36.660         7
36.680        23
36.700        20
36.720        20
36.740        20
36.760        10
36.780        17
36.800        13
36.820        20
36.840        27
36.860        13
36.880        33
36.900        17
36.920        17
36.940        33
36.960        23
36.980        20
37.000        23
37.020        23
37.040        23
37.060        13
37.080        10
37.100        13
37.120         7
37.140        17
37.160         7
37.180         7
37.200        20
37.220        27
37.240        10
37.260        10
37.280        23
37.300        10
37.320         7
37.340        17
37.360        40
37.380        33
37.400        17
37.420        23
37.440        17
37.460        17
37.480        27
37.500        27
37.520        33
37.540        10
37.560        30
37.580        20
37.600        43
37.620        17
37.640        17
37.660        20
37.680        20
37.700        13
37.720        17
37.740        13
37.760        37
37.780        20
37.800         7
37.820        23
37.840        23
37.860        10
37.880        20
37.900        13
37.920        27
37.940        23
37.960        17
37.980        20
38.000        20
38.020        23
38.040        20
38.060         7
38.080        20
38.100        23
38.120        37
38.140        33
38.160        20
38.180        10
38.200        13
38.220        13
38.240        33
38.260        13
38.280        20
38.300        27
38.320        20
38.340        17
38.360        13
38.380        17
38.400        17
38.420         7
38.440        20
38.460        17
38.480        13
38.500        13
38.520        40
38.540        13
38.560        30
38.580        23
38.600        13
38.620        27
38.640        10
38.660        27
38.680        37
38.700        13
38.720        17
38.740        27
38.760        17
38.780        27
38.800        27
38.820        20
38.840        17
38.860        37
38.880        27
38.900        13
38.920        17
38.940        20
38.960        23
38.980        20
39.000        13
39.020        47
39.040        30
39.060        30
39.080        23
39.100        23
39.120        30
39.140        17
39.160        23
39.180        27
39.200        30
39.220        27
39.240        50
39.260        23
39.280        17
39.300        57
39.320        30
39.340        30
39.360        23
39.380        30
39.400        20
39.420        27
39.440        30
39.460        33
39.480        23
39.500        13
39.520        17
39.540        23
39.560        27
39.580        13
39.600        27
39.620        17
39.640        27
39.660        17
39.680         7
39.700        30
39.720        20
39.740         7
39.760        30
39.780        20
39.800        20
39.820        17
39.840        30
39.860        20
39.880        27
39.900        17
39.920        17
39.940        10
39.960        10
39.980        37
40.000        10
40.020        13
40.040        17
40.060        17
40.080        10
40.100        17
40.120        17
40.140        10
40.160        30
40.180        17
40.200        13
40.220         7
40.240        27
40.260        30
40.280        37
40.300        30
40.320        17
40.340        27
40.360        17
40.380        20
40.400        17
40.420        37
40.440        13
40.460        20
40.480        27
40.500         3
40.520        23
40.540        20
40.560        23
40.580        30
40.600        23
40.620        17
40.640        17
40.660        17
40.680         7
40.700        37
40.720        23
40.740        10
40.760        10
40.780        23
40.800        13
40.820        23
40.840        10
40.860        33
40.880        17
40.900        27
40.920        23
40.940        17
40.960        10
40.980         7
41.000        17
41.020        13
41.040        23
41.060         7
41.080        30
41.100        13
41.120        20
41.140        10
41.160        30
41.180        27
41.200        23
41.220        33
41.240        17
41.260        13
41.280        20
41.300        17
41.320        17
41.340        33
41.360        13
41.380        23
41.400        10
41.420        10
41.440        20
41.460        30
41.480        27
41.500        17
41.520        23
41.540        10
41.560        20
41.580        13
41.600        27
41.620        10
41.640        33
41.660        13
41.680        17
41.700        30
41.720        27
41.740        17
41.760        23
41.780         3
41.800        20
41.820        33
41.840        13
41.860        27
41.880        23
41.900        27
41.920        20
41.940        20
41.960        17
41.980        10
42.000        20
42.020         0
42.040        17
42.060        40
42.080        13
42.100        37
42.120         7
42.140        23
42.160        20
42.180        27
42.200        27
42.220        23
42.240        17
42.260        37
42.280        37
42.300        27
42.320        27
42.340        17
42.360        17
42.380        30
42.400        27
42.420        27
42.440        23
42.460        23
42.480        10
42.500         7
42.520        27
42.540         0
42.560        20
42.580        23
42.600        20
42.620        13
42.640        23
42.660        13
42.680        20
42.700        27
42.720        13
42.740        17
42.760        10
42.780        23
42.800        30
42.820        17
42.840        33
42.860        30
42.880        20
42.900        20
42.920        27
42.940        10
42.960        47
42.980        27
43.000        13
43.020        47
43.040        27
43.060        27
43.080        27
43.100        27
43.120        33
43.140        37
43.160        30
43.180        30
43.200        23
43.220        23
43.240        27
43.260        17
43.280        30
43.300        33
43.320        20
43.340        23
43.360        23
43.380        13
43.400        10
43.420        20
43.440        17
43.460        10
43.480        17
43.500         7
43.520        23
43.540        23
43.560        17
43.580        23
43.600        27
43.620        17
43.640        13
43.660        10
43.680        27
43.700        23
43.720        27
43.740        20
43.760        20
43.780        13
43.800         7
43.820        17
43.840        20
43.860        10
43.880        30
43.900        17
43.920        23
43.940        37
43.960        27
43.980        17
44.000        10
44.020        33
44.040        27
44.060        13
44.080        20
44.100        13
44.120        10
44.140        30
44.160        17
44.180        27
44.200         7
44.220         7
44.240        13
44.260        23
44.280        23
44.300        27
44.320        17
44.340        13
44.360        17
44.380        27
44.400        10
44.420        17
44.440        13
44.460        17
44.480        10
44.500        27
44.520        23
44.540        23
44.560        27
44.580        17
44.600        13
44.620        13
44.640        27
44.660        23
44.680        27
44.700        10
44.720        20
44.740        23
44.760        13
44.780        27
44.800        27
44.820        20
44.840        23
44.860        13
44.880        17
44.900        37
44.920        30
44.940        23
44.960        37
44.980        33
45.000        17
45.020         7
45.040        30
45.060        33
45.080        23
45.100         7
45.120        23
45.140        30
45.160        20
45.180        33
45.200        33
45.220         7
45.240        20
45.260        23
45.280        33
45.300        23
45.320        23
45.340        33
45.360        23
45.380        20
45.400        27
45.420        17
45.440        17
45.460        20
45.480        17
45.500        23
45.520        13
45.540        10
45.560        23
45.580        23
45.600         3
45.620        23
45.640        13
45.660        20
45.680        20
45.700        20
45.720        17
45.740        20
45.760        23
45.780        17
45.800         7
45.820        13
45.840        17
45.860        23
45.880        23
45.900        13
45.920         7
45.940        20
45.960        10
45.980        23
46.000        20
46.020        20
46.040        23
46.060        17
46.080        13
46.100        27
46.120        17
46.140        17
46.160        27
46.180        13
46.200        13
46.220        10
46.240         7
46.260        27
46.280        23
46.300        13
46.320        27
46.340        17
46.360        30
46.380        17
46.400        40
46.420         0
46.440        23
46.460        17
46.480        10
46.500        17
46.520        13
46.540        10
46.560        10
46.580        17
46.600        20
46.620        27
46.640        13
46.660        30
46.680        17
46.700        23
46.720        27
46.740        17
46.760        20
46.780        20
46.800        20
46.820        27
46.840        13
46.860        27
46.880        20
46.900        23
46.920        27
46.940        33
46.960        27
46.980        23
47.000        33
47.020        30
47.040        47
47.060        20
47.080        30
47.100        23
47.120        27
47.140        10
47.160        30
47.180        13
47.200        33
47.220        33
47.240        27
47.260        43
47.280        33
47.300        37
47.320        60
47.340        47
47.360        27
47.380        67
47.400        53
47.420        40
47.440        50
47.460        37
47.480        43
47.500        27
47.520        63
47.540        43
47.560        53
47.580        20
47.600        27
47.620        47
47.640        17
47.660        20
47.680        13
47.700        23
47.720         3
47.740        40
47.760         7
47.780        27
47.800        13
47.820        23
47.840        17
47.860         7
47.880        20
47.900         7
47.920        27
47.940        33
47.960        13
47.980        20
48.000         3
48.020        10
48.040        10
48.060        27
48.080        17
48.100        20
48.120        13
48.140        20
48.160        37
48.180        17
48.200        20
48.220        43
48.240        37
48.260        17
48.280        17
48.300        47
48.320        30
48.340        37
48.360        23
48.380        33
48.400        43
48.420        67
48.440        27
48.460        53
48.480        30
48.500        33
48.520        30
48.540        17
48.560        17
48.580        17
48.600        17
48.620        23
48.640        30
48.660        23
48.680        23
48.700        17
48.720        27
48.740        20
48.760        27
48.780        23
48.800        23
48.820        17
48.840        33
48.860        17
48.880        30
48.900        10
48.920        23
48.940         7
48.960        20
48.980        27
49.000        10
49.020        10
49.040        23
49.060        20
49.080        17
49.100        13
49.120        20
49.140        20
49.160        10
49.180        23
49.200        13
49.220        13
49.240        17
49.260        27
49.280        23
49.300        13
49.320        23
49.340        17
49.360        20
49.380        17
49.400        23
49.420        17
49.440        17
49.460        17
49.480        23
49.500        27
49.520        33
49.540         7
49.560        40
49.580        30
49.600        17
49.620        17
49.640        20
49.660        23
49.680        13
49.700        17
49.720        30
49.740        13
49.760        17
49.780        10
49.800        23
49.820        40
49.840        17
49.860        17
49.880        23
49.900        13
49.920        37
49.940        10
49.960        13
49.980        23
50.000        27
50.020        37
50.040        10
50.060        23
50.080        23
50.100        13
50.120        17
50.140        13
50.160        27
50.180        27
50.200         7
50.220        23
50.240         7
50.260        13
50.280        33
50.300        40
50.320        20
50.340        13
50.360        17
50.380        27
50.400        40
50.420        27
50.440        23
50.460        10
50.480        20
50.500        10
50.520        13
50.540        17
50.560        23
50.580        13
50.600        27
50.620        23
50.640        33
50.660        37
50.680        20
50.700        13
50.720        33
50.740        27
50.760        13
50.780        23
50.800        37
50.820        33
50.840        27
50.860        13
50.880        30
50.900        23
50.920        23
50.940         7
50.960        37
50.980        30
51.000        10
51.020        17
51.040        23
51.060        20
51.080        23
51.100         7
51.120         3
51.140        20
51.160        17
51.180        27
51.200        17
51.220        17
51.240        17
51.260        13
51.280        40
51.300        33
51.320        30
51.340        20
51.360        27
51.380        47
51.400        23
51.420        40
51.440        10
51.460        17
51.480        17
51.500        30
51.520        37
51.540        23
51.560        23
51.580        33
51.600        37
51.620        37
51.640        37
51.660        20
51.680        40
51.700        30
51.720        37
51.740        43
51.760        33
51.780        33
51.800        23
51.820        33
51.840        33
51.860        20
51.880         7
51.900        30
51.920        20
51.940        30
51.960        33
51.980        23
52.000        33
52.020        37
52.040        50
52.060        17
52.080        43
52.100        27
52.120        27
52.140        23
52.160        30
52.180        30
52.200        23
52.220        33
52.240        37
52.260        33
52.280        37
52.300        33
52.320        43
52.340        23
52.360        37
52.380        23
52.400        23
52.420        33
52.440        30
52.460        23
52.480        33
52.500        23
52.520        47
52.540        23
52.560        63
52.580        57
52.600        27
52.620        40
52.640        30
52.660        37
52.680        50
52.700        40
52.720        43
52.740        43
52.760        37
52.780        43
52.800        50
52.820        50
52.840        47
52.860        43
52.880        57
52.900        20
52.920        10
52.940        50
52.960        53
52.980        37
53.000        50
53.020        40
53.040        33
53.060        33
53.080        43
53.100        47
53.120        20
53.140        27
53.160        20
53.180        17
53.200        23
53.220        13
53.240        33
53.260        20
53.280        17
53.300        37
53.320        27
53.340        33
53.360        20
53.380        20
53.400        20
53.420        17
53.440        43
53.460        27
53.480        17
53.500        20
53.520        33
53.540        40
53.560        30
53.580        13
53.600        17
53.620        33
53.640        23
53.660        23
53.680        17
53.700        40
53.720        30
53.740        33
53.760        10
53.780        30
53.800        20
53.820        17
53.840        17
53.860        13
53.880        10
53.900        23
53.920        13
53.940        20
53.960        13
53.980        30
54.000        20
54.020        17
54.040         7
54.060        23
54.080        13
54.100        10
54.120        20
54.140        23
54.160        23
54.180        23
54.200        13
54.220        23
54.240        33
54.260        27
54.280        23
54.300        23
54.320        23
54.340        13
54.360        20
54.380        30
54.400         7
54.420        23
54.440        27
54.460        23
54.480        17
54.500         7
54.520        13
54.540        20
54.560        10
54.580         7
54.600        13
54.620        27
54.640        33
54.660         7
54.680        20
54.700        23
54.720        17
54.740        13
54.760        17
54.780        20
54.800        13
54.820        30
54.840        20
54.860        23
54.880        33
54.900        23
54.920        17
54.940        20
54.960        30
54.980        23
55.000        27
55.020        20
55.040        37
55.060        23
55.080        27
55.100        30
55.120        17
55.140        13
55.160        27
55.180        10
55.200        10
55.220        23
55.240        17
55.260        30
55.280        20
55.300        13
55.320        20
55.340        20
55.360        20
55.380        23
55.400        10
55.420        20
55.440        20
55.460        30
55.480        17
55.500        20
55.520        20
55.540        13
55.560        23
55.580        17
55.600        23
55.620        27
55.640        17
55.660        13
55.680        17
55.700        27
55.720        33
55.740        13
55.760        27
55.780        10
55.800        20
55.820         0
55.840        30
55.860        20
55.880         7
55.900        10
55.920         7
55.940        20
55.960        20
55.980        17
56.000        13
56.020        17
56.040        10
56.060        20
56.080        10
56.100        20
56.120        10
56.140         3
56.160        17
56.180        23
56.200        17
56.220        13
56.240        13
56.260        17
56.280        33
56.300        17
56.320        20
56.340        23
56.360        23
56.380         7
56.400        13
56.420        20
56.440        17
56.460        33
56.480        10
56.500        23
56.520         7
56.540        17
56.560        10
56.580        23
56.600        23
56.620        13
56.640        27
56.660        13
56.680        23
56.700        23
56.720        20
56.740        27
56.760        27
56.780        23
56.800        27
56.820         3
56.840        33
56.860        17
56.880        17
56.900        20
56.920        17
56.940        17
56.960        13
56.980        13
57.000        23
57.020        20
57.040        27
57.060        30
57.080        37
57.100        17
57.120        23
57.140        10
57.160        43
57.180        10
57.200         7
57.220        13
57.240        27
57.260        37
57.280        43
57.300        13
57.320        30
57.340        23
57.360        23
57.380         7
57.400        33
57.420        23
57.440        27
57.460        20
57.480        20
57.500        27
57.520        20
57.540        10
57.560        13
57.580        10
57.600        17
57.620        33
57.640        17
57.660         7
57.680        10
57.700         3
57.720        20
57.740         7
57.760         3
57.780        23
57.800        10
57.820        17
57.840        10
57.860        17
57.880        17
57.900         7
57.920        13
57.940        23
57.960         7
57.980         3
58.000        23
58.020         7
58.040        17
58.060        10
58.080        20
58.100         7
58.120        20
58.140         7
58.160        10
58.180        13
58.200        20
58.220        13
58.240        13
58.260        20
58.280        17
58.300         7
58.320        27
58.340        13
58.360        13
58.380         7
58.400         7
58.420         7
58.440        13
58.460        30
58.480         3
58.500        10
58.520         3
58.540        13
58.560        30
58.580        17
58.600         7
58.620        17
58.640        10
58.660        10
58.680        17
58.700        10
58.720         3
58.740        20
58.760        17
58.780        17
58.800        10
58.820        23
58.840         7
58.860        10
58.880         7
58.900        13
58.920        17
58.940        10
58.960        23
58.980        13
59.000         3
59.020        10
59.040        27
59.060        17
59.080         7
59.100         0
59.120        10
59.140         7
59.160         0
59.180        13
59.200        10
59.220        17
59.240        17
59.260        13
59.280         7
59.300        13
59.320        23
59.340        13
59.360        13
59.380         7
59.400         3
59.420         7
59.440        23
59.460        10
59.480        13
59.500         0
59.520         7
59.540        13
59.560        33
59.580        10
59.600        17
59.620         7
59.640        17
59.660        17
59.680        10
59.700         3
59.720        13
59.740        10
59.760        17
59.780        17
59.800        17
59.820        23
59.840         7
59.860        17
59.880        13
59.900        13
59.920        13
59.940        10
59.960        27
59.980         3
60.000         3
