20.000        33
20.020        33
20.040        60
20.060        57
20.080        50
20.100        53
20.120        37
20.140        53
20.160        57
20.180        60
20.200        63
20.220        63
20.240        53
20.260        33
20.280        63
20.300        70
20.320        30
20.340        70
20.360        73
20.380        37
20.400        57
20.420        83
20.440        53
20.460        50
20.480        37
20.500        57
20.520        70
20.540        40
20.560        57
20.580        70
20.600        67
20.620        60
20.640        63
20.660        63
20.680        30
20.700        87
20.720        63
20.740        53
20.760        53
20.780        50
20.800        50
20.820        53
20.840        40
20.860        50
20.880        53
20.900        47
20.920        53
20.940        77
20.960        37
20.980        43
21.000        53
21.020        47
21.040        33
21.060        57
21.080        40
21.100        33
21.120        30
21.140        47
21.160        57
21.180        60
21.200        37
21.220        40
21.240        73
21.260        47
21.280        33
21.300        40
21.320        47
21.340        60
21.360        57
21.380        60
21.400        47
21.420        50
21.440        40
21.460        33
21.480        53
21.500        60
21.520        57
21.540        47
21.560        33
21.580        67
21.600        63
21.620        60
21.640        53
21.660        53
21.680        47
21.700        60
21.720        57
21.740        87
21.760        73
21.780        70
21.800        57
21.820        60
21.840        57
21.860        60
21.880        80
21.900        83
21.920        50
21.940        70
21.960        70
21.980        57
22.000        57
22.020        30
22.040        43
22.060        57
22.080        37
22.100        27
22.120        53
22.140        43
22.160        57
22.180        53
22.200        43
22.220        43
22.240        67
22.260        30
22.280        43
22.300        63
22.320        33
22.340        40
22.360        47
22.380        43
22.400        30
22.420        47
22.440        60
22.460        70
22.480        43
22.500        30
22.520        43
22.540        43
22.560        67
22.580        57
22.600        23
22.620        30
22.640        37
22.660        40
22.680        20
22.700        47
22.720        53
22.740        50
22.760        23
22.780        40
22.800        17
22.820        30
22.840        33
22.860        27
22.880        47
22.900        47
22.920        50
22.940        40
22.960        80
22.980        60
23.000        43
23.020        40
23.040        40
23.060        30
23.080        70
23.100        40
23.120        67
23.140        30
23.160        33
23.180        40
23.200        40
23.220        43
23.240        60
23.260        33
23.280        23
23.300        27
23.320        27
23.340        70
23.360        37
23.380        57
23.400        20
23.420        20
23.440        23
23.460        33
23.480        27
23.500        57
23.520        43
23.540        33
23.560        37
23.580        30
23.600        43
23.620        57
23.640        47
23.660        50
23.680        30
23.700        40
23.720        37
23.740        47
23.760        40
23.780        47
23.800        43
23.820        27
23.840        50
23.860        40
23.880        53
23.900        30
23.920        53
23.940        23
23.960        53
23.980        50
24.000        37
24.020        30
24.040        53
24.060        33
24.080        47
24.100        23
24.120        53
24.140        33
24.160        27
24.180        37
24.200        40
24.220        33
24.240        17
24.260        53
24.280        47
24.300        53
24.320        23
24.340        67
24.360        30
24.380        33
24.400        37
24.420        33
24.440        27
24.460        13
24.480        40
24.500        50
24.520        37
24.540        33
24.560        47
24.580        30
24.600        53
24.620        33
24.640        37
24.660        23
24.680        43
24.700        43
24.720        23
24.740        27
24.760        43
24.780        33
24.800        37
24.820        43
24.840        37
24.860        43
24.880        27
24.900        47
24.920        13
24.940        63
24.960        37
24.980        43
25.000        40
25.020        43
25.040        40
25.060        23
25.080        57
25.100        60
25.120        30
25.140        47
25.160        50
25.180        33
25.200        60
25.220        20
25.240        33
25.260        60
25.280        30
25.300        33
25.320        43
25.340        47
25.360        20
25.380        33
25.400        20
25.420        40
25.440        40
25.460        53
25.480        30
25.500        43
25.520        30
25.540        37
25.560        53
25.580        43
25.600        63
25.620        33
25.640        20
25.660        47
25.680        30
25.700        37
25.720        40
25.740        30
25.760        40
25.780        33
25.800        33
25.820        33
25.840        37
25.860        50
25.880        17
25.900        37
25.920        53
25.940        43
25.960        37
25.980        40
26.000        43
26.020        27
26.040        57
26.060        50
26.080        43
26.100        37
26.120        33
26.140        43
26.160        37
26.180        17
26.200        63
26.220        37
26.240        53
26.260        27
26.280        43
26.300        33
26.320        37
26.340        47
26.360        43
26.380        33
26.400        33
26.420        30
26.440        43
26.460        37
26.480        43
26.500        33
26.520        43
26.540        40
26.560        37
26.580        40
26.600        57
26.620        37
26.640        33
26.660        43
26.680        23
26.700        33
26.720        20
26.740        23
26.760        30
26.780        40
26.800        47
26.820        53
26.840        27
26.860        53
26.880        30
26.900        27
26.920        37
26.940        33
26.960        47
26.980        53
27.000        63
27.020        43
27.040        40
27.060        37
27.080        20
27.100        30
27.120        40
27.140        40
27.160        43
27.180        33
27.200        47
27.220        50
27.240        13
27.260        50
27.280        33
27.300        40
27.320        30
27.340        23
27.360        23
27.380        37
27.400        57
27.420        43
27.440        50
27.460        17
27.480        50
27.500        20
27.520        47
27.540        37
27.560        27
27.580        80
27.600        47
27.620        57
27.640        50
27.660        37
27.680        57
27.700        50
27.720        23
27.740        30
27.760        53
27.780        40
27.800        53
27.820        47
27.840        33
27.860        83
27.880        73
27.900        63
27.920        97
27.940        90
27.960       127
27.980       103
28.000        57
28.020        53
28.040        60
28.060        50
28.080        33
28.100        20
28.120        40
28.140        47
28.160        57
28.180        47
28.200        43
28.220        30
28.240        37
28.260        50
28.280        57
28.300        37
28.320        43
28.340        50
28.360        53
28.380        53
28.400        20
28.420        43
28.440        33
28.460        47
28.480        40
28.500        33
28.520        47
28.540        40
28.560        13
28.580        27
28.600        27
28.620        20
28.640        33
28.660        43
28.680        30
28.700        50
28.720        23
28.740        23
28.760        47
28.780        37
28.800        43
28.820        67
28.840        47
28.860        40
28.880        67
28.900        53
28.920        37
28.940        73
28.960        43
28.980        47
29.000        27
29.020        40
29.040        20
29.060        43
29.080        40
29.100        53
29.120        60
29.140        43
29.160        43
29.180        33
29.200        27
29.220        30
29.240        53
29.260        40
29.280        27
29.300        50
29.320        37
29.340        77
29.360        47
29.380        50
29.400        27
29.420        37
29.440        60
29.460        50
29.480        63
29.500        43
29.520        23
29.540        43
29.560        40
29.580        27
29.600        40
29.620        27
29.640        60
29.660        33
29.680        43
29.700        17
29.720        47
29.740        40
29.760        23
29.780        37
29.800        40
29.820        40
29.840        67
29.860        50
29.880        40
29.900        33
29.920        50
29.940        60
29.960        43
29.980        93
30.000        63
30.020        50
30.040        77
30.060       120
30.080       100
30.100        80
30.120        60
30.140        67
30.160       127
30.180        87
30.200        93
30.220        63
30.240        70
30.260        77
30.280        63
30.300        70
30.320        93
30.340        77
30.360        90
30.380        77
30.400       103
30.420        97
30.440        43
30.460        97
30.480        87
30.500       103
30.520       107
30.540        90
30.560       130
30.580       143
30.600       170
30.620       160
30.640       183
30.660       247
30.680       200
30.700       263
30.720       320
30.740       357
30.760       510
30.780       693
30.800       823
30.820      1090
30.840      1393
30.860      1793
30.880      2339
30.900      3095
30.920      3965
30.940      5098
30.960      6674
30.980      8180
31.000      9253
31.020      9293
31.040      8823
31.060      7527
31.080      6174
31.100      4741
31.120      3435
31.140      2406
31.160      1363
31.180       813
31.200       506
31.220       400
31.240       340
31.260       223
31.280       173
31.300       210
31.320       190
31.340       150
31.360       110
31.380       117
31.400        73
31.420       120
31.440       110
31.460        87
31.480        93
31.500        97
31.520        77
31.540        77
31.560        93
31.580        90
31.600        97
31.620        77
31.640        73
31.660        67
31.680        43
31.700        80
31.720        67
31.740        77
31.760        90
31.780        50
31.800        97
31.820        67
31.840        57
31.860        90
31.880       100
31.900        80
31.920        67
31.940        90
31.960        80
31.980        93
32.000       100
32.020        53
32.040       107
32.060        83
32.080        53
32.100        57
32.120        73
32.140        60
32.160        57
32.180        47
32.200        43
32.220        70
32.240        63
32.260        43
32.280        53
32.300        40
32.320        77
32.340        57
32.360        67
32.380        80
32.400        87
32.420        67
32.440        47
32.460        40
32.480        57
32.500        57
32.520        43
32.540        37
32.560        53
32.580        73
32.600        87
32.620        23
32.640        93
32.660        60
32.680        63
32.700        47
32.720        80
32.740        53
32.760        57
32.780        47
32.800        63
32.820        70
32.840        20
32.860        67
32.880        47
32.900        47
32.920        50
32.940        40
32.960        57
32.980        67
33.000        40
33.020        70
33.040        27
33.060        63
33.080        53
33.100        40
33.120        50
33.140        50
33.160        67
33.180        23
33.200        53
33.220        63
33.240        47
33.260        37
33.280        57
33.300        37
33.320        37
33.340        57
33.360        43
33.380        47
33.400        33
33.420        57
33.440        67
33.460        67
33.480        50
33.500        83
33.520        57
33.540        50
33.560        30
33.580        33
33.600        60
33.620        47
33.640        60
33.660        30
33.680        63
33.700        40
33.720        30
33.740        43
33.760        60
33.780        37
33.800        60
33.820        20
33.840        67
33.860        30
33.880        23
33.900        30
33.920        50
33.940        43
33.960        57
33.980        73
34.000        73
34.020        40
34.040        70
34.060        37
34.080        40
34.100        37
34.120        67
34.140        37
34.160        70
34.180        57
34.200        17
34.220        50
34.240        40
34.260        30
34.280        50
34.300        57
34.320        37
34.340        53
34.360        40
34.380        40
34.400        43
34.420        47
34.440        40
34.460        37
34.480        33
34.500        40
34.520        30
34.540        40
34.560        33
34.580        33
34.600        40
34.620        37
34.640        43
34.660        50
34.680        43
34.700        43
34.720        47
34.740        53
34.760        53
34.780        53
34.800        43
34.820        47
34.840        27
34.860        30
34.880        33
34.900        50
34.920        27
34.940        23
34.960        47
34.980        57
35.000        33
35.020        50
35.040        50
35.060        47
35.080        40
35.100        40
35.120        50
35.140       103
35.160        50
35.180       133
35.200        97
35.220       113
35.240       100
35.260        67
35.280        87
35.300        67
35.320        67
35.340        40
35.360        60
35.380        33
35.400        27
35.420        20
35.440        50
35.460        33
35.480        30
35.500        33
35.520        37
35.540        43
35.560        27
35.580        10
35.600        40
35.620        27
35.640        30
35.660        33
35.680        33
35.700        40
35.720        27
35.740        33
35.760        43
35.780        57
35.800        23
35.820        33
35.840        20
35.860        37
35.880        30
35.900        50
35.920        33
35.940        37
35.960        33
35.980        27
36.000        70
36.020        53
36.040        57
36.060        37
36.080        23
36.100        43
36.120        30
36.140        57
36.160        20
36.180        43
36.200        40
36.220        37
36.240        43
36.260        33
36.280        23
36.300        23
36.320        40
36.340        37
36.360        40
36.380        37
36.400        47
36.420        30
36.440        33
36.460        33
36.480        37
36.500        30
36.520        47
36.540        43
36.560        43
36.580        33
36.600        23
36.620        40
36.640        27
36.660        43
36.680        30
36.700        30
36.720        33
36.740        23
36.760        37
36.780        27
36.800        20
36.820        33
36.840        43
36.860        50
36.880        33
36.900        37
36.920        27
36.940        23
36.960        33
36.980        30
37.000        30
37.020        23
37.040        13
37.060        17
37.080        30
37.100        27
37.120        37
37.140        17
37.160        43
37.180        37
37.200        50
37.220        40
37.240        27
37.260        43
37.280        30
37.300        40
37.320        47
37.340        30
37.360        47
37.380        40
37.400        40
37.420        17
37.440        20
37.460        53
37.480        33
37.500        20
37.520        30
37.540        10
37.560        23
37.580        33
37.600        20
37.620        33
37.640        30
37.660        20
37.680        37
37.700        33
37.720        23
37.740        30
37.760        50
37.780        27
37.800        37
37.820        23
37.840        23
37.860        27
37.880        33
37.900        30
37.920        37
37.940        47
37.960        53
37.980        13
38.000        37
38.020        43
38.040        33
38.060        33
38.080        37
38.100        37
38.120        33
38.140        37
38.160        37
38.180        53
38.200        57
38.220        30
38.240        37
38.260        23
38.280        57
38.300        53
38.320        40
38.340        33
38.360        40
38.380        53
38.400         3
38.420        43
38.440        23
38.460        27
38.480        33
38.500        30
38.520        27
38.540        27
38.560        27
38.580        40
38.600        13
38.620        27
38.640        20
38.660        23
38.680        37
38.700        13
38.720        10
38.740        20
38.760        30
38.780        37
38.800        10
38.820        17
38.840        40
38.860        20
38.880        23
38.900        27
38.920        30
38.940        23
38.960        40
38.980        30
39.000        57
39.020        10
39.040        37
39.060        23
39.080        47
39.100        10
39.120        27
39.140        23
39.160        27
39.180        27
39.200        13
39.220        10
39.240        27
39.260        33
39.280        33
39.300        37
39.320        23
39.340        33
39.360        13
39.380        43
39.400        17
39.420        27
39.440        27
39.460        37
39.480        13
39.500        33
39.520        10
39.540        17
39.560        13
39.580        20
39.600        23
39.620        27
39.640        20
39.660        20
39.680        33
39.700        27
39.720        27
39.740        13
39.760        33
39.780        20
39.800        23
39.820        37
39.840         7
39.860         7
39.880        37
39.900        27
39.920        37
39.940        37
39.960        37
39.980        43
40.000        17
40.020        20
40.040        20
40.060        20
40.080        20
40.100         7
40.120        30
40.140        27
40.160        20
40.180        17
40.200        20
40.220        23
40.240        13
40.260        17
40.280        20
40.300        17
40.320        27
40.340        13
40.360        33
40.380        30
40.400        30
40.420        27
40.440        30
40.460        30
40.480        20
40.500        27
40.520        33
40.540        20
40.560         7
40.580        17
40.600        30
40.620        17
40.640        20
40.660        13
40.680        30
40.700        33
40.720        17
40.740        33
40.760        27
40.780        10
40.800        33
40.820        23
40.840        13
40.860         7
40.880        33
40.900        17
40.920        17
40.940        27
40.960        30
40.980        30
41.000        20
41.020        33
41.040        20
41.060        23
41.080        33
41.100        13
41.120        23
41.140        13
41.160        10
41.180        20
41.200         7
41.220        10
41.240        17
41.260        37
41.280        53
41.300        27
41.320        27
41.340        30
41.360        37
41.380        23
41.400        20
41.420        13
41.440        23
41.460        33
41.480        30
41.500        13
41.520        13
41.540        20
41.560        37
41.580        27
41.600        27
41.620        13
41.640        33
41.660        37
41.680        47
41.700        47
41.720        40
41.740        53
41.760        63
41.780        27
41.800        30
41.820        17
41.840        33
41.860        30
41.880         3
41.900         7
41.920        27
41.940        17
41.960        10
41.980        10
42.000        20
42.020        20
42.040        37
42.060        10
42.080        30
42.100        17
42.120        20
42.140        17
42.160        13
42.180         7
42.200        23
42.220        20
42.240        37
42.260        27
42.280        27
42.300        13
42.320        13
42.340        13
42.360        17
42.380        13
42.400        20
42.420        20
42.440        20
42.460        20
42.480        27
42.500        13
42.520        20
42.540        37
42.560        10
42.580        23
42.600        20
42.620        13
42.640        30
42.660        33
42.680        17
42.700        10
42.720        27
42.740        27
42.760        13
42.780        17
42.800         7
42.820        40
42.840        33
42.860        10
42.880        20
42.900        27
42.920        27
42.940        13
42.960        17
42.980        17
43.000        20
43.020        40
43.040        17
43.060        23
43.080        17
43.100        10
43.120        23
43.140        13
43.160        13
43.180        17
43.200        30
43.220        10
43.240        10
43.260        17
43.280        27
43.300        23
43.320        20
43.340        13
43.360        37
43.380        30
43.400        67
43.420        50
43.440        67
43.460        60
43.480        17
43.500        43
43.520        30
43.540        47
43.560        23
43.580        23
43.600        50
43.620        23
43.640        20
43.660        23
43.680        17
43.700        13
43.720        23
43.740        17
43.760        20
43.780        43
43.800        20
43.820        20
43.840        13
43.860        33
43.880         7
43.900        20
43.920        17
43.940        20
43.960        33
43.980        23
44.000        27
44.020        17
44.040        20
44.060        23
44.080        27
44.100        30
44.120        37
44.140        27
44.160        13
44.180        20
44.200        27
44.220        43
44.240        33
44.260        37
44.280        27
44.300        57
44.320        73
44.340        47
44.360        60
44.380        73
44.400       120
44.420       110
44.440       127
44.460       133
44.480        93
44.500       120
44.520        67
44.540       107
44.560       113
44.580        73
44.600        83
44.620        63
44.640        93
44.660        40
44.680        43
44.700        47
44.720        33
44.740        27
44.760        30
44.780        27
44.800         7
44.820        33
44.840        23
44.860        23
44.880        20
44.900        20
44.920        50
44.940        10
44.960        20
44.980        17
45.000        20
45.020        13
45.040        20
45.060        23
45.080        37
45.100        53
45.120        30
45.140        17
45.160        20
45.180        23
45.200        27
45.220        10
45.240        23
45.260        17
45.280        23
45.300        37
45.320        23
45.340        33
45.360        20
45.380        17
45.400         3
45.420        27
45.440         3
45.460        30
45.480        40
45.500        20
45.520        10
45.540        20
45.560        27
45.580        17
45.600        23
45.620        10
45.640        17
45.660        23
45.680        17
45.700        20
45.720         3
45.740        30
45.760        23
45.780        10
45.800        10
45.820        17
45.840         7
45.860         7
45.880        10
45.900        23
45.920        30
45.940        27
45.960        20
45.980        17
46.000        20
46.020        20
46.040        27
46.060        13
46.080        13
46.100        27
46.120        13
46.140        27
46.160        30
46.180        17
46.200        10
46.220        10
46.240        10
46.260        17
46.280        10
46.300        17
46.320        17
46.340         3
46.360        30
46.380        27
46.400        20
46.420        17
46.440         7
46.460        27
46.480         7
46.500        13
46.520        27
46.540         7
46.560        17
46.580        10
46.600        17
46.620        43
46.640        33
46.660        20
46.680        10
46.700        13
46.720        20
46.740         7
46.760        27
46.780        13
46.800        20
46.820        30
46.840        10
46.860        20
46.880        27
46.900        27
46.920        10
46.940        20
46.960        30
46.980        13
47.000        23
47.020        17
47.040         7
47.060        23
47.080        20
47.100        23
47.120        13
47.140        10
47.160        20
47.180        10
47.200        20
47.220        33
47.240        40
47.260        17
47.280        17
47.300        27
47.320        27
47.340        33
47.360        10
47.380        17
47.400        13
47.420        10
47.440        17
47.460        17
47.480        17
47.500        17
47.520        13
47.540        10
47.560        23
47.580        20
47.600        20
47.620         7
47.640        20
47.660        13
47.680        23
47.700        10
47.720        20
47.740        20
47.760        13
47.780        27
47.800        17
47.820        17
47.840        17
47.860        20
47.880        20
47.900        10
47.920        13
47.940        10
47.960        20
47.980        30
48.000        13
48.020        10
48.040        10
48.060        13
48.080         7
48.100        17
48.120        27
48.140         7
48.160        23
48.180        30
48.200        17
48.220         3
48.240        17
48.260        37
48.280        13
48.300        17
48.320        13
48.340        10
48.360         3
48.380        27
48.400        13
48.420        17
48.440         0
48.460        17
48.480         7
48.500        10
48.520        20
48.540        13
48.560        13
48.580         7
48.600         3
48.620        17
48.640        27
48.660        17
48.680        20
48.700        17
48.720        13
48.740         7
48.760        13
48.780        23
48.800        17
48.820        30
48.840         7
48.860        27
48.880        33
48.900        23
48.920        10
48.940        30
48.960        23
48.980        13
49.000        17
49.020        17
49.040         7
49.060        17
49.080        17
49.100        20
49.120        13
49.140        17
49.160        13
49.180        10
49.200        10
49.220        20
49.240        20
49.260        10
49.280        23
49.300        23
49.320        33
49.340        13
49.360        13
49.380        33
49.400         3
49.420        20
49.440        23
49.460        20
49.480        13
49.500        37
49.520        13
49.540        13
49.560        17
49.580        17
49.600        30
49.620        20
49.640        27
49.660        40
49.680        20
49.700        23
49.720        17
49.740        13
49.760        10
49.780        33
49.800        27
49.820        10
49.840        20
49.860        13
49.880        17
49.900        20
49.920        13
49.940        17
49.960        30
49.980        20
50.000        17
50.020        17
50.040        37
50.060        23
50.080        17
50.100        17
50.120        10
50.140        30
50.160         7
50.180        17
50.200        13
50.220        20
50.240        17
50.260        17
50.280        13
50.300        23
50.320        17
50.340        17
50.360         3
50.380        30
50.400        10
50.420        23
50.440        20
50.460         7
50.480        10
50.500        27
50.520        17
50.540        30
50.560        13
50.580        23
50.600        10
50.620        23
50.640        13
50.660        20
50.680        33
50.700        17
50.720         3
50.740        17
50.760        17
50.780        17
50.800         7
50.820        13
50.840        20
50.860        27
50.880        17
50.900        10
50.920        10
50.940        17
50.960        20
50.980        10
51.000         7
51.020        17
51.040        10
51.060        27
51.080        23
51.100         3
51.120        13
51.140        10
51.160        13
51.180        10
51.200        10
51.220        13
51.240        20
51.260        17
51.280        17
51.300        13
51.320        13
51.340        30
51.360        30
51.380         3
51.400         7
51.420        30
51.440        13
51.460        17
51.480        13
51.500        20
51.520         7
51.540        23
51.560        30
51.580        13
51.600        10
51.620        20
51.640        13
51.660        20
51.680        13
51.700        20
51.720        23
51.740        20
51.760        10
51.780        13
51.800         3
51.820        10
51.840        17
51.860        30
51.880        30
51.900        13
51.920        20
51.940        27
51.960         7
51.980        10
52.000        23
52.020        30
52.040        17
52.060        13
52.080        13
52.100        17
52.120        33
52.140         7
52.160        20
52.180        17
52.200        27
52.220        10
52.240        10
52.260        20
52.280        20
52.300        10
52.320        13
52.340        13
52.360        20
52.380        13
52.400        20
52.420        27
52.440        10
52.460         0
52.480        20
52.500        13
52.520        30
52.540        23
52.560        13
52.580        10
52.600        23
52.620        10
52.640        27
52.660        20
52.680        23
52.700        17
52.720         7
52.740        17
52.760        13
52.780        23
52.800        13
52.820         7
52.840        23
52.860        17
52.880        17
52.900        17
52.920        17
52.940        10
52.960        27
52.980        20
53.000        17
53.020        17
53.040        13
53.060        33
53.080        13
53.100        13
53.120        20
53.140        13
53.160        27
53.180        17
53.200        20
53.220        20
53.240        20
53.260        23
53.280        13
53.300        33
53.320        27
53.340        17
53.360        27
53.380        23
53.400        23
53.420         7
53.440        17
53.460        10
53.480        20
53.500        17
53.520        23
53.540        23
53.560        27
53.580        20
53.600        20
53.620        10
53.640         3
53.660        20
53.680        27
53.700        10
53.720         7
53.740        20
53.760        17
53.780        20
53.800        10
53.820        10
53.840        10
53.860        20
53.880        27
53.900        27
53.920        10
53.940        20
53.960        20
53.980        10
54.000        27
54.020         7
54.040        10
54.060        33
54.080        43
54.100        17
54.120        10
54.140        20
54.160        23
54.180        27
54.200        27
54.220        17
54.240        13
54.260        13
54.280        10
54.300        13
54.320        27
54.340        13
54.360        13
54.380        13
54.400        40
54.420        10
54.440        17
54.460        37
54.480        30
54.500         7
54.520        23
54.540        17
54.560        30
54.580        23
54.600        30
54.620         7
54.640        33
54.660        17
54.680        27
54.700        20
54.720        33
54.740        40
54.760        40
54.780        17
54.800        40
54.820        43
54.840        57
54.860        70
54.880        60
54.900        73
54.920        67
54.940       117
54.960        80
54.980       137
55.000       203
55.020       200
55.040       323
55.060       400
55.080       560
55.100       516
55.120       586
55.140       603
55.160       633
55.180       500
55.200       506
55.220       483
55.240       407
55.260       450
55.280       337
55.300       387
55.320       270
55.340       250
55.360       180
55.380       117
55.400        93
55.420        97
55.440        80
55.460        57
55.480        37
55.500        47
55.520        33
55.540        37
55.560        27
55.580        27
55.600        30
55.620        17
55.640        13
55.660        13
55.680        33
55.700        10
55.720        33
55.740        33
55.760        27
55.780        27
55.800        33
55.820        33
55.840        27
55.860        33
55.880        13
55.900        17
55.920        10
55.940         3
55.960        30
55.980        20
56.000        37
56.020        23
56.040        20
56.060        33
56.080        30
56.100        37
56.120        17
56.140        17
56.160        13
56.180        17
56.200        30
56.220        27
56.240         3
56.260        23
56.280        17
56.300        13
56.320        23
56.340        23
56.360        23
56.380        13
56.400        17
56.420         7
56.440         3
56.460         7
56.480        23
56.500        13
56.520        13
56.540        33
56.560        20
56.580        20
56.600        17
56.620        17
56.640        20
56.660        10
56.680        10
56.700        13
56.720        23
56.740        33
56.760        17
56.780        13
56.800         7
56.820        23
56.840        17
56.860        20
56.880        23
56.900         7
56.920         7
56.940        23
56.960         3
56.980         7
57.000        20
57.020        17
57.040        13
57.060         7
57.080        23
57.100        13
57.120        10
57.140        20
57.160        23
57.180        17
57.200        10
57.220        13
57.240        27
57.260        23
57.280        23
57.300        17
57.320        17
57.340        27
57.360        30
57.380        10
57.400        20
57.420        13
57.440         0
57.460        13
57.480        30
57.500        17
57.520        50
57.540        60
57.560        67
57.580        53
57.600        70
57.620        20
57.640        37
57.660        37
57.680        37
57.700        67
57.720        30
57.740        53
57.760        30
57.780        20
57.800        23
57.820        30
57.840        17
57.860        27
57.880        23
57.900        27
57.920        13
57.940        17
57.960        13
57.980        13
58.000        10
58.020        27
58.040        13
58.060        23
58.080        10
58.100        23
58.120         3
58.140        17
58.160        10
58.180        13
58.200        17
58.220        20
58.240        30
58.260        17
58.280         7
58.300        13
58.320         3
58.340        20
58.360        23
58.380         3
58.400        27
58.420        13
58.440        17
58.460        10
58.480         7
58.500        27
58.520        27
58.540        17
58.560        10
58.580        10
58.600         7
58.620        27
58.640        20
58.660        17
58.680        13
58.700        13
58.720        10
58.740        13
58.760        17
58.780         7
58.800        13
58.820        10
58.840        17
58.860         7
58.880        17
58.900         7
58.920        20
58.940        10
58.960         7
58.980        17
59.000        17
59.020        17
59.040        23
59.060        13
59.080        27
59.100        10
59.120         3
59.140         3
59.160        17
59.180        17
59.200        13
59.220        20
59.240        10
59.260        17
59.280         3
59.300        17
59.320        17
59.340        23
59.360        13
59.380         7
59.400        10
59.420        20
59.440        13
59.460        27
59.480         7
59.500        10
59.520        30
59.540        17
59.560        23
59.580        20
59.600        13
59.620        17
59.640        13
59.660        23
59.680        10
59.700        23
59.720        20
59.740        20
59.760        13
59.780        23
59.800        13
59.820        10
59.840        20
59.860        10
59.880         7
59.900        23
59.920        13
59.940        17
59.960         3
59.980         7
60.000        17
