20.000        70
20.020        47
20.040        70
20.060        63
20.080        80
20.100        43
20.120        47
20.140        63
20.160        77
20.180        83
20.200        77
20.220        57
20.240        57
20.260        50
20.280        60
20.300        40
20.320        67
20.340        67
20.360        60
20.380        57
20.400        50
20.420        80
20.440        53
20.460        40
20.480        47
20.500        47
20.520        57
20.540        73
20.560        37
20.580        67
20.600        67
20.620        63
20.640        57
20.660        50
20.680        67
20.700        53
20.720        70
20.740        77
20.760        67
20.780        70
20.800        57
20.820        43
20.840        77
20.860        83
20.880        67
20.900        37
20.920        70
20.940        63
20.960        47
20.980        63
21.000        57
21.020        67
21.040        47
21.060        63
21.080        53
21.100        60
21.120        57
21.140        50
21.160        60
21.180        47
21.200        53
21.220        60
21.240        47
21.260        43
21.280        50
21.300        73
21.320        53
21.340        50
21.360        70
21.380        80
21.400        73
21.420        60
21.440        63
21.460        63
21.480        33
21.500        43
21.520        83
21.540        73
21.560        67
21.580        70
21.600        53
21.620        63
21.640        50
21.660        50
21.680        73
21.700        60
21.720        70
21.740        50
21.760        67
21.780        63
21.800        73
21.820        47
21.840        83
21.860        63
21.880        43
21.900        77
21.920        37
21.940        60
21.960        33
21.980        50
22.000        93
22.020        43
22.040        67
22.060        57
22.080        60
22.100        57
22.120        70
22.140        53
22.160        63
22.180        40
22.200        60
22.220        50
22.240        33
22.260        60
22.280        30
22.300        57
22.320        67
22.340        47
22.360        47
22.380        40
22.400        80
22.420        50
22.440        60
22.460        50
22.480        47
22.500        63
22.520        63
22.540        53
22.560        63
22.580        67
22.600        33
22.620        53
22.640        43
22.660        63
22.680        50
22.700        83
22.720        70
22.740        47
22.760        70
22.780        30
22.800        53
22.820        50
22.840        60
22.860        27
22.880        27
22.900        60
22.920        70
22.940        43
22.960        57
22.980        67
23.000        50
23.020        53
23.040        60
23.060        70
23.080        43
23.100        50
23.120        40
23.140        27
23.160        30
23.180        67
23.200        50
23.220        37
23.240        60
23.260        53
23.280        60
23.300        47
23.320        73
23.340        53
23.360        50
23.380        67
23.400        33
23.420        27
23.440        30
23.460        53
23.480        50
23.500        50
23.520        63
23.540        47
23.560        37
23.580        43
23.600        77
23.620        53
23.640        57
23.660        47
23.680        43
23.700        33
23.720        57
23.740        53
23.760        33
23.780        47
23.800        43
23.820        53
23.840        60
23.860        67
23.880        50
23.900        57
23.920        40
23.940        50
23.960        60
23.980        83
24.000        47
24.020        43
24.040        50
24.060        43
24.080        67
24.100        37
24.120        40
24.140        27
24.160        37
24.180        37
24.200        47
24.220        30
24.240        37
24.260        47
24.280        77
24.300        57
24.320        57
24.340        20
24.360        50
24.380        40
24.400        70
24.420        33
24.440        40
24.460        37
24.480        47
24.500        50
24.520        53
24.540        40
24.560        37
24.580        50
24.600        60
24.620        47
24.640        50
24.660        53
24.680        63
24.700        27
24.720        93
24.740        20
24.760        47
24.780        33
24.800        47
24.820        33
24.840        63
24.860        60
24.880        43
24.900        30
24.920        27
24.940        70
24.960        63
24.980        47
25.000        67
25.020        40
25.040        50
25.060        50
25.080        47
25.100        60
25.120        50
25.140        57
25.160        40
25.180        40
25.200        53
25.220        30
25.240        53
25.260        53
25.280        37
25.300        40
25.320        67
25.340        40
25.360        60
25.380        43
25.400        47
25.420        33
25.440        37
25.460        27
25.480        63
25.500        60
25.520        47
25.540        50
25.560        70
25.580        33
25.600        57
25.620        63
25.640        57
25.660        53
25.680        50
25.700        57
25.720        47
25.740        47
25.760        60
25.780        53
25.800        30
25.820        63
25.840        47
25.860        43
25.880        43
25.900        57
25.920        33
25.940        37
25.960        37
25.980        47
26.000        50
26.020        77
26.040        43
26.060        53
26.080        37
26.100        33
26.120        60
26.140        43
26.160        57
26.180        47
26.200        70
26.220        40
26.240        53
26.260        67
26.280        40
26.300        57
26.320        33
26.340        50
26.360        40
26.380        57
26.400        47
26.420        67
26.440        73
26.460        37
26.480        47
26.500        50
26.520        47
26.540        57
26.560        47
26.580        40
26.600        43
26.620        43
26.640        60
26.660        37
26.680        63
26.700        30
26.720        33
26.740        37
26.760        43
26.780        43
26.800        27
26.820        37
26.840        30
26.860        40
26.880        57
26.900        73
26.920        37
26.940        50
26.960        50
26.980        47
27.000        47
27.020        77
27.040        50
27.060        47
27.080        63
27.100        43
27.120        27
27.140        40
27.160        47
27.180        47
27.200        60
27.220        37
27.240        17
27.260        60
27.280        57
27.300        77
27.320        50
27.340        47
27.360        57
27.380        40
27.400        10
27.420        53
27.440        47
27.460        63
27.480        70
27.500        57
27.520        53
27.540        63
27.560        60
27.580        37
27.600        47
27.620        43
27.640        63
27.660        43
27.680        50
27.700        57
27.720        57
27.740        47
27.760        50
27.780        50
27.800        43
27.820        43
27.840        60
27.860        47
27.880        33
27.900        60
27.920        50
27.940        53
27.960        43
27.980        57
28.000        47
28.020        27
28.040        60
28.060        47
28.080        63
28.100        33
28.120        57
28.140        60
28.160        40
28.180        43
28.200        47
28.220        53
28.240        40
28.260        63
28.280        47
28.300        53
28.320        53
28.340        37
28.360        60
28.380        40
28.400        27
28.420        40
28.440        40
28.460        37
28.480        33
28.500        70
28.520        33
28.540        70
28.560        43
28.580        20
28.600        30
28.620        40
28.640        57
28.660        27
28.680        47
28.700        67
28.720        53
28.740        33
28.760        53
28.780        33
28.800        43
28.820        37
28.840        37
28.860        47
28.880        70
28.900        43
28.920        53
28.940        47
28.960        17
28.980        67
29.000        60
29.020        50
29.040        43
29.060        30
29.080        47
29.100        50
29.120        33
29.140        43
29.160        57
29.180        60
29.200        47
29.220        33
29.240        37
29.260        83
29.280        57
29.300        43
29.320        43
29.340        47
29.360        43
29.380        50
29.400        63
29.420        30
29.440        40
29.460        37
29.480        47
29.500        50
29.520        57
29.540        43
29.560        50
29.580        43
29.600        70
29.620        47
29.640        67
29.660        57
29.680        73
29.700        63
29.720        37
29.740        60
29.760        47
29.780        63
29.800        47
29.820        80
29.840        53
29.860        73
29.880        43
29.900        30
29.920        43
29.940        57
29.960        33
29.980        33
30.000        57
30.020        47
30.040        40
30.060        50
30.080        47
30.100        60
30.120        57
30.140        50
30.160        30
30.180        47
30.200        60
30.220        50
30.240        67
30.260        60
30.280        50
30.300        37
30.320        83
30.340        47
30.360        63
30.380        57
30.400        57
30.420        63
30.440        87
30.460       103
30.480        60
30.500        67
30.520        63
30.540        87
30.560        90
30.580        83
30.600        97
30.620       113
30.640        97
30.660        93
30.680        87
30.700       120
30.720        87
30.740        80
30.760        87
30.780        80
30.800       100
30.820        43
30.840        70
30.860        47
30.880        53
30.900        40
30.920        47
30.940        50
30.960        63
30.980        43
31.000        63
31.020        37
31.040        40
31.060        53
31.080        57
31.100        67
31.120        33
31.140        50
31.160        47
31.180        40
31.200        43
31.220        33
31.240        43
31.260        40
31.280        60
31.300        30
31.320        47
31.340        37
31.360        50
31.380        57
31.400        43
31.420        47
31.440        33
31.460        77
31.480        67
31.500        33
31.520        27
31.540        63
31.560        57
31.580        63
31.600        53
31.620        23
31.640        23
31.660        43
31.680        33
31.700        53
31.720        33
31.740        33
31.760        43
31.780        30
31.800        60
31.820        37
31.840        50
31.860        20
31.880        43
31.900        37
31.920        93
31.940        40
31.960        37
31.980        50
32.000        37
32.020        40
32.040        27
32.060        27
32.080        53
32.100        13
32.120        50
32.140        40
32.160        30
32.180        43
32.200        30
32.220        37
32.240        30
32.260        43
32.280        57
32.300        57
32.320        33
32.340        33
32.360        50
32.380        33
32.400        33
32.420        40
32.440        47
32.460        43
32.480        37
32.500        33
32.520        53
32.540        63
32.560        47
32.580        27
32.600        37
32.620        63
32.640        27
32.660        40
32.680        60
32.700        40
32.720        53
32.740        30
32.760        53
32.780        33
32.800        50
32.820        43
32.840        57
32.860        40
32.880        47
32.900        40
32.920        67
32.940        33
32.960        43
32.980        43
33.000        57
33.020        40
33.040        40
33.060        47
33.080        23
33.100        43
33.120        27
33.140        43
33.160        23
33.180        47
33.200        30
33.220        17
33.240        27
33.260        37
33.280        43
33.300        33
33.320        33
33.340        30
33.360        40
33.380        17
33.400        37
33.420        30
33.440        43
33.460        40
33.480        20
33.500        80
33.520        13
33.540        33
33.560        40
33.580        33
33.600        57
33.620        33
33.640        53
33.660        50
33.680        50
33.700        17
33.720        33
33.740        33
33.760        27
33.780        30
33.800        37
33.820        33
33.840        20
33.860        27
33.880        43
33.900        33
33.920        43
33.940        57
33.960        47
33.980        53
34.000        50
34.020        67
34.040        50
34.060        87
34.080        43
34.100        77
34.120        50
34.140        73
34.160        67
34.180        43
34.200        30
34.220        47
34.240        33
34.260        47
34.280        37
34.300        27
34.320        27
34.340        40
34.360        40
34.380        33
34.400        40
34.420        37
34.440        33
34.460        37
34.480        47
34.500        23
34.520        23
34.540        27
34.560        27
34.580        53
34.600        27
34.620        57
34.640        50
34.660        30
34.680        40
34.700        20
34.720        37
34.740        17
34.760        27
34.780        23
34.800        53
34.820        43
34.840        13
34.860        43
34.880        27
34.900        23
34.920        53
34.940        40
34.960        53
34.980        30
35.000        37
35.020        23
35.040        50
35.060        30
35.080        40
35.100        40
35.120        53
35.140        47
35.160        73
35.180        53
35.200        47
35.220        60
35.240        57
35.260        23
35.280        43
35.300        50
35.320        20
35.340        20
35.360        27
35.380        33
35.400        40
35.420        17
35.440        47
35.460        20
35.480        33
35.500        27
35.520        27
35.540        27
35.560        27
35.580        47
35.600        23
35.620        30
35.640        47
35.660        47
35.680        27
35.700        60
35.720        30
35.740        20
35.760        43
35.780        27
35.800        23
35.820        50
35.840        17
35.860        33
35.880        40
35.900        30
35.920        37
35.940        20
35.960        40
35.980        27
36.000        37
36.020        17
36.040        47
36.060        33
36.080        30
36.100        30
36.120        23
36.140        23
36.160        23
36.180        40
36.200        33
36.220        43
36.240        40
36.260        13
36.280        10
36.300        50
36.320        40
36.340        43
36.360        37
36.380        23
36.400        33
36.420        33
36.440        33
36.460        50
36.480        33
36.500        47
36.520        40
36.540        17
36.560        33
36.580        33
36.600        53
36.620        27
36.640        50
36.660        60
36.680        27
36.700        43
36.720        40
36.740        57
36.760        40
36.780        47
36.800        50
36.820        30
36.840        30
36.860        57
36.880        60
36.900        50
36.920        53
36.940        33
36.960        50
36.980        67
37.000        63
37.020        23
37.040        27
37.060        70
37.080        47
37.100        43
37.120        47
37.140        50
37.160        47
37.180        70
37.200        67
37.220        47
37.240        67
37.260        97
37.280        77
37.300        67
37.320       100
37.340        93
37.360        77
37.380       133
37.400       117
37.420       120
37.440       140
37.460       157
37.480       150
37.500       220
37.520       267
37.540       247
37.560       310
37.580       323
37.600       430
37.620       426
37.640       483
37.660       546
37.680       766
37.700       873
37.720      1080
37.740      1306
37.760      1696
37.780      1909
37.800      2399
37.820      2722
37.840      3045
37.860      2925
37.880      2706
37.900      2462
37.920      2229
37.940      2006
37.960      1749
37.980      1423
38.000      1033
38.020       823
38.040       600
38.060       500
38.080       493
38.100       370
38.120       333
38.140       327
38.160       313
38.180       273
38.200       287
38.220       237
38.240       240
38.260       197
38.280       177
38.300       143
38.320       153
38.340       193
38.360       160
38.380       153
38.400       147
38.420       143
38.440       143
38.460       137
38.480       153
38.500       120
38.520       170
38.540       107
38.560        90
38.580        90
38.600        57
38.620       107
38.640        73
38.660       110
38.680        90
38.700       103
38.720        57
38.740        57
38.760       103
38.780        87
38.800        90
38.820        73
38.840       107
38.860        57
38.880        43
38.900        60
38.920        77
38.940        50
38.960        97
38.980        63
39.000        40
39.020        53
39.040        57
39.060        43
39.080        53
39.100        73
39.120        47
39.140        50
39.160        70
39.180        77
39.200        60
39.220        37
39.240        53
39.260        40
39.280        47
39.300        57
39.320        70
39.340        43
39.360        30
39.380        43
39.400        43
39.420        57
39.440        60
39.460        27
39.480        63
39.500        30
39.520        70
39.540        37
39.560        57
39.580        50
39.600        37
39.620        47
39.640        47
39.660        53
39.680        63
39.700        50
39.720        47
39.740        57
39.760        27
39.780        67
39.800        57
39.820        43
39.840        57
39.860        57
39.880        53
39.900        53
39.920        47
39.940        40
39.960        50
39.980        30
40.000        37
40.020        50
40.040        27
40.060        30
40.080        43
40.100        40
40.120        27
40.140        33
40.160        60
40.180        53
40.200        37
40.220        33
40.240        37
40.260        30
40.280        77
40.300        53
40.320        23
40.340        23
40.360        30
40.380        33
40.400        37
40.420        17
40.440        50
40.460        43
40.480        40
40.500        30
40.520        60
40.540        63
40.560         7
40.580        27
40.600        37
40.620        47
40.640        40
40.660        47
40.680        60
40.700        43
40.720        40
40.740        50
40.760        57
40.780        30
40.800        50
40.820        53
40.840        50
40.860        27
40.880        30
40.900        40
40.920        30
40.940        47
40.960        40
40.980        40
41.000         7
41.020        37
41.040        43
41.060        27
41.080        37
41.100        30
41.120        23
41.140        20
41.160        37
41.180        17
41.200        17
41.220        67
41.240        37
41.260        17
41.280        33
41.300        13
41.320        37
41.340        30
41.360        37
41.380        37
41.400        40
41.420        40
41.440        60
41.460        33
41.480        33
41.500        33
41.520        53
41.540        30
41.560        43
41.580        37
41.600        23
41.620        60
41.640        53
41.660        40
41.680        27
41.700        37
41.720        23
41.740        50
41.760        20
41.780        47
41.800        33
41.820        27
41.840        33
41.860        40
41.880        23
41.900        23
41.920        33
41.940        40
41.960        20
41.980        30
42.000        27
42.020        33
42.040        33
42.060        37
42.080        33
42.100        30
42.120        30
42.140        40
42.160        20
42.180        37
42.200        47
42.220        43
42.240        50
42.260        43
42.280        13
42.300        23
42.320        30
42.340        33
42.360        33
42.380        17
42.400        50
42.420        17
42.440        27
42.460        37
42.480        27
42.500        20
42.520        27
42.540        37
42.560        40
42.580        33
42.600        43
42.620        33
42.640        47
42.660        13
42.680        37
42.700        33
42.720        30
42.740        27
42.760        17
42.780        50
42.800        40
42.820        40
42.840        33
42.860        27
42.880        50
42.900        60
42.920        20
42.940        30
42.960        27
42.980        47
43.000        27
43.020        43
43.040        23
43.060        17
43.080        53
43.100        37
43.120        30
43.140        33
43.160        33
43.180        30
43.200        37
43.220        37
43.240        23
43.260        40
43.280        47
43.300        43
43.320        17
43.340        20
43.360        33
43.380        43
43.400        23
43.420        50
43.440        30
43.460        50
43.480        20
43.500        27
43.520        33
43.540        33
43.560        27
43.580        37
43.600        53
43.620        30
43.640        33
43.660        20
43.680        23
43.700        43
43.720        30
43.740        30
43.760        47
43.780        20
43.800        50
43.820        23
43.840        33
43.860        37
43.880        27
43.900        30
43.920        43
43.940        43
43.960        53
43.980        33
44.000        83
44.020        43
44.040        47
44.060        37
44.080        47
44.100        40
44.120        40
44.140        47
44.160        43
44.180        67
44.200        33
44.220        30
44.240        60
44.260        47
44.280        20
44.300        33
44.320        33
44.340        30
44.360        43
44.380        37
44.400        17
44.420        47
44.440        10
44.460        37
44.480        43
44.500        17
44.520        17
44.540        17
44.560        27
44.580        17
44.600        13
44.620        27
44.640        23
44.660        37
44.680        30
44.700        20
44.720        17
44.740        33
44.760        33
44.780        33
44.800        37
44.820        17
44.840        30
44.860        23
44.880        40
44.900        33
44.920        17
44.940        23
44.960        20
44.980        13
45.000        23
45.020        20
45.040        43
45.060        43
45.080        30
45.100        20
45.120        30
45.140        20
45.160        27
45.180        33
45.200        17
45.220        33
45.240        27
45.260        43
45.280        30
45.300        13
45.320        23
45.340        23
45.360        27
45.380        17
45.400        27
45.420        47
45.440        17
45.460        30
45.480        33
45.500        47
45.520        27
45.540        23
45.560        27
45.580        33
45.600        27
45.620        33
45.640        27
45.660        37
45.680        37
45.700        20
45.720        23
45.740        27
45.760        20
45.780        30
45.800        33
45.820        13
45.840        27
45.860        27
45.880        13
45.900        27
45.920        13
45.940        27
45.960        43
45.980        37
46.000        23
46.020        33
46.040        23
46.060        47
46.080        40
46.100         7
46.120        20
46.140        23
46.160        43
46.180        20
46.200        17
46.220        37
46.240        30
46.260        13
46.280        13
46.300        27
46.320        30
46.340        33
46.360        33
46.380        33
46.400        27
46.420        27
46.440        23
46.460        33
46.480        27
46.500        37
46.520        30
46.540        40
46.560        17
46.580        30
46.600        40
46.620        33
46.640        13
46.660        30
46.680        27
46.700        10
46.720        23
46.740        33
46.760        13
46.780        20
46.800        30
46.820        23
46.840        20
46.860        23
46.880        30
46.900        30
46.920        47
46.940        30
46.960        30
46.980        30
47.000        20
47.020        30
47.040        13
47.060        23
47.080        20
47.100        30
47.120        17
47.140        20
47.160        23
47.180        17
47.200        30
47.220        33
47.240        43
47.260        37
47.280        50
47.300        43
47.320        13
47.340        37
47.360        47
47.380        23
47.400        20
47.420        30
47.440        20
47.460        17
47.480        30
47.500        17
47.520        20
47.540        30
47.560        33
47.580        27
47.600        27
47.620        27
47.640        30
47.660        23
47.680        23
47.700        23
47.720        23
47.740        17
47.760        17
47.780        17
47.800        13
47.820        27
47.840        30
47.860        20
47.880        30
47.900        23
47.920        20
47.940        33
47.960        20
47.980        20
48.000        33
48.020        43
48.040        27
48.060        37
48.080        20
48.100        23
48.120        40
48.140        27
48.160        20
48.180        57
48.200        23
48.220        20
48.240        37
48.260        20
48.280        10
48.300        20
48.320        37
48.340        13
48.360        37
48.380         7
48.400        23
48.420        17
48.440        20
48.460        30
48.480        37
48.500        23
48.520        13
48.540        17
48.560        37
48.580        17
48.600        17
48.620        17
48.640        13
48.660         3
48.680        27
48.700        10
48.720        23
48.740        27
48.760        17
48.780        10
48.800        17
48.820        33
48.840        27
48.860        37
48.880        20
48.900         7
48.920        27
48.940        30
48.960        27
48.980        17
49.000        10
49.020        33
49.040        30
49.060        20
49.080        37
49.100        27
49.120        23
49.140        33
49.160        20
49.180        30
49.200         7
49.220        23
49.240        37
49.260        10
49.280        10
49.300        20
49.320        37
49.340        20
49.360        17
49.380        40
49.400        37
49.420        23
49.440        40
49.460        17
49.480        33
49.500        57
49.520        33
49.540        23
49.560        27
49.580        23
49.600        17
49.620        17
49.640        20
49.660        33
49.680        33
49.700        47
49.720        17
49.740        20
49.760        17
49.780        13
49.800        17
49.820        23
49.840        17
49.860        23
49.880        23
49.900        17
49.920        20
49.940        13
49.960        33
49.980         7
50.000        17
50.020        27
50.040        20
50.060        23
50.080        10
50.100        27
50.120        20
50.140        17
50.160         7
50.180        17
50.200        23
50.220        40
50.240        17
50.260        13
50.280        20
50.300        13
50.320        30
50.340        27
50.360        33
50.380        13
50.400        17
50.420        53
50.440        23
50.460        10
50.480        20
50.500        27
50.520        27
50.540        13
50.560        17
50.580        30
50.600        10
50.620        10
50.640        23
50.660        37
50.680        13
50.700        23
50.720        17
50.740        27
50.760        30
50.780        30
50.800        13
50.820        17
50.840        10
50.860         7
50.880        27
50.900        27
50.920        10
50.940         3
50.960         3
50.980        33
51.000        37
51.020        23
51.040        47
51.060        23
51.080        17
51.100        10
51.120        20
51.140        13
51.160        13
51.180        17
51.200        33
51.220        37
51.240        27
51.260        13
51.280        10
51.300        13
51.320        23
51.340        20
51.360        20
51.380        13
51.400         7
51.420        17
51.440        17
51.460        10
51.480        20
51.500        37
51.520        10
51.540        27
51.560         7
51.580        13
51.600        20
51.620        17
51.640        23
51.660        33
51.680        13
51.700        20
51.720         7
51.740        17
51.760        23
51.780        20
51.800        23
51.820        27
51.840        13
51.860        20
51.880        33
51.900        37
51.920        23
51.940        27
51.960        20
51.980        27
52.000        13
52.020        33
52.040        27
52.060        33
52.080        17
52.100        13
52.120        30
52.140        20
52.160        17
52.180        17
52.200        30
52.220        13
52.240        23
52.260         3
52.280        37
52.300        47
52.320        20
52.340        17
52.360        17
52.380        13
52.400        10
52.420        23
52.440        20
52.460        47
52.480        23
52.500        27
52.520        50
52.540        23
52.560        50
52.580        63
52.600        43
52.620        23
52.640        27
52.660        43
52.680        47
52.700        53
52.720        30
52.740        27
52.760        17
52.780        27
52.800        43
52.820        27
52.840        17
52.860         0
52.880        13
52.900        13
52.920        20
52.940        27
52.960        10
52.980        30
53.000        43
53.020        13
53.040        33
53.060        37
53.080         7
53.100        10
53.120        10
53.140        10
53.160        17
53.180        10
53.200        23
53.220        27
53.240        27
53.260        17
53.280        23
53.300         7
53.320        13
53.340        27
53.360        33
53.380        43
53.400        33
53.420        13
53.440        13
53.460        17
53.480        33
53.500        10
53.520        27
53.540        23
53.560        17
53.580        13
53.600        23
53.620        13
53.640        27
53.660        33
53.680        17
53.700        30
53.720        37
53.740        13
53.760        17
53.780        20
53.800        17
53.820        30
53.840        17
53.860        23
53.880        20
53.900        17
53.920         7
53.940        20
53.960        23
53.980        27
54.000        23
54.020        30
54.040        23
54.060        13
54.080        17
54.100        27
54.120        20
54.140        20
54.160        23
54.180        30
54.200        20
54.220        20
54.240        17
54.260        47
54.280        23
54.300        13
54.320        17
54.340        10
54.360        37
54.380        27
54.400        23
54.420        27
54.440        27
54.460        20
54.480        20
54.500        43
54.520        27
54.540        30
54.560        30
54.580        33
54.600        47
54.620        47
54.640        30
54.660        33
54.680        43
54.700        50
54.720        23
54.740        37
54.760        33
54.780        40
54.800        27
54.820        20
54.840        27
54.860        37
54.880        27
54.900        27
54.920        33
54.940        33
54.960        20
54.980        30
55.000        13
55.020        30
55.040         3
55.060        13
55.080        13
55.100        20
55.120        20
55.140         7
55.160        33
55.180        30
55.200        17
55.220        17
55.240        23
55.260        20
55.280        20
55.300        20
55.320        27
55.340        20
55.360        17
55.380        13
55.400         3
55.420        17
55.440        30
55.460        23
55.480        17
55.500        10
55.520        17
55.540        20
55.560        20
55.580        40
55.600        20
55.620        37
55.640        13
55.660         7
55.680        23
55.700        17
55.720        17
55.740        13
55.760        27
55.780        17
55.800        10
55.820        13
55.840        13
55.860        20
55.880        17
55.900        27
55.920        27
55.940        23
55.960        17
55.980        30
56.000        23
56.020        20
56.040        20
56.060        13
56.080        23
56.100        20
56.120        23
56.140         7
56.160         7
56.180        23
56.200         7
56.220        20
56.240        10
56.260        13
56.280        10
56.300        13
56.320        23
56.340        13
56.360        23
56.380        10
56.400        23
56.420        20
56.440         7
56.460        17
56.480        10
56.500        13
56.520        20
56.540         7
56.560         7
56.580        20
56.600        23
56.620        23
56.640        13
56.660        30
56.680        20
56.700        13
56.720        10
56.740        20
56.760        20
56.780        27
56.800        13
56.820        20
56.840         3
56.860        23
56.880        13
56.900        23
56.920        13
56.940        13
56.960        13
56.980         3
57.000        27
57.020        17
57.040        13
57.060         7
57.080        20
57.100        17
57.120        17
57.140        17
57.160         3
57.180        27
57.200         7
57.220        20
57.240        13
57.260        13
57.280        20
57.300        20
57.320        20
57.340         7
57.360         7
57.380        17
57.400        10
57.420        20
57.440        23
57.460         7
57.480        20
57.500        67
57.520        50
57.540        47
57.560        33
57.580        53
57.600        17
57.620        40
57.640        27
57.660        50
57.680        20
57.700        30
57.720        37
57.740        30
57.760        10
57.780        13
57.800         7
57.820        20
57.840        13
57.860        33
57.880        10
57.900        20
57.920        37
57.940        13
57.960        17
57.980        17
58.000        23
58.020         7
58.040         3
58.060         3
58.080        10
58.100        13
58.120        33
58.140        23
58.160        30
58.180        33
58.200        13
58.220        10
58.240        17
58.260        30
58.280        17
58.300        13
58.320        13
58.340        17
58.360        27
58.380        13
58.400         7
58.420        10
58.440        13
58.460        17
58.480        30
58.500        33
58.520        13
58.540        37
58.560        30
58.580        17
58.600        17
58.620         7
58.640        13
58.660        20
58.680        13
58.700        13
58.720        10
58.740        13
58.760        17
58.780         7
58.800        13
58.820        10
58.840        17
58.860        13
58.880        10
58.900        20
58.920        23
58.940        20
58.960        17
58.980        13
59.000        13
59.020        10
59.040        13
59.060        10
59.080        13
59.100        13
59.120        20
59.140        13
59.160         7
59.180         3
59.200        17
59.220        10
59.240         0
59.260        10
59.280        17
59.300        13
59.320         7
59.340        20
59.360        10
59.380        20
59.400        13
59.420        20
59.440        23
59.460        13
59.480        10
59.500         7
59.520        20
59.540        23
59.560         7
59.580        17
59.600         7
59.620        17
59.640        20
59.660        10
59.680         7
59.700         7
59.720        20
59.740        23
59.760        10
59.780        27
59.800        13
59.820        23
59.840         7
59.860        10
59.880         7
59.900        23
59.920        20
59.940        13
59.960         7
59.980        13
60.000        13
