20.000         0
20.020         0
20.040         0
20.060         0
20.080         0
20.100         0
20.120         0
20.140         0
20.160         0
20.180         0
20.200         0
20.220         0
20.240         0
20.260         7
20.280         0
20.300         0
20.320         0
20.340         0
20.360         0
20.380        33
20.400        73
20.420        67
20.440        60
20.460        67
20.480        47
20.500        40
20.520        53
20.540        87
20.560        80
20.580       127
20.600        73
20.620        67
20.640        33
20.660        87
20.680        27
20.700        60
20.720        40
20.740        67
20.760        80
20.780        40
20.800        40
20.820        80
20.840        53
20.860        53
20.880        60
20.900        60
20.920        73
20.940        67
20.960        60
20.980        67
21.000        73
21.020        60
21.040        53
21.060        40
21.080        47
21.100        53
21.120        53
21.140        53
21.160        67
21.180        40
21.200        60
21.220        73
21.240        80
21.260        47
21.280        73
21.300        67
21.320        47
21.340        47
21.360        47
21.380        40
21.400        60
21.420        27
21.440        80
21.460        27
21.480        67
21.500        47
21.520        20
21.540        53
21.560        40
21.580        67
21.600        40
21.620        67
21.640        53
21.660        47
21.680        53
21.700        47
21.720        20
21.740        40
21.760        67
21.780        20
21.800        40
21.820        53
21.840        40
21.860        33
21.880        53
21.900        73
21.920        40
21.940        27
21.960        40
21.980        73
22.000        27
22.020        33
22.040        47
22.060        27
22.080        53
22.100        20
22.120        60
22.140        27
22.160        47
22.180        60
22.200        53
22.220        33
22.240        73
22.260        73
22.280        33
22.300        33
22.320        40
22.340        40
22.360        40
22.380        47
22.400        60
22.420       120
22.440        47
22.460        53
22.480        40
22.500        47
22.520        53
22.540        60
22.560        73
22.580        53
22.600        47
22.620        33
22.640        60
22.660        60
22.680        87
22.700        73
22.720        53
22.740        73
22.760        53
22.780        47
22.800        47
22.820        40
22.840        47
22.860        80
22.880        60
22.900        47
22.920        53
22.940        87
22.960        40
22.980        47
23.000        40
23.020        27
23.040        73
23.060        27
23.080        33
23.100        73
23.120        53
23.140        67
23.160        47
23.180        40
23.200        47
23.220        40
23.240        40
23.260        33
23.280        40
23.300        47
23.320        67
23.340        27
23.360        53
23.380        40
23.400        67
23.420        47
23.440        33
23.460        47
23.480        33
23.500        73
23.520        13
23.540        20
23.560        47
23.580        67
23.600        47
23.620         0
23.640        67
23.660        60
23.680        60
23.700        47
23.720        27
23.740        53
23.760        20
23.780        27
23.800        53
23.820        40
23.840        40
23.860        20
23.880        67
23.900        33
23.920        47
23.940        60
23.960        73
23.980        73
24.000        40
24.020        53
24.040        40
24.060        47
24.080        47
24.100        33
24.120        80
24.140        47
24.160        60
24.180        67
24.200        67
24.220        27
24.240        47
24.260        27
24.280        53
24.300        67
24.320        33
24.340        33
24.360        53
24.380        67
24.400        20
24.420        40
24.440        47
24.460        53
24.480        60
24.500        40
24.520        53
24.540        53
24.560        27
24.580        20
24.600        40
24.620        53
24.640        67
24.660        53
24.680        27
24.700        33
24.720       127
24.740        73
24.760        53
24.780        33
24.800        47
24.820        27
24.840        60
24.860        53
24.880        60
24.900        73
24.920        40
24.940        47
24.960        33
24.980        33
25.000        33
25.020        47
25.040        47
25.060        40
25.080        27
25.100        40
25.120        27
25.140        67
25.160        40
25.180        27
25.200        67
25.220        27
25.240        13
25.260        67
25.280        53
25.300        40
25.320        47
25.340        67
25.360        47
25.380        47
25.400        33
25.420        73
25.440        27
25.460        53
25.480        13
25.500        47
25.520        40
25.540        60
25.560        67
25.580        13
25.600       107
25.620        53
25.640        53
25.660        47
25.680        33
25.700        53
25.720        27
25.740        53
25.760        47
25.780        27
25.800        33
25.820        47
25.840        73
25.860         7
25.880        47
25.900        40
25.920        40
25.940        67
25.960        40
25.980        53
26.000        60
26.020        53
26.040        40
26.060        33
26.080        33
26.100        20
26.120        73
26.140        13
26.160        27
26.180        33
26.200        53
26.220        33
26.240        33
26.260        47
26.280        33
26.300        40
26.320        40
26.340        47
26.360        27
26.380        20
26.400        67
26.420        53
26.440        47
26.460        60
26.480       113
26.500        60
26.520        33
26.540        67
26.560        73
26.580        67
26.600        53
26.620        47
26.640        67
26.660        27
26.680        47
26.700        40
26.720        33
26.740        47
26.760        20
26.780        40
26.800        80
26.820        73
26.840        40
26.860        27
26.880        27
26.900        27
26.920        60
26.940        33
26.960        20
26.980        47
27.000        60
27.020        40
27.040        40
27.060        47
27.080        40
27.100        67
27.120        47
27.140        20
27.160        33
27.180        53
27.200        40
27.220        47
27.240        67
27.260        73
27.280        20
27.300        67
27.320        73
27.340        53
27.360        27
27.380        33
27.400        40
27.420        60
27.440        73
27.460        33
27.480        27
27.500        47
27.520        33
27.540        87
27.560        80
27.580        27
27.600        47
27.620        53
27.640        73
27.660        20
27.680        13
27.700        53
27.720        33
27.740        40
27.760        40
27.780        40
27.800        67
27.820        20
27.840        27
27.860        27
27.880        13
27.900        20
27.920        20
27.940        40
27.960        80
27.980        47
28.000        47
28.020        20
28.040        33
28.060        13
28.080        27
28.100        33
28.120        13
28.140        27
28.160        27
28.180        40
28.200        13
28.220        27
28.240        60
28.260        27
28.280        13
28.300        13
28.320        47
28.340        27
28.360        20
28.380        33
28.400        60
28.420        20
28.440        13
28.460        13
28.480        27
28.500        27
28.520        60
28.540        40
28.560        73
28.580        27
28.600         7
28.620        13
28.640        53
28.660        60
28.680        40
28.700        60
28.720        53
28.740        33
28.760        53
28.780        40
28.800        33
28.820        80
28.840        40
28.860        47
28.880        40
28.900        40
28.920        20
28.940        53
28.960        40
28.980        60
29.000        33
29.020        47
29.040        33
29.060         7
29.080        27
29.100        47
29.120        13
29.140        13
29.160        53
29.180        27
29.200        27
29.220        47
29.240        13
29.260        13
29.280        27
29.300        47
29.320        33
29.340        27
29.360        27
29.380        60
29.400        27
29.420        13
29.440        27
29.460        20
29.480         7
29.500         7
29.520        33
29.540        33
29.560        33
29.580        47
29.600        47
29.620        27
29.640        13
29.660        27
29.680        60
29.700        33
29.720        40
29.740        20
29.760        40
29.780        33
29.800        40
29.820        20
29.840        33
29.860        53
29.880        60
29.900        47
29.920        27
29.940        33
29.960        47
29.980        27
30.000        53
30.020        47
30.040        20
30.060        33
30.080        33
30.100        47
30.120        27
30.140        27
30.160        33
30.180        47
30.200        33
30.220        33
30.240        53
30.260        33
30.280        33
30.300        47
30.320        13
30.340        47
30.360        27
30.380        13
30.400        60
30.420        20
30.440        47
30.460        47
30.480        53
30.500        27
30.520        33
30.540        40
30.560        33
30.580        47
30.600        60
30.620        53
30.640        27
30.660        53
30.680        27
30.700        60
30.720        20
30.740        13
30.760        33
30.780        53
30.800        60
30.820        73
30.840        33
30.860        13
30.880        60
30.900        60
30.920        53
30.940        27
30.960        13
30.980       100
31.000        93
31.020        40
31.040        67
31.060        53
31.080        73
31.100        67
31.120        47
31.140       107
31.160        33
31.180       107
31.200        73
31.220        47
31.240       100
31.260        93
31.280        27
31.300        53
31.320        73
31.340        40
31.360        67
31.380        60
31.400        27
31.420        13
31.440        73
31.460        67
31.480        20
31.500        20
31.520        13
31.540        53
31.560        27
31.580        40
31.600        27
31.620        60
31.640        20
31.660        47
31.680        20
31.700        27
31.720        20
31.740        33
31.760        13
31.780        33
31.800        13
31.820        53
31.840        67
31.860        13
31.880        27
31.900         7
31.920        33
31.940        13
31.960        13
31.980        67
32.000        47
32.020        47
32.040        60
32.060        53
32.080        20
32.100        33
32.120        13
32.140        20
32.160        67
32.180        20
32.200        33
32.220        33
32.240        33
32.260        13
32.280        47
32.300        33
32.320        40
32.340        27
32.360        33
32.380        27
32.400        20
32.420        33
32.440        33
32.460        40
32.480        40
32.500        67
32.520        47
32.540        13
32.560        27
32.580        27
32.600        47
32.620        20
32.640        33
32.660        13
32.680        40
32.700        40
32.720        40
32.740        33
32.760        40
32.780        33
32.800        33
32.820        20
32.840        33
32.860        20
32.880        20
32.900        20
32.920        20
32.940        13
32.960        53
32.980        40
33.000        47
33.020        20
33.040         7
33.060        27
33.080        20
33.100        53
33.120        27
33.140        20
33.160        27
33.180        27
33.200        20
33.220        47
33.240        20
33.260        53
33.280         0
33.300         7
33.320        13
33.340        13
33.360        47
33.380        33
33.400        20
33.420        40
33.440        13
33.460        40
33.480        53
33.500        33
33.520        13
33.540        27
33.560        33
33.580        27
33.600        33
33.620        33
33.640        20
33.660        27
33.680        33
33.700        47
33.720        20
33.740        27
33.760        20
33.780        33
33.800        27
33.820        33
33.840        47
33.860        33
33.880        27
33.900        40
33.920        33
33.940        80
33.960        47
33.980        20
34.000        27
34.020        27
34.040        73
34.060        27
34.080        27
34.100        47
34.120        47
34.140        67
34.160        47
34.180        47
34.200        33
34.220        53
34.240        47
34.260        27
34.280        20
34.300        33
34.320        33
34.340        20
34.360        47
34.380        27
34.400        40
34.420        20
34.440        73
34.460        40
34.480        40
34.500        20
34.520        20
34.540        40
34.560        33
34.580        67
34.600        53
34.620        67
34.640        60
34.660        53
34.680        40
34.700        33
34.720        60
34.740        47
34.760        47
34.780        33
34.800        27
34.820        47
34.840        60
34.860        40
34.880        13
34.900        60
34.920        40
34.940        47
34.960        13
34.980        47
35.000        33
35.020        53
35.040        27
35.060        67
35.080        27
35.100        13
35.120        60
35.140       100
35.160       120
35.180        93
35.200       113
35.220        67
35.240        80
35.260        40
35.280        80
35.300        53
35.320        47
35.340        27
35.360        27
35.380        53
35.400         7
35.420        47
35.440        33
35.460        13
35.480        40
35.500        33
35.520        40
35.540        20
35.560        40
35.580        33
35.600         0
35.620        33
35.640        27
35.660        27
35.680        27
35.700        13
35.720        20
35.740        20
35.760        27
35.780        27
35.800        40
35.820        13
35.840        13
35.860        33
35.880        53
35.900        20
35.920        40
35.940        33
35.960        13
35.980        60
36.000        20
36.020        40
36.040         7
36.060        27
36.080        73
36.100        27
36.120        27
36.140        33
36.160        13
36.180        60
36.200        20
36.220        20
36.240        20
36.260        47
36.280        13
36.300        40
36.320        53
36.340        13
36.360        13
36.380        40
36.400        40
36.420        27
36.440        60
36.460        40
36.480        13
36.500        40
36.520        40
36.540        40
36.560        47
36.580        40
36.600        27
36.620        33
36.640        13
36.660        53
36.680        20
36.700        60
36.720        33
36.740        20
36.760        33
36.780        53
36.800        20
36.820        40
36.840        40
36.860        33
36.880        60
36.900        27
36.920        13
36.940        33
36.960        40
36.980        33
37.000        53
37.020        40
37.040        27
37.060        53
37.080        20
37.100        60
37.120        40
37.140        60
37.160        33
37.180       100
37.200        47
37.220        33
37.240        20
37.260        67
37.280        53
37.300        67
37.320        73
37.340        60
37.360         7
37.380        40
37.400        40
37.420        27
37.440        33
37.460        87
37.480        27
37.500        33
37.520        27
37.540        73
37.560        87
37.580        27
37.600        53
37.620        53
37.640        67
37.660        40
37.680        80
37.700        93
37.720       100
37.740        80
37.760       107
37.780       100
37.800        40
37.820       113
37.840        80
37.860        80
37.880       153
37.900       113
37.920       147
37.940       193
37.960       160
37.980       213
38.000       240
38.020       220
38.040       153
38.060       247
38.080       333
38.100       333
38.120       347
38.140       520
38.160       353
38.180       526
38.200       660
38.220       980
38.240      1146
38.260      1366
38.280      1626
38.300      1886
38.320      2399
38.340      2959
38.360      2539
38.380      2746
38.400      2752
38.420      2746
38.440      2239
38.460      2019
38.480      1826
38.500      1399
38.520      1240
38.540      1040
38.560       733
38.580       666
38.600       466
38.620       380
38.640       287
38.660       313
38.680       220
38.700       167
38.720       153
38.740       100
38.760        80
38.780       140
38.800       107
38.820       160
38.840       113
38.860        87
38.880       100
38.900        93
38.920        73
38.940       107
38.960        53
38.980        67
39.000        73
39.020        53
39.040        33
39.060       127
39.080        80
39.100        40
39.120        67
39.140        60
39.160        80
39.180       100
39.200        13
39.220        60
39.240        40
39.260        67
39.280        60
39.300        53
39.320        27
39.340        40
39.360        33
39.380        13
39.400        60
39.420        73
39.440        27
39.460        27
39.480        20
39.500        40
39.520        33
39.540        47
39.560        60
39.580        13
39.600        27
39.620        60
39.640        53
39.660        20
39.680        40
39.700        40
39.720        80
39.740        47
39.760        53
39.780        47
39.800        67
39.820        60
39.840        27
39.860        60
39.880        53
39.900        27
39.920        60
39.940        53
39.960        40
39.980        20
40.000        27
40.020        33
40.040         7
40.060        40
40.080        27
40.100        33
40.120        13
40.140        73
40.160        53
40.180        27
40.200        80
40.220        47
40.240        40
40.260        40
40.280        27
40.300        73
40.320        27
40.340        47
40.360        27
40.380        27
40.400        27
40.420        27
40.440        13
40.460        27
40.480        33
40.500        33
40.520        53
40.540        40
40.560        40
40.580        40
40.600        47
40.620        40
40.640        27
40.660        33
40.680        33
40.700        20
40.720         7
40.740        27
40.760        40
40.780        53
40.800         7
40.820        20
40.840        27
40.860         7
40.880        40
40.900        20
40.920        27
40.940        20
40.960        27
40.980        53
41.000        60
41.020        27
41.040        33
41.060        60
41.080        53
41.100        13
41.120        13
41.140        40
41.160        13
41.180        20
41.200        47
41.220        27
41.240        40
41.260        27
41.280        33
41.300        53
41.320        27
41.340        40
41.360        13
41.380         7
41.400        53
41.420        60
41.440        40
41.460        33
41.480        47
41.500        67
41.520        33
41.540        60
41.560        33
41.580        40
41.600        53
41.620        13
41.640        27
41.660        40
41.680        40
41.700        53
41.720        53
41.740        73
41.760        47
41.780        20
41.800        27
41.820        47
41.840        13
41.860        20
41.880        27
41.900        47
41.920        20
41.940        33
41.960        47
41.980        40
42.000        27
42.020        13
42.040        40
42.060        33
42.080        20
42.100        53
42.120        13
42.140        40
42.160        47
42.180        20
42.200        20
42.220        13
42.240        33
42.260        33
42.280        20
42.300        47
42.320        20
42.340        47
42.360        20
42.380        47
42.400        27
42.420        20
42.440        13
42.460        13
42.480        13
42.500        33
42.520        33
42.540         7
42.560        40
42.580        20
42.600        47
42.620        27
42.640        33
42.660        53
42.680        20
42.700        47
42.720        27
42.740        33
42.760        20
42.780        33
42.800        20
42.820        20
42.840        33
42.860        20
42.880        13
42.900        27
42.920        40
42.940        20
42.960        33
42.980        40
43.000        40
43.020        20
43.040        53
43.060        27
43.080        13
43.100        13
43.120        73
43.140        40
43.160        27
43.180        27
43.200        33
43.220        13
43.240        27
43.260        27
43.280        67
43.300        33
43.320        67
43.340        53
43.360       100
43.380        73
43.400        67
43.420        73
43.440        53
43.460        67
43.480        47
43.500        27
43.520        60
43.540        13
43.560        33
43.580         7
43.600        33
43.620        40
43.640        13
43.660        27
43.680         7
43.700        47
43.720        27
43.740        47
43.760        27
43.780        20
43.800        27
43.820        20
43.840        47
43.860        27
43.880        27
43.900         7
43.920        13
43.940        27
43.960        27
43.980        40
44.000        47
44.020        13
44.040        33
44.060        33
44.080         0
44.100        13
44.120        20
44.140        20
44.160        13
44.180        33
44.200        20
44.220        40
44.240        20
44.260        13
44.280        53
44.300        20
44.320        40
44.340         7
44.360        20
44.380        33
44.400        27
44.420        53
44.440        53
44.460        13
44.480        53
44.500        60
44.520        40
44.540        67
44.560        53
44.580        73
44.600        53
44.620        73
44.640        27
44.660        47
44.680        20
44.700        40
44.720        33
44.740        47
44.760        27
44.780        60
44.800        20
44.820        40
44.840        33
44.860        33
44.880        53
44.900         0
44.920        27
44.940        13
44.960        40
44.980        33
45.000        27
45.020        13
45.040        33
45.060        73
45.080        27
45.100        27
45.120        13
45.140        27
45.160        47
45.180        27
45.200        20
45.220        13
45.240        27
45.260        33
45.280        13
45.300        40
45.320        33
45.340        20
45.360        33
45.380         7
45.400        20
45.420        33
45.440         7
45.460        40
45.480        20
45.500         7
45.520        40
45.540        20
45.560        20
45.580        40
45.600        20
45.620        13
45.640        20
45.660         7
45.680        27
45.700        40
45.720        33
45.740         7
45.760        27
45.780        20
45.800        20
45.820         0
45.840        20
45.860        27
45.880        20
45.900        13
45.920        13
45.940        60
45.960         7
45.980         7
46.000         7
46.020        47
46.040        27
46.060        27
46.080        13
46.100        20
46.120         7
46.140        20
46.160        13
46.180        13
46.200         7
46.220        20
46.240        47
46.260        27
46.280         7
46.300         7
46.320         7
46.340        33
46.360        13
46.380        13
46.400        20
46.420        13
46.440        33
46.460        27
46.480        13
46.500        33
46.520        27
46.540        20
46.560        20
46.580        33
46.600        27
46.620        20
46.640        13
46.660        13
46.680        40
46.700        60
46.720        33
46.740        40
46.760        27
46.780         7
46.800        33
46.820         7
46.840        47
46.860        27
46.880        20
46.900        33
46.920        20
46.940        13
46.960         0
46.980         7
47.000        27
47.020         7
47.040         7
47.060        13
47.080        27
47.100        27
47.120        13
47.140        13
47.160         7
47.180        33
47.200        40
47.220         7
47.240        27
47.260        13
47.280        20
47.300         7
47.320        27
47.340        13
47.360         7
47.380         7
47.400        40
47.420        40
47.440         7
47.460        13
47.480        13
47.500        20
47.520         7
47.540        13
47.560        33
47.580        27
47.600        53
47.620        13
47.640        33
47.660        13
47.680        33
47.700        20
47.720        13
47.740        20
47.760         0
47.780        20
47.800        20
47.820        20
47.840        13
47.860        20
47.880        20
47.900        20
47.920        20
47.940         7
47.960        27
47.980        33
48.000        20
48.020        13
48.040        20
48.060        20
48.080         0
48.100         7
48.120        27
48.140        47
48.160         0
48.180        20
48.200         7
48.220        27
48.240        20
48.260        13
48.280        13
48.300        20
48.320        27
48.340        20
48.360        20
48.380        33
48.400        13
48.420        20
48.440        20
48.460         0
48.480         7
48.500         7
48.520        47
48.540         0
48.560         0
48.580         0
48.600        33
48.620         7
48.640        13
48.660        33
48.680        27
48.700        33
48.720        20
48.740         7
48.760        13
48.780        20
48.800         7
48.820        13
48.840        20
48.860        20
48.880        13
48.900        20
48.920        27
48.940         7
48.960        13
48.980        13
49.000        20
49.020         7
49.040         7
49.060        33
49.080        20
49.100        13
49.120         7
49.140         7
49.160        27
49.180        20
49.200         7
49.220        33
49.240        20
49.260         7
49.280        13
49.300        13
49.320         0
49.340        27
49.360        40
49.380        33
49.400        20
49.420         0
49.440        13
49.460        27
49.480        47
49.500        20
49.520        27
49.540        27
49.560         7
49.580        40
49.600        13
49.620        13
49.640         7
49.660         0
49.680         7
49.700        27
49.720        13
49.740        27
49.760        33
49.780        20
49.800        27
49.820        20
49.840        20
49.860         0
49.880         7
49.900        13
49.920        20
49.940        13
49.960        20
49.980         7
50.000        33
50.020        20
50.040        13
50.060        27
50.080        33
50.100        33
50.120        20
50.140         7
50.160        27
50.180         0
50.200        27
50.220        20
50.240        27
50.260        13
50.280        33
50.300         7
50.320        13
50.340        20
50.360         7
50.380        27
50.400        40
50.420        40
50.440        13
50.460        20
50.480        27
50.500        27
50.520         7
50.540        13
50.560         7
50.580        20
50.600        20
50.620         7
50.640         7
50.660         0
50.680        27
50.700        27
50.720        20
50.740        27
50.760         7
50.780         0
50.800        27
50.820         7
50.840         0
50.860        27
50.880         0
50.900        33
50.920        13
50.940        20
50.960        13
50.980        20
51.000        27
51.020        20
51.040        20
51.060         7
51.080        13
51.100        20
51.120        20
51.140        13
51.160        13
51.180         7
51.200        13
51.220        27
51.240         7
51.260        27
51.280         7
51.300         7
51.320        13
51.340        20
51.360        20
51.380        20
51.400        13
51.420        33
51.440        40
51.460        27
51.480        27
51.500        20
51.520        27
51.540         0
51.560        27
51.580        20
51.600        40
51.620        13
51.640        20
51.660        13
51.680        20
51.700        53
51.720        20
51.740        20
51.760        40
51.780        20
51.800        20
51.820        27
51.840        13
51.860        33
51.880        33
51.900        27
51.920        27
51.940        20
51.960        20
51.980        33
52.000        20
52.020        20
52.040        20
52.060         7
52.080         0
52.100        40
52.120        13
52.140         7
52.160        13
52.180        13
52.200        40
52.220        20
52.240        27
52.260        20
52.280         7
52.300        13
52.320        20
52.340        27
52.360         7
52.380         7
52.400        40
52.420        40
52.440        27
52.460        13
52.480        27
52.500        27
52.520        27
52.540        40
52.560        47
52.580        73
52.600        87
52.620        73
52.640        67
52.660        40
52.680        27
52.700        33
52.720        40
52.740        47
52.760        27
52.780        27
52.800        20
52.820        33
52.840         7
52.860         7
52.880         7
52.900        20
52.920        20
52.940         7
52.960        20
52.980         7
53.000         0
53.020         7
53.040        33
53.060        13
53.080        13
53.100        13
53.120        13
53.140        27
53.160         0
53.180         7
53.200        20
53.220        20
53.240         7
53.260        13
53.280         7
53.300        20
53.320         7
53.340        20
53.360        13
53.380        13
53.400         0
53.420        20
53.440        27
53.460        13
53.480         7
53.500         0
53.520        27
53.540        13
53.560        27
53.580        33
53.600        20
53.620        20
53.640        13
53.660        20
53.680        20
53.700        13
53.720        13
53.740        20
53.760        20
53.780        13
53.800        13
53.820         7
53.840         0
53.860         7
53.880         0
53.900        13
53.920        13
53.940        20
53.960        27
53.980         7
54.000         7
54.020        13
54.040        13
54.060        20
54.080        27
54.100        27
54.120         0
54.140         0
54.160        13
54.180        20
54.200        27
54.220        20
54.240        13
54.260        27
54.280        13
54.300        20
54.320        13
54.340         7
54.360        13
54.380        13
54.400        27
54.420        13
54.440        33
54.460        20
54.480        27
54.500         7
54.520         0
54.540         7
54.560         7
54.580         7
54.600         7
54.620        27
54.640         7
54.660        20
54.680         7
54.700         7
54.720         0
54.740        27
54.760        40
54.780        27
54.800         7
54.820         7
54.840        20
54.860        33
54.880        13
54.900         0
54.920        20
54.940        27
54.960         7
54.980        27
55.000        47
55.020        40
55.040        60
55.060        13
55.080        20
55.100        33
55.120         7
55.140        27
55.160         7
55.180        27
55.200        53
55.220        60
55.240        27
55.260        40
55.280        73
55.300        40
55.320        40
55.340        27
55.360        60
55.380        80
55.400        93
55.420        73
55.440        13
55.460        33
55.480        40
55.500        60
55.520        80
55.540        80
55.560        67
55.580        53
55.600        80
55.620        33
55.640        67
55.660        33
55.680        33
55.700        20
55.720        27
55.740        33
55.760        20
55.780        13
55.800        67
55.820        33
55.840        13
55.860         7
55.880        13
55.900        27
55.920        13
55.940        27
55.960         7
55.980         0
56.000        13
56.020        20
56.040        13
56.060        13
56.080        13
56.100        20
56.120        20
56.140         7
56.160         7
56.180        20
56.200         7
56.220        20
56.240        13
56.260        13
56.280        20
56.300        13
56.320        13
56.340         7
56.360        27
56.380        13
56.400        13
56.420        20
56.440        13
56.460         7
56.480         7
56.500         7
56.520         7
56.540         7
56.560        33
56.580        13
56.600         7
56.620        20
56.640         0
56.660        13
56.680        13
56.700         7
56.720         7
56.740         7
56.760        20
56.780        20
56.800        13
56.820        13
56.840         7
56.860         7
56.880        13
56.900         7
56.920        13
56.940         0
56.960        27
56.980         7
57.000         0
57.020         0
57.040         0
57.060        20
57.080        13
57.100         7
57.120         0
57.140        13
57.160         7
57.180        33
57.200        20
57.220        20
57.240         7
57.260         0
57.280        27
57.300        13
57.320        27
57.340        40
57.360        33
57.380        53
57.400        27
57.420        27
57.440        33
57.460        73
57.480        93
57.500       133
57.520       100
57.540       167
57.560       133
57.580       133
57.600       107
57.620        60
57.640        47
57.660       120
57.680        53
57.700        67
57.720        67
57.740        53
57.760        33
57.780        53
57.800         0
57.820        33
57.840        13
57.860        13
57.880        27
57.900        27
57.920         7
57.940        13
57.960         7
57.980        20
58.000         7
58.020        13
58.040        13
58.060        20
58.080        33
58.100        13
58.120         7
58.140         7
58.160        20
58.180        13
58.200        13
58.220        33
58.240        13
58.260         7
58.280        13
58.300         0
58.320         0
58.340        13
58.360        20
58.380        33
58.400        13
58.420         0
58.440        20
58.460        13
58.480        20
58.500        13
58.520        13
58.540        20
58.560         0
58.580         7
58.600        13
58.620        13
58.640         7
58.660         7
58.680        27
58.700        20
58.720        27
58.740        20
58.760        13
58.780        13
58.800         7
58.820         7
58.840         0
58.860        20
58.880        40
58.900        13
58.920        20
58.940        13
58.960         0
58.980         0
59.000        13
59.020        20
59.040        20
59.060        20
59.080         7
59.100         7
59.120         0
59.140        20
59.160         0
59.180         0
59.200        13
59.220         0
59.240        20
59.260         7
59.280        20
59.300        33
59.320        20
59.340        27
59.360         7
59.380        13
59.400        13
59.420         7
59.440         7
59.460        47
59.480        13
59.500         7
59.520        20
59.540        13
59.560        20
59.580        33
59.600        13
59.620        20
59.640         7
59.660         7
59.680         7
59.700        13
59.720         7
59.740        13
59.760        20
59.780         7
59.800        33
59.820         0
59.840        13
59.860        20
59.880         7
59.900        13
59.920        27
59.940         0
59.960         7
59.980         0
60.000        13
