20.000        30
20.020        83
20.040        43
20.060        50
20.080        60
20.100        43
20.120        30
20.140        30
20.160        37
20.180        40
20.200        40
20.220        37
20.240        37
20.260        43
20.280        27
20.300        37
20.320        53
20.340        60
20.360        27
20.380        33
20.400        43
20.420        63
20.440        57
20.460        30
20.480        40
20.500        57
20.520        30
20.540        30
20.560        37
20.580        23
20.600        33
20.620        53
20.640        53
20.660        30
20.680        30
20.700        13
20.720        23
20.740        43
20.760        37
20.780        50
20.800        40
20.820        37
20.840        17
20.860        63
20.880        47
20.900        40
20.920        60
20.940        17
20.960        13
20.980        43
21.000        33
21.020        50
21.040        60
21.060        53
21.080        30
21.100        57
21.120        33
21.140        40
21.160        47
21.180        33
21.200        27
21.220        47
21.240        17
21.260        60
21.280        50
21.300        40
21.320        47
21.340        67
21.360        43
21.380        53
21.400        47
21.420        50
21.440        27
21.460        40
21.480        40
21.500        37
21.520        33
21.540        37
21.560        43
21.580        37
21.600        47
21.620        53
21.640        40
21.660        43
21.680        37
21.700        40
21.720        23
21.740        43
21.760        53
21.780        40
21.800        83
21.820        57
21.840        63
21.860        33
21.880        47
21.900        50
21.920        50
21.940        23
21.960        57
21.980        37
22.000        63
22.020        37
22.040        43
22.060        40
22.080        27
22.100        37
22.120        30
22.140        23
22.160        33
22.180        43
22.200        23
22.220        40
22.240        27
22.260        27
22.280        50
22.300        17
22.320        43
22.340        37
22.360        43
22.380        50
22.400        27
22.420        40
22.440        47
22.460        30
22.480        33
22.500        40
22.520        37
22.540        43
22.560        57
22.580        30
22.600        27
22.620        33
22.640        30
22.660        53
22.680        20
22.700        57
22.720        30
22.740        27
22.760        20
22.780        30
22.800        50
22.820        27
22.840        40
22.860        27
22.880        43
22.900        47
22.920        30
22.940        33
22.960        37
22.980        40
23.000        30
23.020        20
23.040        37
23.060        17
23.080        50
23.100        30
23.120        57
23.140        40
23.160        20
23.180        70
23.200        30
23.220        33
23.240        37
23.260        50
23.280        30
23.300        33
23.320        40
23.340        37
23.360        30
23.380        37
23.400        37
23.420        40
23.440        30
23.460        37
23.480        20
23.500        30
23.520        37
23.540        57
23.560        30
23.580        33
23.600        33
23.620        37
23.640        63
23.660        23
23.680        27
23.700        33
23.720        13
23.740        50
23.760        30
23.780        23
23.800        43
23.820        10
23.840        43
23.860        10
23.880        40
23.900        53
23.920        40
23.940        43
23.960        27
23.980        30
24.000        30
24.020        33
24.040        37
24.060        23
24.080        37
24.100        50
24.120        20
24.140        23
24.160        20
24.180        47
24.200        33
24.220        23
24.240        37
24.260        30
24.280        30
24.300        33
24.320        20
24.340        37
24.360        20
24.380        30
24.400        13
24.420        30
24.440        40
24.460        50
24.480        17
24.500        33
24.520        50
24.540        20
24.560        13
24.580        30
24.600        50
24.620        47
24.640        60
24.660        30
24.680        47
24.700        23
24.720        33
24.740        40
24.760        33
24.780        33
24.800        37
24.820        37
24.840        17
24.860        40
24.880        37
24.900        17
24.920        13
24.940        33
24.960        27
24.980        50
25.000        37
25.020        33
25.040        30
25.060        37
25.080        30
25.100        37
25.120        27
25.140        30
25.160        47
25.180        57
25.200        30
25.220        37
25.240        40
25.260        40
25.280        17
25.300        50
25.320        33
25.340        13
25.360        30
25.380        20
25.400        30
25.420        30
25.440        33
25.460        13
25.480        47
25.500        30
25.520        33
25.540        37
25.560        27
25.580        57
25.600        60
25.620        40
25.640        40
25.660        30
25.680        47
25.700        50
25.720        30
25.740        20
25.760        20
25.780        13
25.800        20
25.820        17
25.840        40
25.860        20
25.880        30
25.900        30
25.920        43
25.940        33
25.960        23
25.980        40
26.000        30
26.020        50
26.040        23
26.060        27
26.080        40
26.100        23
26.120        37
26.140        20
26.160        23
26.180        23
26.200        33
26.220        23
26.240        17
26.260        30
26.280        17
26.300        20
26.320        30
26.340        33
26.360        13
26.380        30
26.400        40
26.420        40
26.440        20
26.460        27
26.480        20
26.500        37
26.520        20
26.540        23
26.560        27
26.580        30
26.600        27
26.620        10
26.640        27
26.660        23
26.680        33
26.700        33
26.720        43
26.740        23
26.760        33
26.780        20
26.800        13
26.820        23
26.840        27
26.860        37
26.880        43
26.900        20
26.920        27
26.940         7
26.960        37
26.980        57
27.000        40
27.020        23
27.040        17
27.060        27
27.080        33
27.100        33
27.120        27
27.140        47
27.160        27
27.180        10
27.200        33
27.220        20
27.240        30
27.260        27
27.280        30
27.300        43
27.320        17
27.340        43
27.360        20
27.380        20
27.400        20
27.420        27
27.440        43
27.460        20
27.480        50
27.500        10
27.520        30
27.540        40
27.560        23
27.580        43
27.600        33
27.620        30
27.640        20
27.660        33
27.680        20
27.700        27
27.720        20
27.740        27
27.760        13
27.780        17
27.800        37
27.820        30
27.840        50
27.860        43
27.880        13
27.900        30
27.920        47
27.940        20
27.960        27
27.980        40
28.000        17
28.020        23
28.040        27
28.060        30
28.080        20
28.100        37
28.120        30
28.140        30
28.160        23
28.180        23
28.200        17
28.220        30
28.240        37
28.260        50
28.280        47
28.300        27
28.320        30
28.340        23
28.360        13
28.380        17
28.400        13
28.420        20
28.440        23
28.460        17
28.480        20
28.500        20
28.520        30
28.540        23
28.560        13
28.580        37
28.600        30
28.620        30
28.640        17
28.660        20
28.680        20
28.700        23
28.720        30
28.740        37
28.760        37
28.780        30
28.800        20
28.820        23
28.840        37
28.860        27
28.880        33
28.900        37
28.920        27
28.940        17
28.960        27
28.980        17
29.000        33
29.020        43
29.040        53
29.060        20
29.080        47
29.100        57
29.120        50
29.140        67
29.160        30
29.180        37
29.200        40
29.220        37
29.240        43
29.260        43
29.280        10
29.300        30
29.320        40
29.340        27
29.360        20
29.380        17
29.400        40
29.420        13
29.440        17
29.460        20
29.480        23
29.500        50
29.520        37
29.540        27
29.560        23
29.580        20
29.600        27
29.620        20
29.640        30
29.660        17
29.680        20
29.700        30
29.720        43
29.740        27
29.760        30
29.780        33
29.800        20
29.820        13
29.840        20
29.860        23
29.880        33
29.900        27
29.920        40
29.940        33
29.960        33
29.980        17
30.000        20
30.020        27
30.040        23
30.060        33
30.080        27
30.100        23
30.120        17
30.140        27
30.160        10
30.180        33
30.200        23
30.220        43
30.240        27
30.260        37
30.280        17
30.300        10
30.320        23
30.340        27
30.360        17
30.380        33
30.400        17
30.420        13
30.440        47
30.460        27
30.480        27
30.500        40
30.520        33
30.540        30
30.560        43
30.580        37
30.600        43
30.620        43
30.640        80
30.660        77
30.680       127
30.700       173
30.720       193
30.740       187
30.760       153
30.780       143
30.800       137
30.820        97
30.840        77
30.860        73
30.880        40
30.900        47
30.920        23
30.940        33
30.960        27
30.980        37
31.000        30
31.020        37
31.040        47
31.060        27
31.080        27
31.100        23
31.120        20
31.140        20
31.160        23
31.180        20
31.200        20
31.220        30
31.240        33
31.260        27
31.280        20
31.300        13
31.320        30
31.340        20
31.360        30
31.380        10
31.400        23
31.420        10
31.440        20
31.460        17
31.480        33
31.500        27
31.520        30
31.540        30
31.560        33
31.580        27
31.600        13
31.620        30
31.640        27
31.660        40
31.680        20
31.700        17
31.720        27
31.740        23
31.760        20
31.780        17
31.800        10
31.820        13
31.840        20
31.860        27
31.880        13
31.900        20
31.920        33
31.940        20
31.960        30
31.980         7
32.000        20
32.020        17
32.040        20
32.060        13
32.080        13
32.100        47
32.120        13
32.140        27
32.160        13
32.180        17
32.200        43
32.220        27
32.240         7
32.260        30
32.280        17
32.300        30
32.320        13
32.340        23
32.360        17
32.380        23
32.400        27
32.420        27
32.440        20
32.460        40
32.480        37
32.500        23
32.520        27
32.540        27
32.560        17
32.580        10
32.600        27
32.620        20
32.640        10
32.660        23
32.680        30
32.700        20
32.720        27
32.740        20
32.760        20
32.780        20
32.800        27
32.820        13
32.840        13
32.860        27
32.880        27
32.900        23
32.920        17
32.940        27
32.960        17
32.980        13
33.000        27
33.020        20
33.040        27
33.060        23
33.080        17
33.100        37
33.120         3
33.140        17
33.160        13
33.180        13
33.200        23
33.220         7
33.240        10
33.260        13
33.280        10
33.300        20
33.320        20
33.340        17
33.360        17
33.380        23
33.400        17
33.420        37
33.440        13
33.460        20
33.480        17
33.500         7
33.520        27
33.540        40
33.560        27
33.580        20
33.600        10
33.620        10
33.640        30
33.660        20
33.680        17
33.700        17
33.720        10
33.740        20
33.760        10
33.780        37
33.800        23
33.820        30
33.840        27
33.860        23
33.880        10
33.900        17
33.920        30
33.940        23
33.960        13
33.980        27
34.000        30
34.020        33
34.040        13
34.060        30
34.080        30
34.100        23
34.120        43
34.140        23
34.160        33
34.180        20
34.200        27
34.220        33
34.240        40
34.260        33
34.280        33
34.300        17
34.320        17
34.340        30
34.360        33
34.380        20
34.400        10
34.420        10
34.440         0
34.460        20
34.480        17
34.500        13
34.520        13
34.540        20
34.560        17
34.580        13
34.600        10
34.620        27
34.640        27
34.660        13
34.680         7
34.700        23
34.720        33
34.740        17
34.760        10
34.780        17
34.800        13
34.820        13
34.840        13
34.860        13
34.880        30
34.900        23
34.920        17
34.940        20
34.960        20
34.980        37
35.000        23
35.020        30
35.040        23
35.060        27
35.080        13
35.100         7
35.120        17
35.140        20
35.160        20
35.180        20
35.200        40
35.220        23
35.240        20
35.260        23
35.280        40
35.300        23
35.320        17
35.340        17
35.360        23
35.380        10
35.400        23
35.420        27
35.440        10
35.460         7
35.480        20
35.500        17
35.520        27
35.540        17
35.560        20
35.580        20
35.600        13
35.620        20
35.640        23
35.660        10
35.680        20
35.700        27
35.720        20
35.740        10
35.760        33
35.780        23
35.800        13
35.820        27
35.840        60
35.860        17
35.880        17
35.900        13
35.920        30
35.940        33
35.960        20
35.980        27
36.000         3
36.020        37
36.040        13
36.060        20
36.080        23
36.100        17
36.120        37
36.140        30
36.160        23
36.180        10
36.200        17
36.220        20
36.240        13
36.260        13
36.280        30
36.300        20
36.320        30
36.340        30
36.360        27
36.380        17
36.400        30
36.420        27
36.440        30
36.460        10
36.480         7
36.500        10
36.520        17
36.540        30
36.560        30
36.580        13
36.600        27
36.620        17
36.640         7
36.660        30
36.680        43
36.700        27
36.720        27
36.740        37
36.760        27
36.780        33
36.800        23
36.820        30
36.840        23
36.860        30
36.880        27
36.900        27
36.920        30
36.940        13
36.960        27
36.980        13
37.000        30
37.020        23
37.040        33
37.060        20
37.080        20
37.100        30
37.120        13
37.140        43
37.160        23
37.180        27
37.200        23
37.220        13
37.240        13
37.260        43
37.280        27
37.300        37
37.320        10
37.340        30
37.360        27
37.380        40
37.400        33
37.420        33
37.440        37
37.460        47
37.480        43
37.500        43
37.520        27
37.540        57
37.560        43
37.580        70
37.600        50
37.620        47
37.640        63
37.660        90
37.680        73
37.700        77
37.720       100
37.740        97
37.760       200
37.780       183
37.800       197
37.820       243
37.840       367
37.860       513
37.880       716
37.900      1083
37.920      1180
37.940      1106
37.960       940
37.980       853
38.000       723
38.020       693
38.040       603
38.060       440
38.080       210
38.100       160
38.120       143
38.140       123
38.160        60
38.180        70
38.200        57
38.220        37
38.240        50
38.260        77
38.280        77
38.300        57
38.320        53
38.340        27
38.360        53
38.380        43
38.400        20
38.420        47
38.440        20
38.460        33
38.480        40
38.500        43
38.520        27
38.540        30
38.560        37
38.580        43
38.600        30
38.620        40
38.640        37
38.660        43
38.680        43
38.700        20
38.720        43
38.740        23
38.760        40
38.780        17
38.800        37
38.820        23
38.840        40
38.860        20
38.880        33
38.900        23
38.920        30
38.940        27
38.960        30
38.980        37
39.000        10
39.020        53
39.040        47
39.060        30
39.080        40
39.100        33
39.120        17
39.140        30
39.160        13
39.180        37
39.200        47
39.220        43
39.240        30
39.260        43
39.280        27
39.300        30
39.320        37
39.340        27
39.360        33
39.380        37
39.400        20
39.420        27
39.440         7
39.460        27
39.480        20
39.500        30
39.520        27
39.540        20
39.560        27
39.580        17
39.600        17
39.620        33
39.640        13
39.660        13
39.680        33
39.700        30
39.720        10
39.740        13
39.760        37
39.780        20
39.800        23
39.820        13
39.840        13
39.860        27
39.880        20
39.900        20
39.920        23
39.940        13
39.960         7
39.980        27
40.000        13
40.020        33
40.040        30
40.060        23
40.080        17
40.100        20
40.120        20
40.140        23
40.160        37
40.180        33
40.200        43
40.220        13
40.240        30
40.260        30
40.280        23
40.300        20
40.320        17
40.340        27
40.360        27
40.380        23
40.400        27
40.420        27
40.440        37
40.460        33
40.480        13
40.500        13
40.520        13
40.540        20
40.560        13
40.580        23
40.600        30
40.620        33
40.640        27
40.660        10
40.680        17
40.700        17
40.720        23
40.740        40
40.760        23
40.780        13
40.800        20
40.820        13
40.840        20
40.860        27
40.880        27
40.900        23
40.920        27
40.940        30
40.960        23
40.980        23
41.000        43
41.020        20
41.040        10
41.060        23
41.080        17
41.100        13
41.120        40
41.140        40
41.160        17
41.180        23
41.200        43
41.220         7
41.240        23
41.260        23
41.280        30
41.300        17
41.320        17
41.340        47
41.360        20
41.380        10
41.400        13
41.420        37
41.440        10
41.460        13
41.480        10
41.500        20
41.520        17
41.540        33
41.560        13
41.580        40
41.600        23
41.620        23
41.640        30
41.660        33
41.680        10
41.700        23
41.720        30
41.740        23
41.760        13
41.780        27
41.800        17
41.820        20
41.840        30
41.860        27
41.880        17
41.900        20
41.920         7
41.940        23
41.960        17
41.980        20
42.000        27
42.020        20
42.040        13
42.060        17
42.080        23
42.100        20
42.120        17
42.140        37
42.160        17
42.180        17
42.200        20
42.220        17
42.240        27
42.260        17
42.280         7
42.300        27
42.320        33
42.340        13
42.360        23
42.380        20
42.400        23
42.420        33
42.440        47
42.460        20
42.480         7
42.500        17
42.520        23
42.540        20
42.560        33
42.580        20
42.600        13
42.620        10
42.640        20
42.660        37
42.680        20
42.700        20
42.720        13
42.740        17
42.760        13
42.780        37
42.800        37
42.820        30
42.840        17
42.860        23
42.880        30
42.900        20
42.920        40
42.940        30
42.960        13
42.980        37
43.000        37
43.020        40
43.040        47
43.060        33
43.080        30
43.100        13
43.120        13
43.140        17
43.160        27
43.180        27
43.200        17
43.220        30
43.240        37
43.260        17
43.280        20
43.300        30
43.320        20
43.340         3
43.360        20
43.380        17
43.400        40
43.420        27
43.440        13
43.460        17
43.480        30
43.500        20
43.520        13
43.540        13
43.560        23
43.580        20
43.600        13
43.620        20
43.640        17
43.660        23
43.680        20
43.700        23
43.720        23
43.740        27
43.760        30
43.780        23
43.800        33
43.820        27
43.840        33
43.860        23
43.880        23
43.900        50
43.920        30
43.940        27
43.960        67
43.980        47
44.000        73
44.020        47
44.040        50
44.060        60
44.080        70
44.100        67
44.120        53
44.140        60
44.160        27
44.180        53
44.200        33
44.220        37
44.240        23
44.260        40
44.280        13
44.300        33
44.320        27
44.340        37
44.360        23
44.380        17
44.400        47
44.420        23
44.440        30
44.460        30
44.480        10
44.500        30
44.520        17
44.540        20
44.560        23
44.580        10
44.600        33
44.620        20
44.640        20
44.660        17
44.680        13
44.700        13
44.720        37
44.740        13
44.760        10
44.780        13
44.800        23
44.820        17
44.840        30
44.860        10
44.880        20
44.900        23
44.920        20
44.940        30
44.960        27
44.980        17
45.000        20
45.020        17
45.040        13
45.060        13
45.080        20
45.100        27
45.120        30
45.140        27
45.160        40
45.180         3
45.200        30
45.220        37
45.240        27
45.260        20
45.280        33
45.300        13
45.320        23
45.340        13
45.360        27
45.380        27
45.400        20
45.420        10
45.440        23
45.460        27
45.480        30
45.500        17
45.520        13
45.540         7
45.560        20
45.580        17
45.600        17
45.620        20
45.640        20
45.660        37
45.680        10
45.700        23
45.720        17
45.740        23
45.760        33
45.780        10
45.800        20
45.820        20
45.840        13
45.860        23
45.880        27
45.900        37
45.920        27
45.940        13
45.960        13
45.980        17
46.000        13
46.020        10
46.040        17
46.060        13
46.080        13
46.100        13
46.120        33
46.140        10
46.160        13
46.180        30
46.200        20
46.220        20
46.240        20
46.260         7
46.280        17
46.300        30
46.320        17
46.340        20
46.360        27
46.380        17
46.400         7
46.420        20
46.440        17
46.460        17
46.480        23
46.500        13
46.520        20
46.540        20
46.560        23
46.580         7
46.600        27
46.620        13
46.640        20
46.660        13
46.680        23
46.700        17
46.720        23
46.740        10
46.760        27
46.780        20
46.800        27
46.820        17
46.840        30
46.860        27
46.880        40
46.900        17
46.920        20
46.940        17
46.960        13
46.980        23
47.000        27
47.020        13
47.040        13
47.060        43
47.080        30
47.100        30
47.120        13
47.140        30
47.160        17
47.180        20
47.200        27
47.220        40
47.240        33
47.260        37
47.280        47
47.300        47
47.320        37
47.340        37
47.360        47
47.380        40
47.400        10
47.420        33
47.440        13
47.460        40
47.480        37
47.500        27
47.520        20
47.540         7
47.560        13
47.580        13
47.600        23
47.620        37
47.640        13
47.660        20
47.680        17
47.700        30
47.720        13
47.740        50
47.760        27
47.780        20
47.800        40
47.820        10
47.840        17
47.860        20
47.880        30
47.900        30
47.920        33
47.940        33
47.960        13
47.980        30
48.000        20
48.020         0
48.040        30
48.060        20
48.080        33
48.100        27
48.120        27
48.140        17
48.160        20
48.180        30
48.200        17
48.220        30
48.240        27
48.260        47
48.280        23
48.300        20
48.320        37
48.340        47
48.360        37
48.380        23
48.400        37
48.420        13
48.440        17
48.460        23
48.480        27
48.500        47
48.520        17
48.540        23
48.560        10
48.580        17
48.600        17
48.620        20
48.640        17
48.660        20
48.680        17
48.700        30
48.720        17
48.740        20
48.760        20
48.780        23
48.800        17
48.820        20
48.840        13
48.860        20
48.880        23
48.900        20
48.920        13
48.940        20
48.960        23
48.980        20
49.000        13
49.020         3
49.040        13
49.060        17
49.080        23
49.100        10
49.120        13
49.140        23
49.160        17
49.180        17
49.200        17
49.220        20
49.240        17
49.260        17
49.280        10
49.300        10
49.320         7
49.340        33
49.360        17
49.380        20
49.400        17
49.420        20
49.440        13
49.460        30
49.480        33
49.500        20
49.520        17
49.540        13
49.560        37
49.580        20
49.600        13
49.620        13
49.640        10
49.660        10
49.680        10
49.700        17
49.720        43
49.740        10
49.760         3
49.780         7
49.800        23
49.820        37
49.840         7
49.860        30
49.880        23
49.900        27
49.920        27
49.940        27
49.960        20
49.980         7
50.000         7
50.020        20
50.040        10
50.060        13
50.080        23
50.100        23
50.120        23
50.140        13
50.160        17
50.180         7
50.200        33
50.220        20
50.240        10
50.260        17
50.280        13
50.300        30
50.320        27
50.340        37
50.360        23
50.380        17
50.400        10
50.420        17
50.440        10
50.460        17
50.480        10
50.500         3
50.520        27
50.540        17
50.560        23
50.580        33
50.600        23
50.620        17
50.640        13
50.660        20
50.680        20
50.700        10
50.720        40
50.740        27
50.760        20
50.780        33
50.800        10
50.820        13
50.840        20
50.860        40
50.880        13
50.900        23
50.920        27
50.940        37
50.960        23
50.980        20
51.000         7
51.020        17
51.040        10
51.060        33
51.080        13
51.100        23
51.120        17
51.140        30
51.160         3
51.180        27
51.200        13
51.220        17
51.240        20
51.260         7
51.280        23
51.300        20
51.320        23
51.340        23
51.360        23
51.380        33
51.400        13
51.420        13
51.440         7
51.460        23
51.480        33
51.500        30
51.520        23
51.540        10
51.560        17
51.580        17
51.600        30
51.620        13
51.640        20
51.660        10
51.680        23
51.700         7
51.720        13
51.740        23
51.760         7
51.780        27
51.800        17
51.820        17
51.840         3
51.860        20
51.880        23
51.900        17
51.920        20
51.940        27
51.960        27
51.980        23
52.000        33
52.020        17
52.040        20
52.060        17
52.080        20
52.100        17
52.120        20
52.140        30
52.160        10
52.180        33
52.200        17
52.220        23
52.240        27
52.260        37
52.280        27
52.300        17
52.320        37
52.340        43
52.360        37
52.380        37
52.400        43
52.420        37
52.440        57
52.460        37
52.480        70
52.500        53
52.520        70
52.540        83
52.560       113
52.580       103
52.600       100
52.620        90
52.640        67
52.660        63
52.680       100
52.700        67
52.720        63
52.740        87
52.760        60
52.780        50
52.800        63
52.820        27
52.840        40
52.860        50
52.880        27
52.900         7
52.920        20
52.940        20
52.960        27
52.980        27
53.000        27
53.020        40
53.040        30
53.060        17
53.080        50
53.100        23
53.120        27
53.140        17
53.160        33
53.180        10
53.200         0
53.220        13
53.240        27
53.260        10
53.280        27
53.300        17
53.320        13
53.340        23
53.360        27
53.380        37
53.400        17
53.420        37
53.440        10
53.460        30
53.480        23
53.500        20
53.520        20
53.540        23
53.560        70
53.580        17
53.600        13
53.620        13
53.640        10
53.660        13
53.680        10
53.700        17
53.720        20
53.740        20
53.760        20
53.780         7
53.800        27
53.820        27
53.840         3
53.860        30
53.880        13
53.900        23
53.920        17
53.940        17
53.960        23
53.980        43
54.000        13
54.020        23
54.040        40
54.060        17
54.080        20
54.100        23
54.120        20
54.140        13
54.160         7
54.180        23
54.200        13
54.220        17
54.240        17
54.260         7
54.280         3
54.300        27
54.320        20
54.340        27
54.360         7
54.380        23
54.400        23
54.420         7
54.440        30
54.460        20
54.480        20
54.500        27
54.520        33
54.540        23
54.560        27
54.580        30
54.600        67
54.620        73
54.640        73
54.660        53
54.680        63
54.700        57
54.720        80
54.740        67
54.760        47
54.780        53
54.800        57
54.820        47
54.840        60
54.860        40
54.880        50
54.900        37
54.920        20
54.940        17
54.960        23
54.980        23
55.000        20
55.020        33
55.040        23
55.060        30
55.080        17
55.100         7
55.120        33
55.140        17
55.160        17
55.180        17
55.200        17
55.220         7
55.240        13
55.260        17
55.280        17
55.300        23
55.320         3
55.340        27
55.360        40
55.380        17
55.400         3
55.420        37
55.440        13
55.460        10
55.480        17
55.500        43
55.520        33
55.540        13
55.560        37
55.580        13
55.600        10
55.620        27
55.640        13
55.660        20
55.680        20
55.700        37
55.720         3
55.740        23
55.760        27
55.780        13
55.800        23
55.820        13
55.840        13
55.860        17
55.880        17
55.900        27
55.920        17
55.940        20
55.960         7
55.980        13
56.000        20
56.020        17
56.040        10
56.060        20
56.080         7
56.100        23
56.120         3
56.140        13
56.160        20
56.180        10
56.200         3
56.220        27
56.240        27
56.260        23
56.280        27
56.300        17
56.320        20
56.340        20
56.360        27
56.380        27
56.400        17
56.420        27
56.440        20
56.460        30
56.480        10
56.500        17
56.520        30
56.540        20
56.560        13
56.580        13
56.600        27
56.620        17
56.640        23
56.660        20
56.680         3
56.700         7
56.720        13
56.740        17
56.760        13
56.780        13
56.800        13
56.820         3
56.840        23
56.860        13
56.880        10
56.900        13
56.920        20
56.940        17
56.960        17
56.980        13
57.000        17
57.020         7
57.040        23
57.060        13
57.080        30
57.100        23
57.120        23
57.140        27
57.160        30
57.180        23
57.200        13
57.220        30
57.240        20
57.260        50
57.280        33
57.300        27
57.320        13
57.340        40
57.360        17
57.380        30
57.400         7
57.420        20
57.440         7
57.460        13
57.480        17
57.500        20
57.520        10
57.540         3
57.560        20
57.580        27
57.600        10
57.620        30
57.640        23
57.660        23
57.680        10
57.700        10
57.720        17
57.740        17
57.760        20
57.780        20
57.800        10
57.820        13
57.840        20
57.860        10
57.880         3
57.900        10
57.920        27
57.940        27
57.960        23
57.980        17
58.000        10
58.020         7
58.040        20
58.060        33
58.080        13
58.100        10
58.120         7
58.140        13
58.160        23
58.180         7
58.200        10
58.220        17
58.240        13
58.260        27
58.280        20
58.300        10
58.320        17
58.340        20
58.360        10
58.380         3
58.400        10
58.420        13
58.440        17
58.460        20
58.480         3
58.500        17
58.520        10
58.540        13
58.560        20
58.580        13
58.600        17
58.620        10
58.640        27
58.660        17
58.680        27
58.700         7
58.720         7
58.740        10
58.760        13
58.780        20
58.800        20
58.820        23
58.840        20
58.860        20
58.880         7
58.900         3
58.920        13
58.940         7
58.960        30
58.980        13
59.000         7
59.020        17
59.040        13
59.060        13
59.080        13
59.100        20
59.120         7
59.140        10
59.160        23
59.180        13
59.200        13
59.220        10
59.240        17
59.260        10
59.280        20
59.300        20
59.320        17
59.340        20
59.360         7
59.380        13
59.400         3
59.420        10
59.440         7
59.460        17
59.480        13
59.500        10
59.520        13
59.540        20
59.560        10
59.580        13
59.600        13
59.620        20
59.640        17
59.660        17
59.680        23
59.700         3
59.720        20
59.740        10
59.760        17
59.780         3
59.800        13
59.820        23
59.840        30
59.860        23
59.880         3
59.900        23
59.920        13
59.940        10
59.960         3
59.980        23
60.000        23
