20.000        13
20.020        60
20.040        47
20.060        47
20.080        20
20.100        67
20.120        47
20.140        40
20.160        13
20.180        53
20.200        27
20.220        60
20.240        53
20.260        60
20.280        73
20.300        20
20.320        47
20.340        27
20.360        47
20.380        40
20.400        33
20.420        20
20.440        33
20.460        40
20.480        80
20.500        47
20.520        20
20.540        53
20.560        27
20.580        47
20.600        60
20.620        33
20.640        40
20.660        33
20.680        33
20.700        33
20.720        20
20.740        27
20.760        13
20.780        53
20.800        20
20.820        87
20.840        33
20.860        53
20.880        53
20.900        27
20.920        27
20.940        33
20.960        27
20.980        27
21.000        33
21.020        27
21.040        40
21.060        53
21.080        47
21.100        33
21.120        53
21.140        33
21.160        27
21.180        60
21.200        53
21.220        80
21.240        47
21.260        80
21.280        20
21.300        27
21.320        40
21.340        40
21.360        60
21.380        33
21.400        53
21.420        53
21.440        53
21.460        33
21.480        40
21.500        40
21.520        47
21.540        53
21.560        67
21.580        27
21.600        20
21.620        40
21.640        27
21.660        33
21.680        33
21.700        20
21.720        47
21.740        33
21.760        40
21.780        47
21.800        47
21.820        27
21.840        13
21.860        60
21.880        40
21.900        27
21.920        53
21.940         7
21.960        20
21.980         0
22.000        20
22.020        60
22.040        47
22.060         0
22.080        60
22.100        60
22.120        27
22.140        73
22.160        27
22.180        47
22.200        20
22.220        47
22.240        33
22.260        33
22.280        33
22.300        47
22.320        20
22.340        27
22.360        40
22.380        33
22.400        27
22.420        20
22.440        27
22.460        20
22.480        20
22.500        20
22.520        27
22.540        33
22.560        13
22.580        33
22.600        33
22.620        33
22.640        40
22.660        13
22.680        13
22.700        20
22.720        27
22.740        27
22.760        53
22.780        73
22.800        53
22.820        20
22.840        20
22.860        87
22.880        40
22.900        13
22.920        40
22.940        20
22.960        20
22.980        33
23.000        27
23.020        33
23.040        27
23.060        20
23.080        27
23.100        20
23.120        33
23.140        20
23.160        20
23.180        20
23.200        27
23.220        40
23.240        27
23.260        40
23.280        33
23.300        47
23.320        47
23.340        33
23.360        33
23.380        13
23.400        27
23.420        33
23.440        60
23.460        53
23.480        33
23.500        20
23.520        33
23.540        27
23.560        67
23.580        47
23.600        33
23.620        20
23.640        13
23.660        20
23.680        33
23.700        53
23.720        47
23.740        13
23.760        13
23.780        27
23.800        13
23.820        47
23.840        20
23.860        13
23.880        20
23.900        47
23.920        73
23.940        33
23.960        40
23.980        20
24.000        47
24.020        20
24.040        40
24.060        73
24.080        27
24.100        40
24.120        40
24.140         0
24.160        53
24.180        20
24.200        20
24.220        20
24.240        27
24.260        33
24.280        53
24.300        40
24.320        13
24.340        40
24.360        40
24.380        27
24.400        40
24.420        33
24.440        47
24.460        33
24.480        33
24.500        33
24.520        20
24.540        40
24.560        40
24.580        40
24.600        53
24.620        27
24.640        33
24.660        53
24.680        33
24.700        67
24.720        33
24.740        47
24.760        33
24.780        40
24.800        60
24.820        40
24.840        40
24.860        53
24.880        40
24.900        53
24.920        20
24.940        40
24.960        40
24.980        13
25.000        20
25.020        33
25.040        53
25.060        13
25.080        33
25.100        40
25.120        33
25.140        33
25.160        27
25.180        53
25.200         7
25.220        47
25.240        53
25.260        47
25.280        53
25.300        40
25.320         7
25.340        20
25.360        13
25.380        27
25.400        13
25.420        53
25.440        40
25.460        40
25.480        40
25.500         7
25.520        20
25.540        20
25.560        93
25.580        80
25.600        93
25.620        67
25.640       107
25.660       100
25.680        67
25.700        47
25.720         7
25.740         7
25.760        60
25.780        20
25.800        40
25.820        27
25.840        20
25.860        27
25.880        13
25.900        27
25.920        47
25.940        40
25.960        33
25.980        13
26.000        13
26.020        60
26.040        33
26.060        33
26.080        33
26.100        33
26.120        13
26.140        13
26.160        27
26.180        33
26.200        20
26.220        27
26.240        13
26.260        47
26.280        53
26.300        40
26.320        27
26.340        47
26.360        13
26.380        27
26.400        20
26.420        60
26.440        33
26.460        47
26.480        27
26.500        20
26.520         0
26.540        13
26.560        33
26.580        33
26.600        27
26.620        20
26.640        33
26.660        20
26.680        13
26.700        27
26.720         0
26.740        20
26.760        20
26.780        20
26.800        13
26.820        20
26.840        27
26.860        27
26.880        20
26.900        20
26.920        53
26.940        33
26.960        47
26.980        67
27.000        13
27.020        20
27.040        13
27.060        33
27.080         7
27.100        27
27.120        27
27.140        27
27.160        20
27.180        40
27.200        27
27.220        13
27.240        20
27.260        20
27.280        27
27.300        27
27.320        27
27.340        20
27.360        20
27.380        20
27.400        27
27.420        27
27.440        13
27.460        20
27.480        33
27.500        47
27.520        13
27.540        13
27.560        33
27.580        20
27.600         0
27.620        13
27.640        27
27.660        33
27.680        47
27.700        33
27.720        13
27.740        47
27.760        20
27.780        20
27.800        13
27.820        47
27.840        20
27.860        27
27.880        27
27.900        53
27.920        27
27.940        33
27.960        27
27.980        13
28.000        27
28.020        53
28.040        27
28.060        27
28.080        20
28.100        33
28.120        47
28.140         7
28.160        33
28.180        13
28.200        13
28.220        20
28.240        40
28.260        33
28.280        27
28.300        20
28.320        13
28.340        13
28.360        27
28.380        27
28.400        27
28.420        33
28.440        20
28.460        40
28.480        13
28.500        13
28.520         7
28.540        33
28.560        27
28.580         7
28.600        27
28.620         7
28.640        13
28.660        20
28.680        27
28.700         7
28.720        27
28.740        20
28.760        53
28.780        47
28.800        27
28.820        27
28.840        33
28.860        40
28.880        13
28.900        47
28.920        47
28.940        27
28.960        33
28.980        20
29.000        27
29.020        40
29.040        40
29.060        40
29.080         7
29.100        47
29.120       100
29.140        47
29.160        60
29.180        60
29.200        67
29.220        47
29.240        40
29.260        33
29.280        20
29.300        33
29.320        40
29.340        20
29.360        33
29.380        20
29.400        20
29.420        20
29.440        13
29.460        13
29.480        27
29.500        13
29.520        33
29.540        13
29.560         7
29.580         7
29.600        40
29.620        20
29.640        33
29.660        53
29.680         7
29.700         7
29.720        33
29.740        33
29.760        27
29.780        27
29.800        13
29.820         7
29.840         7
29.860         0
29.880        40
29.900        27
29.920        20
29.940         7
29.960         7
29.980        33
30.000         7
30.020         0
30.040         7
30.060        13
30.080         7
30.100        27
30.120        33
30.140        27
30.160        20
30.180        33
30.200        13
30.220        20
30.240        20
30.260        13
30.280        33
30.300        33
30.320        13
30.340        40
30.360        33
30.380        33
30.400        20
30.420         7
30.440        20
30.460         7
30.480        20
30.500        33
30.520        20
30.540        27
30.560         0
30.580        13
30.600        33
30.620         0
30.640        27
30.660        27
30.680        27
30.700        20
30.720        27
30.740        13
30.760        13
30.780        47
30.800        27
30.820        40
30.840         7
30.860        20
30.880        33
30.900        20
30.920         0
30.940        27
30.960        20
30.980         7
31.000        20
31.020         7
31.040        13
31.060        27
31.080         0
31.100        13
31.120        40
31.140        20
31.160        60
31.180        27
31.200         0
31.220        20
31.240        27
31.260        20
31.280        60
31.300        40
31.320        33
31.340        20
31.360         0
31.380        40
31.400        27
31.420        20
31.440         7
31.460        27
31.480        40
31.500        13
31.520        33
31.540        33
31.560         0
31.580        40
31.600        27
31.620        27
31.640        27
31.660        20
31.680        13
31.700        47
31.720        20
31.740        27
31.760        33
31.780        13
31.800        33
31.820        20
31.840         7
31.860         7
31.880        33
31.900        13
31.920        20
31.940        20
31.960        20
31.980        27
32.000        40
32.020         7
32.040        20
32.060        20
32.080        33
32.100        33
32.120        40
32.140        27
32.160        40
32.180         7
32.200        13
32.220        13
32.240         7
32.260         7
32.280        40
32.300        40
32.320        13
32.340        33
32.360        20
32.380        33
32.400        13
32.420         7
32.440        13
32.460        27
32.480        47
32.500        20
32.520        20
32.540        13
32.560        20
32.580        20
32.600        13
32.620         7
32.640        27
32.660        13
32.680         0
32.700        20
32.720         7
32.740        27
32.760        20
32.780        13
32.800         7
32.820        20
32.840        20
32.860        20
32.880        20
32.900        13
32.920        13
32.940         7
32.960        20
32.980        33
33.000         7
33.020         0
33.040        13
33.060         7
33.080        13
33.100        47
33.120        20
33.140         7
33.160        40
33.180        20
33.200        13
33.220        20
33.240         0
33.260        27
33.280        27
33.300        20
33.320         7
33.340        20
33.360        27
33.380        20
33.400        13
33.420        13
33.440        13
33.460        13
33.480        13
33.500        33
33.520        20
33.540        20
33.560         7
33.580         7
33.600        27
33.620        13
33.640        27
33.660        40
33.680        20
33.700        27
33.720        20
33.740        27
33.760        13
33.780         0
33.800        33
33.820        13
33.840        13
33.860        20
33.880        20
33.900        40
33.920        27
33.940        40
33.960        27
33.980        20
34.000        20
34.020        20
34.040         7
34.060         7
34.080        27
34.100        13
34.120         7
34.140        20
34.160        13
34.180        27
34.200         7
34.220         7
34.240        40
34.260        27
34.280        20
34.300         0
34.320        20
34.340        33
34.360        13
34.380        13
34.400        13
34.420        20
34.440         7
34.460         7
34.480        20
34.500        27
34.520        27
34.540         7
34.560         7
34.580         7
34.600        27
34.620         7
34.640         7
34.660         7
34.680        13
34.700        13
34.720         0
34.740         7
34.760        13
34.780        47
34.800        13
34.820        27
34.840        20
34.860        33
34.880        40
34.900        27
34.920        20
34.940        33
34.960        27
34.980        20
35.000        27
35.020        20
35.040         7
35.060        13
35.080        33
35.100        27
35.120        53
35.140        27
35.160        20
35.180        33
35.200        33
35.220         7
35.240        20
35.260        20
35.280        33
35.300         7
35.320        33
35.340        13
35.360        13
35.380        13
35.400        27
35.420        27
35.440         7
35.460         7
35.480        27
35.500        13
35.520         7
35.540         0
35.560        13
35.580         7
35.600        33
35.620        20
35.640        27
35.660        20
35.680        13
35.700        40
35.720        33
35.740        47
35.760        60
35.780        20
35.800        27
35.820        13
35.840        20
35.860        20
35.880        13
35.900        20
35.920        27
35.940         7
35.960         0
35.980        13
36.000        13
36.020        13
36.040        13
36.060        13
36.080        20
36.100        20
36.120        13
36.140         0
36.160         7
36.180        20
36.200        40
36.220        13
36.240        13
36.260        13
36.280         0
36.300        13
36.320         7
36.340         7
36.360         7
36.380        20
36.400        27
36.420        27
36.440        20
36.460        20
36.480         7
36.500        13
36.520         7
36.540        33
36.560         7
36.580        27
36.600        53
36.620         7
36.640         0
36.660         7
36.680         7
36.700        47
36.720         7
36.740         0
36.760        13
36.780        33
36.800        27
36.820        27
36.840        13
36.860        33
36.880        13
36.900        13
36.920        40
36.940        20
36.960        13
36.980         7
37.000        13
37.020        20
37.040        13
37.060         7
37.080        27
37.100        20
37.120         0
37.140         7
37.160         7
37.180        33
37.200        27
37.220        47
37.240        13
37.260        13
37.280         7
37.300         0
37.320         7
37.340        27
37.360         0
37.380         0
37.400        27
37.420        33
37.440        27
37.460        20
37.480        13
37.500        20
37.520        47
37.540        13
37.560        13
37.580        33
37.600        13
37.620         0
37.640        40
37.660        13
37.680        40
37.700        13
37.720        20
37.740        13
37.760        13
37.780        33
37.800         7
37.820         7
37.840        27
37.860        13
37.880        13
37.900        13
37.920         0
37.940        13
37.960         7
37.980        33
38.000        27
38.020        33
38.040        13
38.060         0
38.080        13
38.100        20
38.120         7
38.140         7
38.160        20
38.180        13
38.200        20
38.220        40
38.240        13
38.260         0
38.280        80
38.300         7
38.320        13
38.340        20
38.360        40
38.380        27
38.400        27
38.420        20
38.440         0
38.460        13
38.480        13
38.500         7
38.520        47
38.540        33
38.560        13
38.580        33
38.600        20
38.620        47
38.640        20
38.660         7
38.680        20
38.700         7
38.720        27
38.740        13
38.760        27
38.780        20
38.800        27
38.820        27
38.840        13
38.860        13
38.880         7
38.900        13
38.920        20
38.940        60
38.960        47
38.980        20
39.000        40
39.020        33
39.040        13
39.060        20
39.080        20
39.100        20
39.120        13
39.140        27
39.160        60
39.180        27
39.200        33
39.220        27
39.240        27
39.260        47
39.280        20
39.300        20
39.320         7
39.340        47
39.360        13
39.380         7
39.400         0
39.420        20
39.440        27
39.460        33
39.480        13
39.500        27
39.520        20
39.540        20
39.560        13
39.580        13
39.600        33
39.620         7
39.640        33
39.660         7
39.680        27
39.700        53
39.720        13
39.740        13
39.760         7
39.780        27
39.800         7
39.820         0
39.840         0
39.860        13
39.880         7
39.900         7
39.920        27
39.940        20
39.960        20
39.980        13
40.000        13
40.020        13
40.040        13
40.060        20
40.080        20
40.100        13
40.120        13
40.140        40
40.160        13
40.180        13
40.200         7
40.220        27
40.240        20
40.260        20
40.280        47
40.300         7
40.320         0
40.340        13
40.360        20
40.380        20
40.400         7
40.420        27
40.440        47
40.460        20
40.480        27
40.500        33
40.520        20
40.540        20
40.560        13
40.580        20
40.600        20
40.620        27
40.640        20
40.660        20
40.680        33
40.700        47
40.720        27
40.740        13
40.760         0
40.780        27
40.800        20
40.820         7
40.840        27
40.860        20
40.880        13
40.900        13
40.920         7
40.940         7
40.960        20
40.980        13
41.000        20
41.020         0
41.040        27
41.060        13
41.080        27
41.100        40
41.120         7
41.140         7
41.160        20
41.180        27
41.200         0
41.220        13
41.240         7
41.260        47
41.280        13
41.300        13
41.320         7
41.340         7
41.360         0
41.380        33
41.400         7
41.420         7
41.440        20
41.460         7
41.480        13
41.500         7
41.520        27
41.540        13
41.560        27
41.580        13
41.600        13
41.620        20
41.640        53
41.660        20
41.680        13
41.700         0
41.720         7
41.740        13
41.760        20
41.780        13
41.800        13
41.820        33
41.840        20
41.860        27
41.880        27
41.900        20
41.920        13
41.940         0
41.960        40
41.980        20
42.000        13
42.020        33
42.040        20
42.060        40
42.080        40
42.100        27
42.120        33
42.140        20
42.160        13
42.180        20
42.200        33
42.220        13
42.240         7
42.260        20
42.280        20
42.300        13
42.320        27
42.340        33
42.360         7
42.380         7
42.400         7
42.420         7
42.440        20
42.460        27
42.480        20
42.500        27
42.520        20
42.540        20
42.560        40
42.580        20
42.600        20
42.620        33
42.640        20
42.660        20
42.680        27
42.700         7
42.720         0
42.740        13
42.760        13
42.780        13
42.800        13
42.820        13
42.840        20
42.860        20
42.880        27
42.900        20
42.920        33
42.940        33
42.960        33
42.980        33
43.000        27
43.020        27
43.040        20
43.060        27
43.080        27
43.100        33
43.120        27
43.140        27
43.160        20
43.180        27
43.200        13
43.220         7
43.240        33
43.260         7
43.280        27
43.300        20
43.320        13
43.340         0
43.360         0
43.380        27
43.400        13
43.420        13
43.440         7
43.460         7
43.480        20
43.500         7
43.520        20
43.540        13
43.560        33
43.580        13
43.600        20
43.620        13
43.640         0
43.660        27
43.680        13
43.700         7
43.720         7
43.740        27
43.760        13
43.780         7
43.800         7
43.820         7
43.840        27
43.860        27
43.880        13
43.900        20
43.920        33
43.940        27
43.960        20
43.980        33
44.000        20
44.020        20
44.040        33
44.060        40
44.080         7
44.100        13
44.120         0
44.140        13
44.160        13
44.180        13
44.200        20
44.220         0
44.240        20
44.260         7
44.280         7
44.300        33
44.320         7
44.340         7
44.360         7
44.380        40
44.400         7
44.420        20
44.440        20
44.460         7
44.480         7
44.500        33
44.520        53
44.540        20
44.560        20
44.580        27
44.600        20
44.620        20
44.640        40
44.660        13
44.680        27
44.700        13
44.720         7
44.740        27
44.760         7
44.780        20
44.800        20
44.820         7
44.840         0
44.860        33
44.880        20
44.900         7
44.920         0
44.940        27
44.960        20
44.980        20
45.000        13
45.020         7
45.040        47
45.060        20
45.080         7
45.100        27
45.120         7
45.140        27
45.160        13
45.180        20
45.200         7
45.220        27
45.240        20
45.260        27
45.280         0
45.300        27
45.320        33
45.340        13
45.360        20
45.380        40
45.400         7
45.420        33
45.440        27
45.460        13
45.480        20
45.500        33
45.520        20
45.540        13
45.560        33
45.580         7
45.600        27
45.620        13
45.640        20
45.660        20
45.680        33
45.700        33
45.720        20
45.740         7
45.760        27
45.780        40
45.800        20
45.820        40
45.840        20
45.860        27
45.880        47
45.900        20
45.920        33
45.940        27
45.960        40
45.980        20
46.000         7
46.020         0
46.040        20
46.060        27
46.080        33
46.100        13
46.120        33
46.140        20
46.160        20
46.180         7
46.200        13
46.220        20
46.240         7
46.260        20
46.280         7
46.300        27
46.320         0
46.340        20
46.360         0
46.380        20
46.400        47
46.420        20
46.440        13
46.460         0
46.480        27
46.500         7
46.520        13
46.540        33
46.560        40
46.580        13
46.600        33
46.620        13
46.640        13
46.660        40
46.680        40
46.700        13
46.720        13
46.740        20
46.760        20
46.780        20
46.800        27
46.820        20
46.840        33
46.860        47
46.880        20
46.900         7
46.920        33
46.940        27
46.960        20
46.980        27
47.000        13
47.020        27
47.040        13
47.060        27
47.080        33
47.100        13
47.120        40
47.140        27
47.160        53
47.180        20
47.200        53
47.220        53
47.240        40
47.260        33
47.280        40
47.300        33
47.320        40
47.340        40
47.360        33
47.380        33
47.400        73
47.420        13
47.440        33
47.460        27
47.480        27
47.500        27
47.520        20
47.540        33
47.560        20
47.580        27
47.600        20
47.620         7
47.640        40
47.660        20
47.680        27
47.700        33
47.720        27
47.740        20
47.760        20
47.780        13
47.800        13
47.820        40
47.840        20
47.860         7
47.880        33
47.900        40
47.920        33
47.940        20
47.960        13
47.980         7
48.000        20
48.020        33
48.040        13
48.060        27
48.080        20
48.100        13
48.120         7
48.140        47
48.160        40
48.180        13
48.200        20
48.220        27
48.240        27
48.260        67
48.280        60
48.300        40
48.320        40
48.340        20
48.360        13
48.380        13
48.400        47
48.420        27
48.440        27
48.460        47
48.480        53
48.500        47
48.520        13
48.540        27
48.560        40
48.580        20
48.600        13
48.620        13
48.640        13
48.660        13
48.680        20
48.700        40
48.720        33
48.740        40
48.760        40
48.780        33
48.800        33
48.820        13
48.840         7
48.860        13
48.880         7
48.900         7
48.920         0
48.940         0
48.960         7
48.980        13
49.000        33
49.020        20
49.040        27
49.060        27
49.080        33
49.100        47
49.120        27
49.140        27
49.160        20
49.180        20
49.200        20
49.220        33
49.240         0
49.260        33
49.280        20
49.300         7
49.320        47
49.340         0
49.360        40
49.380        13
49.400        13
49.420         7
49.440        20
49.460        20
49.480        27
49.500         0
49.520        13
49.540        20
49.560         7
49.580        27
49.600        47
49.620        33
49.640        13
49.660        20
49.680        20
49.700        20
49.720        33
49.740        20
49.760        27
49.780         7
49.800         7
49.820        27
49.840         7
49.860        33
49.880         0
49.900         7
49.920        33
49.940        20
49.960        20
49.980         7
50.000        13
50.020         7
50.040        13
50.060        33
50.080        47
50.100        13
50.120        13
50.140        27
50.160        13
50.180        20
50.200        40
50.220        33
50.240        13
50.260        13
50.280        20
50.300        27
50.320         0
50.340        20
50.360        27
50.380        20
50.400        13
50.420         7
50.440         7
50.460         0
50.480        27
50.500        33
50.520        13
50.540        33
50.560        27
50.580        27
50.600        27
50.620        47
50.640        27
50.660        20
50.680        40
50.700        47
50.720        33
50.740        33
50.760        33
50.780        27
50.800         7
50.820         7
50.840        33
50.860        20
50.880        27
50.900         7
50.920        20
50.940        20
50.960        27
50.980        20
51.000        20
51.020         7
51.040        27
51.060        20
51.080        47
51.100         7
51.120        33
51.140        33
51.160        47
51.180        33
51.200        27
51.220        27
51.240         7
51.260         7
51.280        33
51.300        33
51.320        20
51.340        27
51.360        40
51.380         0
51.400        27
51.420         7
51.440        13
51.460        40
51.480         7
51.500        33
51.520        20
51.540        13
51.560        33
51.580        40
51.600        40
51.620        27
51.640        27
51.660        47
51.680        27
51.700        33
51.720        20
51.740        20
51.760        27
51.780        27
51.800         7
51.820        33
51.840        27
51.860        33
51.880        33
51.900        40
51.920        40
51.940        53
51.960        40
51.980        20
52.000        33
52.020        27
52.040        33
52.060        33
52.080        13
52.100        60
52.120        60
52.140        20
52.160        20
52.180        47
52.200        60
52.220        20
52.240        20
52.260        40
52.280        47
52.300        20
52.320        53
52.340        47
52.360        53
52.380         0
52.400        53
52.420        60
52.440        40
52.460        80
52.480        47
52.500        60
52.520       113
52.540       187
52.560       173
52.580       180
52.600       120
52.620       107
52.640        93
52.660        53
52.680        93
52.700       167
52.720        87
52.740        87
52.760       127
52.780        13
52.800        60
52.820        53
52.840        53
52.860        13
52.880         0
52.900        60
52.920        33
52.940        47
52.960        13
52.980        60
53.000        27
53.020        27
53.040        33
53.060        33
53.080        60
53.100        33
53.120        13
53.140        47
53.160        27
53.180        27
53.200        53
53.220        33
53.240        60
53.260        27
53.280        73
53.300        13
53.320         7
53.340        47
53.360        13
53.380        20
53.400        33
53.420        13
53.440        20
53.460        13
53.480        33
53.500        47
53.520        13
53.540        33
53.560        13
53.580        13
53.600        53
53.620        47
53.640         7
53.660        13
53.680        40
53.700        40
53.720         0
53.740        13
53.760         0
53.780        27
53.800        20
53.820        27
53.840        33
53.860        27
53.880        33
53.900        33
53.920         7
53.940         7
53.960        20
53.980        13
54.000        27
54.020        13
54.040        20
54.060        33
54.080        27
54.100        20
54.120        27
54.140        27
54.160        27
54.180         7
54.200        27
54.220        13
54.240        13
54.260        20
54.280        20
54.300        13
54.320        33
54.340        13
54.360        27
54.380         7
54.400        27
54.420        13
54.440        20
54.460        33
54.480        40
54.500         7
54.520        27
54.540        27
54.560        13
54.580        13
54.600        27
54.620        13
54.640        27
54.660        33
54.680        13
54.700        27
54.720         0
54.740        13
54.760         0
54.780         7
54.800        60
54.820        27
54.840        27
54.860        40
54.880        20
54.900        27
54.920        20
54.940        13
54.960         0
54.980        33
55.000        27
55.020        33
55.040         7
55.060         7
55.080        40
55.100         7
55.120        47
55.140        47
55.160        20
55.180        40
55.200        13
55.220        27
55.240        13
55.260         0
55.280         7
55.300        20
55.320        13
55.340        13
55.360         0
55.380        33
55.400         7
55.420        13
55.440         7
55.460         7
55.480         7
55.500        47
55.520        20
55.540        13
55.560         7
55.580        27
55.600         7
55.620        13
55.640        20
55.660        20
55.680         7
55.700        20
55.720        13
55.740        33
55.760        40
55.780        27
55.800         7
55.820        33
55.840        13
55.860        27
55.880        20
55.900        13
55.920        20
55.940         7
55.960        27
55.980        20
56.000        20
56.020        40
56.040        13
56.060        20
56.080         7
56.100        27
56.120        20
56.140        13
56.160        20
56.180        20
56.200        20
56.220        20
56.240         7
56.260        27
56.280        27
56.300        53
56.320        47
56.340        33
56.360        33
56.380        33
56.400        20
56.420        20
56.440         0
56.460         7
56.480         7
56.500        33
56.520        20
56.540        40
56.560        40
56.580        47
56.600         7
56.620         7
56.640         0
56.660        27
56.680         7
56.700        20
56.720        13
56.740        20
56.760        20
56.780         7
56.800        20
56.820        13
56.840        20
56.860        27
56.880        20
56.900        20
56.920        20
56.940        13
56.960        20
56.980         0
57.000        13
57.020        27
57.040        20
57.060        27
57.080        47
57.100        33
57.120        27
57.140        47
57.160        20
57.180        27
57.200        33
57.220        13
57.240        40
57.260        33
57.280        20
57.300        27
57.320        47
57.340        20
57.360        27
57.380        27
57.400        27
57.420        20
57.440        13
57.460         0
57.480        13
57.500         7
57.520        47
57.540         0
57.560        33
57.580        47
57.600         7
57.620        27
57.640         7
57.660        27
57.680         0
57.700         0
57.720        27
57.740         7
57.760        27
57.780        27
57.800        13
57.820        20
57.840         0
57.860        13
57.880        33
57.900        27
57.920         7
57.940         0
57.960        13
57.980        53
58.000        13
58.020         7
58.040        47
58.060         7
58.080        33
58.100        13
58.120        33
58.140        13
58.160         7
58.180        13
58.200         7
58.220         7
58.240        13
58.260        20
58.280        13
58.300        13
58.320         7
58.340         7
58.360        20
58.380         0
58.400        20
58.420         7
58.440         0
58.460        13
58.480        20
58.500        27
58.520         7
58.540         7
58.560        20
58.580         7
58.600         0
58.620        20
58.640        20
58.660        20
58.680        20
58.700        27
58.720        13
58.740         0
58.760        20
58.780         7
58.800         0
58.820        13
58.840        13
58.860        20
58.880         7
58.900        33
58.920        20
58.940        13
58.960        13
58.980        20
59.000        20
59.020        27
59.040        13
59.060        13
59.080        20
59.100        13
59.120        13
59.140         7
59.160        13
59.180        40
59.200         0
59.220        27
59.240         0
59.260        20
59.280        13
59.300        13
59.320        13
59.340        13
59.360        13
59.380         7
59.400         7
59.420        27
59.440        40
59.460         7
59.480         7
59.500        20
59.520        13
59.540         7
59.560         7
59.580        13
59.600         7
59.620        20
59.640        27
59.660         7
59.680        20
59.700        33
59.720        13
59.740        47
59.760         7
59.780         7
59.800        33
59.820        20
59.840        13
59.860        13
59.880        13
59.900         7
59.920         0
59.940        13
59.960         0
59.980         0
60.000         0
