20.000         0
20.020         0
20.040        10
20.060        10
20.080         0
20.100         0
20.120         0
20.140         0
20.160         0
20.180         0
20.200         0
20.220         0
20.240         0
20.260         0
20.280         7
20.300        43
20.320        77
20.340        50
20.360        67
20.380        70
20.400        70
20.420        57
20.440        50
20.460        83
20.480        57
20.500        57
20.520        43
20.540        50
20.560        47
20.580        40
20.600        57
20.620        40
20.640        53
20.660        83
20.680        70
20.700        37
20.720        47
20.740        70
20.760        43
20.780        67
20.800        57
20.820        60
20.840        63
20.860        63
20.880        40
20.900        57
20.920        57
20.940        50
20.960        50
20.980        87
21.000        77
21.020        47
21.040        30
21.060        37
21.080        57
21.100        57
21.120        67
21.140        53
21.160        40
21.180        43
21.200        40
21.220        57
21.240        93
21.260        63
21.280        63
21.300        40
21.320        63
21.340        50
21.360        57
21.380        53
21.400        57
21.420        53
21.440        37
21.460        60
21.480        57
21.500        77
21.520        43
21.540        57
21.560        47
21.580        60
21.600        70
21.620        67
21.640        40
21.660        63
21.680        70
21.700        47
21.720        50
21.740        70
21.760        60
21.780        83
21.800        50
21.820        53
21.840        60
21.860        47
21.880        50
21.900        40
21.920        37
21.940        53
21.960        50
21.980        67
22.000        50
22.020        43
22.040        53
22.060        40
22.080        57
22.100        50
22.120        73
22.140        63
22.160        67
22.180        50
22.200        33
22.220        73
22.240        63
22.260        47
22.280        67
22.300        50
22.320        67
22.340        43
22.360        27
22.380        27
22.400        67
22.420        67
22.440        67
22.460        57
22.480        63
22.500        30
22.520        37
22.540        60
22.560        43
22.580        83
22.600        33
22.620        40
22.640        53
22.660        57
22.680        53
22.700        33
22.720        47
22.740        47
22.760        53
22.780        60
22.800        43
22.820        63
22.840        60
22.860        83
22.880        53
22.900        50
22.920        57
22.940        50
22.960        47
22.980        33
23.000        40
23.020        40
23.040        43
23.060        40
23.080        47
23.100        47
23.120        43
23.140        60
23.160        70
23.180        70
23.200        47
23.220        50
23.240        60
23.260        20
23.280        43
23.300        43
23.320        27
23.340        60
23.360        63
23.380        30
23.400        53
23.420        70
23.440        50
23.460        50
23.480        43
23.500        53
23.520        30
23.540        50
23.560        63
23.580        43
23.600        57
23.620        47
23.640        70
23.660        53
23.680        40
23.700        23
23.720        60
23.740        57
23.760        37
23.780        40
23.800        40
23.820        57
23.840        57
23.860        40
23.880        57
23.900        53
23.920        73
23.940        37
23.960        50
23.980        60
24.000        53
24.020        37
24.040        60
24.060        37
24.080        73
24.100        40
24.120        50
24.140        47
24.160        73
24.180        57
24.200        53
24.220        63
24.240        53
24.260        27
24.280        63
24.300        60
24.320        63
24.340        63
24.360        33
24.380        50
24.400        50
24.420        47
24.440        67
24.460        30
24.480        33
24.500        43
24.520        27
24.540        27
24.560        30
24.580        30
24.600        23
24.620        53
24.640        30
24.660        23
24.680        40
24.700        63
24.720        23
24.740        53
24.760        27
24.780        53
24.800        63
24.820        40
24.840        53
24.860        50
24.880        63
24.900        47
24.920        27
24.940        57
24.960        47
24.980        47
25.000        53
25.020        60
25.040        33
25.060        40
25.080        70
25.100        53
25.120        40
25.140        70
25.160        50
25.180        50
25.200        47
25.220        67
25.240        57
25.260        23
25.280        37
25.300        63
25.320        43
25.340        43
25.360        33
25.380        30
25.400        53
25.420        40
25.440        50
25.460        60
25.480        53
25.500        57
25.520        70
25.540        50
25.560        87
25.580        53
25.600        67
25.620        83
25.640        63
25.660        80
25.680        63
25.700        57
25.720        47
25.740        43
25.760        40
25.780        50
25.800        43
25.820        30
25.840        33
25.860        33
25.880        43
25.900        40
25.920        27
25.940        50
25.960        70
25.980        60
26.000        10
26.020        53
26.040        43
26.060        40
26.080        43
26.100        40
26.120        53
26.140        43
26.160        30
26.180        27
26.200        37
26.220        47
26.240        63
26.260        57
26.280        47
26.300        43
26.320        40
26.340        60
26.360        43
26.380        27
26.400        47
26.420        37
26.440        40
26.460        33
26.480        23
26.500        20
26.520        30
26.540        33
26.560        40
26.580        63
26.600        57
26.620        27
26.640        87
26.660        33
26.680        37
26.700        33
26.720        47
26.740        50
26.760        43
26.780        53
26.800        47
26.820        30
26.840        33
26.860        33
26.880        43
26.900        43
26.920        43
26.940        30
26.960        73
26.980        40
27.000        73
27.020        30
27.040        37
27.060        50
27.080        30
27.100        30
27.120        63
27.140        53
27.160        47
27.180        70
27.200        50
27.220        40
27.240        33
27.260        43
27.280        37
27.300        57
27.320        50
27.340        33
27.360        27
27.380        40
27.400        47
27.420        47
27.440        33
27.460        20
27.480        43
27.500        50
27.520        27
27.540        53
27.560        40
27.580        67
27.600        73
27.620        50
27.640        50
27.660        43
27.680        60
27.700        60
27.720        47
27.740        40
27.760        47
27.780        50
27.800        17
27.820        33
27.840        30
27.860        30
27.880        50
27.900        50
27.920        57
27.940        30
27.960        47
27.980        57
28.000        43
28.020        37
28.040        67
28.060        50
28.080        93
28.100        60
28.120        47
28.140        47
28.160        40
28.180        27
28.200        50
28.220        33
28.240        63
28.260        37
28.280        40
28.300        40
28.320        50
28.340        70
28.360        37
28.380        47
28.400        43
28.420        37
28.440        30
28.460        57
28.480        80
28.500        43
28.520        50
28.540        40
28.560        43
28.580        43
28.600        23
28.620        47
28.640        43
28.660        37
28.680        57
28.700        60
28.720        53
28.740        53
28.760        67
28.780        27
28.800        60
28.820        20
28.840        50
28.860        30
28.880        47
28.900        53
28.920        23
28.940        53
28.960        53
28.980        67
29.000        73
29.020        53
29.040        53
29.060        37
29.080        30
29.100        27
29.120        60
29.140        50
29.160        33
29.180        47
29.200        50
29.220        50
29.240        57
29.260        40
29.280        60
29.300        47
29.320        27
29.340        37
29.360        57
29.380        47
29.400        53
29.420        47
29.440        43
29.460        47
29.480        63
29.500        43
29.520        40
29.540        53
29.560        37
29.580        30
29.600        53
29.620        67
29.640        43
29.660        53
29.680        53
29.700        50
29.720        67
29.740        37
29.760        53
29.780        47
29.800        67
29.820        43
29.840        47
29.860        60
29.880        53
29.900        40
29.920        23
29.940        63
29.960        60
29.980        37
30.000        47
30.020        37
30.040        37
30.060        50
30.080        30
30.100        30
30.120        50
30.140        37
30.160        40
30.180        40
30.200        43
30.220        57
30.240        40
30.260        53
30.280        47
30.300        57
30.320        67
30.340        47
30.360        40
30.380        43
30.400        37
30.420        57
30.440        47
30.460        73
30.480        80
30.500        53
30.520        80
30.540       117
30.560        70
30.580        93
30.600        83
30.620       110
30.640        80
30.660       100
30.680        97
30.700        97
30.720       117
30.740       117
30.760       113
30.780       120
30.800        90
30.820        73
30.840        60
30.860        80
30.880        80
30.900        47
30.920        63
30.940        70
30.960        50
30.980        47
31.000        30
31.020        33
31.040        43
31.060        47
31.080        63
31.100        50
31.120        60
31.140        53
31.160        37
31.180        60
31.200        53
31.220        47
31.240        57
31.260        73
31.280        43
31.300        57
31.320        63
31.340        37
31.360        40
31.380        47
31.400        60
31.420        27
31.440        40
31.460        57
31.480        30
31.500        50
31.520        27
31.540        37
31.560        63
31.580        40
31.600        63
31.620        23
31.640        50
31.660        73
31.680        37
31.700        47
31.720        37
31.740        30
31.760        57
31.780        43
31.800        20
31.820        40
31.840        40
31.860        37
31.880        37
31.900        33
31.920        17
31.940        43
31.960        57
31.980        40
32.000        50
32.020        23
32.040        47
32.060        63
32.080        30
32.100        20
32.120        33
32.140        37
32.160        47
32.180        53
32.200        53
32.220        77
32.240        53
32.260        27
32.280        33
32.300        43
32.320        60
32.340        33
32.360        40
32.380        37
32.400        43
32.420        47
32.440        17
32.460        27
32.480        20
32.500        37
32.520        37
32.540        53
32.560        37
32.580        53
32.600        57
32.620        27
32.640        37
32.660        37
32.680        67
32.700        33
32.720        33
32.740        33
32.760        27
32.780        30
32.800        20
32.820        37
32.840        20
32.860        40
32.880        40
32.900        37
32.920        30
32.940        40
32.960        43
32.980        27
33.000        37
33.020        20
33.040        30
33.060        40
33.080        17
33.100        70
33.120        60
33.140        40
33.160        30
33.180        43
33.200        63
33.220        53
33.240        37
33.260        60
33.280        43
33.300        30
33.320        53
33.340        37
33.360        63
33.380        50
33.400        33
33.420        30
33.440        37
33.460        23
33.480        20
33.500        27
33.520        43
33.540        23
33.560        27
33.580        60
33.600        23
33.620        40
33.640        37
33.660        30
33.680        20
33.700        33
33.720        60
33.740        37
33.760        33
33.780        40
33.800        47
33.820        57
33.840        37
33.860        37
33.880        40
33.900        30
33.920        53
33.940        37
33.960        40
33.980        47
34.000        47
34.020        20
34.040        37
34.060        33
34.080        37
34.100        50
34.120        40
34.140        33
34.160        33
34.180        43
34.200        30
34.220        30
34.240        10
34.260        33
34.280        33
34.300        27
34.320        40
34.340        43
34.360        50
34.380        47
34.400        20
34.420        27
34.440        23
34.460        50
34.480        27
34.500        33
34.520        53
34.540        43
34.560        43
34.580        30
34.600        80
34.620        33
34.640        63
34.660        47
34.680        30
34.700        33
34.720        20
34.740        47
34.760        30
34.780        40
34.800        27
34.820        23
34.840        17
34.860        43
34.880        37
34.900        23
34.920        47
34.940        43
34.960        50
34.980        40
35.000        30
35.020        27
35.040        60
35.060        30
35.080        47
35.100        43
35.120        50
35.140       147
35.160       117
35.180       183
35.200       163
35.220       143
35.240       130
35.260        87
35.280       103
35.300        90
35.320        50
35.340        57
35.360        23
35.380        40
35.400        30
35.420        37
35.440        37
35.460        47
35.480        33
35.500        27
35.520        13
35.540        27
35.560        67
35.580        40
35.600        57
35.620        53
35.640        43
35.660        43
35.680        50
35.700        30
35.720        17
35.740        30
35.760        40
35.780        53
35.800        30
35.820        27
35.840        43
35.860        20
35.880        20
35.900        57
35.920        43
35.940        37
35.960        57
35.980        37
36.000        30
36.020        47
36.040        27
36.060        23
36.080        30
36.100        53
36.120        37
36.140        33
36.160        47
36.180        33
36.200        30
36.220        23
36.240        47
36.260        33
36.280        17
36.300        23
36.320        27
36.340        27
36.360        20
36.380        27
36.400        43
36.420        43
36.440        63
36.460        67
36.480        10
36.500        17
36.520        27
36.540        50
36.560        57
36.580        67
36.600        30
36.620        23
36.640        57
36.660        43
36.680        60
36.700        30
36.720        30
36.740        53
36.760        37
36.780        37
36.800        40
36.820        47
36.840        43
36.860        33
36.880        40
36.900        23
36.920        50
36.940        40
36.960        47
36.980        33
37.000        43
37.020        40
37.040        40
37.060        43
37.080        63
37.100        47
37.120        60
37.140        47
37.160        53
37.180        33
37.200        27
37.220        37
37.240        20
37.260        53
37.280        57
37.300        57
37.320        40
37.340        53
37.360        47
37.380        90
37.400        43
37.420        83
37.440        70
37.460        83
37.480       103
37.500       100
37.520       117
37.540       143
37.560       127
37.580       113
37.600       173
37.620       240
37.640       237
37.660       280
37.680       320
37.700       333
37.720       410
37.740       536
37.760       666
37.780       653
37.800       896
37.820      1040
37.840      1349
37.860      1553
37.880      1506
37.900      1476
37.920      1586
37.940      1323
37.960      1100
37.980       996
38.000       893
38.020       806
38.040       593
38.060       393
38.080       353
38.100       330
38.120       243
38.140       207
38.160       217
38.180       233
38.200       140
38.220       147
38.240       140
38.260       137
38.280       123
38.300       153
38.320       110
38.340       127
38.360       127
38.380       127
38.400       123
38.420        73
38.440       107
38.460        97
38.480        80
38.500        77
38.520        63
38.540        53
38.560        60
38.580       107
38.600        63
38.620        80
38.640        53
38.660        70
38.680        57
38.700        60
38.720        93
38.740        73
38.760        50
38.780        57
38.800        43
38.820        47
38.840        60
38.860        67
38.880        67
38.900        43
38.920        60
38.940        70
38.960        57
38.980        53
39.000        70
39.020        47
39.040        70
39.060        67
39.080        27
39.100        40
39.120        43
39.140        33
39.160        57
39.180        43
39.200        23
39.220        43
39.240        57
39.260        23
39.280        30
39.300        47
39.320        40
39.340        53
39.360        47
39.380        47
39.400        40
39.420        47
39.440        33
39.460        33
39.480        30
39.500        37
39.520        47
39.540        40
39.560        30
39.580        27
39.600        30
39.620        47
39.640        37
39.660        47
39.680        10
39.700        43
39.720        40
39.740        63
39.760        27
39.780        27
39.800        43
39.820        23
39.840        37
39.860        33
39.880        40
39.900        20
39.920        40
39.940        27
39.960        33
39.980        40
40.000        47
40.020        23
40.040        43
40.060        43
40.080        40
40.100        47
40.120        20
40.140        37
40.160        23
40.180        23
40.200        40
40.220        30
40.240        67
40.260        27
40.280        30
40.300        33
40.320        40
40.340        43
40.360        23
40.380        47
40.400        37
40.420        40
40.440        27
40.460        33
40.480        47
40.500        23
40.520        43
40.540        53
40.560        33
40.580        33
40.600        37
40.620        20
40.640        23
40.660        37
40.680        37
40.700        27
40.720        27
40.740        23
40.760        13
40.780        30
40.800        30
40.820        33
40.840        27
40.860        40
40.880        20
40.900        40
40.920        27
40.940        27
40.960        37
40.980        40
41.000        23
41.020        27
41.040        33
41.060        27
41.080        30
41.100        40
41.120        30
41.140        20
41.160        33
41.180        23
41.200        33
41.220        27
41.240        27
41.260        20
41.280        63
41.300        30
41.320        27
41.340        37
41.360        37
41.380        20
41.400        37
41.420        13
41.440        20
41.460        33
41.480        30
41.500        50
41.520        47
41.540        57
41.560        33
41.580        17
41.600        40
41.620        43
41.640        47
41.660        53
41.680        70
41.700        63
41.720        33
41.740        33
41.760        43
41.780        43
41.800        47
41.820        10
41.840        23
41.860        37
41.880        27
41.900        30
41.920        30
41.940        23
41.960        53
41.980        17
42.000        30
42.020        33
42.040        17
42.060        37
42.080        27
42.100        40
42.120        37
42.140        33
42.160        33
42.180        27
42.200        27
42.220        30
42.240        40
42.260        43
42.280        30
42.300        40
42.320        17
42.340        37
42.360         3
42.380        20
42.400        33
42.420        23
42.440        27
42.460        20
42.480        30
42.500        30
42.520        23
42.540        30
42.560        30
42.580        37
42.600        27
42.620        47
42.640        37
42.660        30
42.680        23
42.700        37
42.720        27
42.740        20
42.760        37
42.780        27
42.800        17
42.820        27
42.840        27
42.860        30
42.880        17
42.900        23
42.920        50
42.940        23
42.960        27
42.980        33
43.000        27
43.020        33
43.040        10
43.060        50
43.080        23
43.100        17
43.120        20
43.140        43
43.160        37
43.180        23
43.200        33
43.220        43
43.240        40
43.260        47
43.280        30
43.300        43
43.320        43
43.340        43
43.360        33
43.380        63
43.400        50
43.420        47
43.440        47
43.460        53
43.480        47
43.500        47
43.520        57
43.540        53
43.560        37
43.580        27
43.600        33
43.620        33
43.640        33
43.660        20
43.680        33
43.700        33
43.720        37
43.740        53
43.760        47
43.780        27
43.800        33
43.820        43
43.840        50
43.860        33
43.880        53
43.900        53
43.920        37
43.940        57
43.960        57
43.980        47
44.000        63
44.020        50
44.040        57
44.060        53
44.080        70
44.100        63
44.120        40
44.140        60
44.160        87
44.180        47
44.200        57
44.220        50
44.240        40
44.260        37
44.280        30
44.300        23
44.320        27
44.340        20
44.360        23
44.380        30
44.400        30
44.420        43
44.440        13
44.460        30
44.480        37
44.500        40
44.520        20
44.540        37
44.560        43
44.580        37
44.600        43
44.620        20
44.640        53
44.660        37
44.680        20
44.700        23
44.720        40
44.740        27
44.760        23
44.780        20
44.800        30
44.820        50
44.840        27
44.860        10
44.880        27
44.900        13
44.920        23
44.940        33
44.960        27
44.980        33
45.000        27
45.020        37
45.040        37
45.060        20
45.080        13
45.100        20
45.120        13
45.140        20
45.160        17
45.180        20
45.200        17
45.220        33
45.240         7
45.260        33
45.280        23
45.300        17
45.320        37
45.340        20
45.360        23
45.380        27
45.400        13
45.420        20
45.440         3
45.460        17
45.480        23
45.500        37
45.520        30
45.540        27
45.560        30
45.580        13
45.600        17
45.620        20
45.640        17
45.660        17
45.680        20
45.700        27
45.720        37
45.740        27
45.760        63
45.780        27
45.800        30
45.820        20
45.840        30
45.860        33
45.880        27
45.900        27
45.920        57
45.940        37
45.960        30
45.980        33
46.000        43
46.020        13
46.040        17
46.060        30
46.080        37
46.100        30
46.120        13
46.140        30
46.160        27
46.180        10
46.200        20
46.220        30
46.240        23
46.260        33
46.280        23
46.300        23
46.320        20
46.340        27
46.360        20
46.380        20
46.400        57
46.420        13
46.440        20
46.460        27
46.480        33
46.500        20
46.520        23
46.540        23
46.560        27
46.580        23
46.600        20
46.620        20
46.640        30
46.660        33
46.680        13
46.700        30
46.720        13
46.740        17
46.760        13
46.780        10
46.800        23
46.820        27
46.840        37
46.860        17
46.880        17
46.900        10
46.920        23
46.940        20
46.960        20
46.980        10
47.000        23
47.020        27
47.040        13
47.060        20
47.080        20
47.100        17
47.120        17
47.140        20
47.160        20
47.180         7
47.200        23
47.220        27
47.240        33
47.260        20
47.280        33
47.300        20
47.320         7
47.340        33
47.360        27
47.380        20
47.400        10
47.420        23
47.440        23
47.460        43
47.480        20
47.500        10
47.520        23
47.540        23
47.560        13
47.580        33
47.600        17
47.620        27
47.640        23
47.660        23
47.680        20
47.700        30
47.720        37
47.740        17
47.760        13
47.780        17
47.800         7
47.820        17
47.840        27
47.860        20
47.880        17
47.900        30
47.920        20
47.940        23
47.960        20
47.980        17
48.000        33
48.020        33
48.040        20
48.060        27
48.080        27
48.100        30
48.120        27
48.140        20
48.160        20
48.180        37
48.200        23
48.220        17
48.240        27
48.260        33
48.280        33
48.300        30
48.320        30
48.340        13
48.360        23
48.380         7
48.400        20
48.420        23
48.440        27
48.460        33
48.480        20
48.500        17
48.520        27
48.540        20
48.560        20
48.580        27
48.600        43
48.620        30
48.640        30
48.660        20
48.680        30
48.700        33
48.720        20
48.740        27
48.760        20
48.780        17
48.800        23
48.820        20
48.840        17
48.860        17
48.880        13
48.900        10
48.920        40
48.940        27
48.960        33
48.980        30
49.000        13
49.020        33
49.040        13
49.060        37
49.080        17
49.100        13
49.120        23
49.140        17
49.160        33
49.180         7
49.200        20
49.220        23
49.240        23
49.260        17
49.280         7
49.300        17
49.320        33
49.340        17
49.360        20
49.380        13
49.400        27
49.420        10
49.440        40
49.460        30
49.480        27
49.500        27
49.520        20
49.540        13
49.560        13
49.580        30
49.600        33
49.620        17
49.640        40
49.660        17
49.680        20
49.700        30
49.720        57
49.740        13
49.760        23
49.780        27
49.800        13
49.820        10
49.840        27
49.860        17
49.880        23
49.900        30
49.920        27
49.940        23
49.960        30
49.980        23
50.000         7
50.020        13
50.040        20
50.060        37
50.080        40
50.100        13
50.120        10
50.140        27
50.160        37
50.180        10
50.200        23
50.220        30
50.240        23
50.260        13
50.280        30
50.300        20
50.320        13
50.340        17
50.360        17
50.380        33
50.400        13
50.420        33
50.440        20
50.460        20
50.480        13
50.500         7
50.520        23
50.540        23
50.560        30
50.580        10
50.600        37
50.620        17
50.640        13
50.660         7
50.680        23
50.700        13
50.720         7
50.740        17
50.760        23
50.780        23
50.800        30
50.820        20
50.840        20
50.860        27
50.880        30
50.900        30
50.920        23
50.940        30
50.960        20
50.980        20
51.000        17
51.020        27
51.040        17
51.060        20
51.080        20
51.100        23
51.120        37
51.140        20
51.160        17
51.180        20
51.200        20
51.220        40
51.240        20
51.260        17
51.280        30
51.300        20
51.320        23
51.340        10
51.360        13
51.380        13
51.400        17
51.420        27
51.440         7
51.460        10
51.480        23
51.500        27
51.520        23
51.540        23
51.560        23
51.580        17
51.600        30
51.620        20
51.640        57
51.660        20
51.680        20
51.700        10
51.720        13
51.740        10
51.760        13
51.780        23
51.800        23
51.820        43
51.840        20
51.860        27
51.880        13
51.900        20
51.920        30
51.940        23
51.960         7
51.980         7
52.000        47
52.020        23
52.040        13
52.060        23
52.080        10
52.100         0
52.120        13
52.140        17
52.160        17
52.180        27
52.200        10
52.220        13
52.240         7
52.260        23
52.280        27
52.300        27
52.320        37
52.340        20
52.360        10
52.380        23
52.400         7
52.420        23
52.440        17
52.460        30
52.480        33
52.500        43
52.520        53
52.540        47
52.560        57
52.580        67
52.600        67
52.620       103
52.640        47
52.660        47
52.680        50
52.700        20
52.720        53
52.740        53
52.760        23
52.780         7
52.800        13
52.820        13
52.840        20
52.860        30
52.880         7
52.900        27
52.920         3
52.940        27
52.960        40
52.980        23
53.000        17
53.020        17
53.040        17
53.060         7
53.080        43
53.100        23
53.120        13
53.140        37
53.160        10
53.180        33
53.200        13
53.220        10
53.240        20
53.260         7
53.280        17
53.300        30
53.320        13
53.340        23
53.360         7
53.380        27
53.400        27
53.420        10
53.440        13
53.460        17
53.480        20
53.500        13
53.520        20
53.540        13
53.560        13
53.580        23
53.600        30
53.620        20
53.640        47
53.660        23
53.680        23
53.700        17
53.720        10
53.740         7
53.760        27
53.780        30
53.800         7
53.820        20
53.840        20
53.860        17
53.880        23
53.900        27
53.920        20
53.940        27
53.960        23
53.980        17
54.000        27
54.020        17
54.040        17
54.060        13
54.080        17
54.100         3
54.120        23
54.140        20
54.160        50
54.180        37
54.200        10
54.220        13
54.240        23
54.260        20
54.280        23
54.300        20
54.320        50
54.340        40
54.360        37
54.380        33
54.400        33
54.420        33
54.440        33
54.460        50
54.480        33
54.500        47
54.520        73
54.540        43
54.560        57
54.580        73
54.600        90
54.620        93
54.640        63
54.660        57
54.680        83
54.700        67
54.720        93
54.740        93
54.760        57
54.780        80
54.800        50
54.820        20
54.840        60
54.860        67
54.880        47
54.900        20
54.920        30
54.940        37
54.960        37
54.980        40
55.000        43
55.020        33
55.040        27
55.060        33
55.080        23
55.100        37
55.120        37
55.140        20
55.160        23
55.180        43
55.200        23
55.220        27
55.240        27
55.260        17
55.280        30
55.300        17
55.320         7
55.340        13
55.360        23
55.380        20
55.400        17
55.420        17
55.440        27
55.460        23
55.480         7
55.500        17
55.520        23
55.540        17
55.560        27
55.580        13
55.600        20
55.620        10
55.640        17
55.660        30
55.680        13
55.700        27
55.720        17
55.740        23
55.760        17
55.780        17
55.800        10
55.820        20
55.840        40
55.860        33
55.880        33
55.900        10
55.920        20
55.940        27
55.960        13
55.980        10
56.000        23
56.020        37
56.040        37
56.060        20
56.080        20
56.100        17
56.120        20
56.140        10
56.160        30
56.180        30
56.200        10
56.220        13
56.240        23
56.260        17
56.280        10
56.300        17
56.320        17
56.340        20
56.360        20
56.380        20
56.400        17
56.420         7
56.440        33
56.460        27
56.480        13
56.500        13
56.520        30
56.540        20
56.560        10
56.580        10
56.600        13
56.620        20
56.640        17
56.660       107
56.680        20
56.700        20
56.720        20
56.740        13
56.760        17
56.780        10
56.800        13
56.820        17
56.840        20
56.860        30
56.880         7
56.900        13
56.920        20
56.940        10
56.960        10
56.980        10
57.000        13
57.020        30
57.040        17
57.060        17
57.080        10
57.100        23
57.120        27
57.140        20
57.160        23
57.180        17
57.200        20
57.220        20
57.240        23
57.260        17
57.280        20
57.300        30
57.320         7
57.340        23
57.360        20
57.380        23
57.400        43
57.420        60
57.440        93
57.460       100
57.480       110
57.500       163
57.520       110
57.540       173
57.560       163
57.580       177
57.600       193
57.620       110
57.640        97
57.660       117
57.680        83
57.700       107
57.720       120
57.740        73
57.760        73
57.780        37
57.800        30
57.820         7
57.840        17
57.860        20
57.880        23
57.900        20
57.920        17
57.940        23
57.960        33
57.980        10
58.000        17
58.020        27
58.040        30
58.060        23
58.080        13
58.100         7
58.120         7
58.140        23
58.160         7
58.180        17
58.200         7
58.220        10
58.240        13
58.260        20
58.280        13
58.300        17
58.320        17
58.340        30
58.360        20
58.380         7
58.400        13
58.420        17
58.440        27
58.460         7
58.480        10
58.500         3
58.520        17
58.540        33
58.560        20
58.580         3
58.600        27
58.620        23
58.640        17
58.660        23
58.680        20
58.700        17
58.720        30
58.740        30
58.760        17
58.780        13
58.800         3
58.820        13
58.840         0
58.860        13
58.880        13
58.900        23
58.920        17
58.940        20
58.960        17
58.980        10
59.000        13
59.020        17
59.040        30
59.060        10
59.080        20
59.100        17
59.120         3
59.140         7
59.160        27
59.180        17
59.200        13
59.220        23
59.240         7
59.260        13
59.280        20
59.300        20
59.320        10
59.340         7
59.360        17
59.380        17
59.400        13
59.420        10
59.440        17
59.460        20
59.480        13
59.500        20
59.520        27
59.540        17
59.560        23
59.580        37
59.600        27
59.620        23
59.640        23
59.660        13
59.680        27
59.700        30
59.720        17
59.740        10
59.760        30
59.780        10
59.800        20
59.820        10
59.840         7
59.860        13
59.880        17
59.900        13
59.920        13
59.940        23
59.960        23
59.980        10
60.000        13
