20.000        50
20.020        27
20.040        23
20.060        47
20.080        37
20.100        53
20.120        43
20.140        43
20.160        57
20.180        40
20.200        53
20.220        40
20.240        50
20.260        60
20.280        43
20.300        43
20.320        40
20.340        50
20.360        40
20.380        27
20.400        20
20.420        30
20.440        43
20.460        40
20.480        30
20.500        40
20.520        30
20.540        47
20.560        53
20.580        47
20.600        33
20.620        40
20.640        47
20.660        57
20.680        43
20.700        57
20.720        67
20.740        50
20.760        63
20.780        73
20.800        27
20.820        40
20.840        47
20.860        40
20.880        30
20.900        33
20.920        30
20.940        30
20.960        57
20.980        43
21.000        57
21.020        43
21.040        40
21.060        63
21.080        50
21.100        53
21.120        43
21.140        60
21.160        47
21.180        43
21.200        63
21.220        50
21.240        30
21.260        60
21.280        43
21.300        50
21.320        33
21.340        27
21.360        40
21.380        30
21.400        63
21.420        60
21.440        40
21.460        70
21.480        53
21.500        47
21.520        47
21.540        30
21.560        40
21.580        30
21.600        53
21.620        50
21.640        47
21.660        37
21.680        57
21.700        50
21.720        43
21.740        43
21.760        30
21.780        43
21.800        57
21.820        50
21.840        33
21.860        50
21.880        40
21.900        40
21.920        43
21.940        60
21.960        37
21.980        40
22.000        13
22.020        33
22.040        50
22.060        47
22.080        27
22.100        57
22.120        40
22.140        27
22.160        43
22.180        37
22.200        47
22.220        23
22.240        37
22.260        60
22.280        37
22.300        37
22.320        50
22.340        30
22.360        53
22.380        27
22.400        63
22.420        23
22.440        17
22.460        43
22.480        37
22.500        37
22.520        37
22.540        27
22.560        50
22.580        50
22.600        53
22.620        30
22.640        33
22.660        30
22.680        50
22.700        67
22.720        23
22.740        60
22.760        30
22.780        30
22.800        30
22.820        70
22.840        33
22.860        50
22.880        33
22.900        27
22.920        27
22.940        57
22.960        23
22.980        60
23.000        50
23.020        50
23.040        40
23.060        33
23.080        47
23.100        33
23.120        40
23.140        30
23.160        33
23.180        20
23.200        20
23.220        37
23.240        43
23.260        33
23.280        60
23.300        57
23.320        37
23.340        37
23.360        40
23.380        40
23.400        37
23.420        23
23.440        40
23.460        50
23.480        23
23.500        40
23.520        47
23.540        50
23.560        50
23.580        47
23.600        53
23.620        37
23.640        43
23.660        20
23.680        37
23.700        30
23.720        30
23.740        53
23.760        40
23.780        53
23.800        20
23.820        30
23.840        30
23.860        40
23.880        43
23.900        30
23.920        17
23.940        33
23.960        40
23.980        40
24.000        30
24.020        63
24.040        30
24.060        47
24.080        47
24.100        43
24.120        53
24.140        47
24.160        53
24.180        57
24.200        33
24.220        43
24.240        30
24.260        43
24.280        43
24.300        17
24.320        20
24.340        57
24.360        37
24.380        53
24.400        53
24.420        37
24.440        30
24.460        53
24.480        43
24.500        30
24.520        50
24.540        47
24.560        37
24.580        53
24.600        23
24.620        33
24.640        30
24.660        53
24.680        33
24.700        53
24.720        57
24.740        50
24.760        37
24.780        37
24.800        37
24.820        43
24.840        63
24.860        47
24.880        30
24.900        53
24.920        23
24.940        30
24.960        57
24.980        27
25.000        27
25.020        23
25.040        37
25.060        30
25.080        43
25.100        47
25.120        47
25.140        23
25.160        10
25.180        40
25.200        13
25.220        37
25.240        37
25.260        47
25.280        20
25.300        40
25.320        20
25.340        47
25.360        30
25.380        40
25.400        33
25.420        13
25.440        47
25.460        43
25.480        50
25.500        33
25.520        43
25.540        53
25.560        47
25.580        37
25.600        37
25.620        60
25.640        20
25.660        33
25.680        17
25.700        33
25.720        40
25.740        23
25.760        50
25.780        50
25.800        23
25.820        30
25.840        33
25.860        60
25.880        20
25.900        30
25.920        27
25.940        33
25.960        43
25.980        27
26.000        27
26.020        43
26.040        20
26.060        57
26.080        57
26.100        17
26.120        50
26.140        27
26.160        27
26.180        33
26.200        23
26.220        30
26.240        30
26.260        47
26.280        17
26.300        10
26.320        37
26.340        40
26.360        23
26.380        43
26.400        33
26.420        50
26.440        50
26.460        43
26.480        23
26.500        40
26.520        47
26.540        60
26.560        43
26.580        53
26.600        53
26.620        67
26.640        47
26.660        43
26.680        30
26.700        47
26.720        57
26.740        43
26.760        43
26.780        50
26.800        40
26.820        57
26.840        27
26.860        77
26.880        50
26.900        40
26.920        70
26.940        37
26.960        50
26.980        40
27.000        57
27.020        40
27.040        40
27.060        20
27.080        53
27.100        50
27.120        53
27.140        10
27.160        33
27.180        60
27.200        47
27.220        57
27.240        50
27.260        43
27.280        43
27.300        43
27.320        33
27.340        57
27.360        43
27.380        50
27.400        30
27.420        27
27.440        30
27.460        30
27.480        37
27.500        40
27.520        47
27.540        20
27.560        33
27.580        43
27.600        40
27.620        47
27.640        20
27.660        20
27.680        37
27.700        40
27.720        37
27.740        23
27.760        57
27.780        23
27.800        40
27.820        37
27.840        40
27.860        27
27.880        33
27.900        33
27.920        40
27.940        43
27.960        27
27.980        20
28.000        37
28.020        40
28.040        47
28.060        23
28.080        20
28.100        50
28.120        23
28.140        20
28.160        27
28.180        33
28.200        27
28.220        17
28.240        30
28.260        43
28.280        37
28.300        17
28.320        37
28.340        33
28.360        30
28.380        37
28.400        30
28.420        40
28.440        33
28.460        17
28.480        10
28.500        40
28.520        40
28.540        27
28.560        23
28.580        27
28.600        50
28.620        30
28.640        20
28.660        40
28.680        57
28.700        37
28.720        43
28.740        53
28.760        27
28.780        13
28.800        17
28.820        23
28.840        27
28.860        33
28.880        23
28.900        23
28.920        17
28.940        43
28.960        47
28.980        40
29.000        37
29.020        23
29.040        23
29.060        27
29.080        30
29.100        33
29.120        17
29.140        27
29.160        17
29.180        33
29.200        27
29.220        30
29.240        40
29.260        30
29.280        53
29.300        40
29.320        23
29.340        27
29.360        47
29.380        40
29.400        37
29.420        23
29.440        17
29.460        27
29.480        37
29.500        37
29.520        33
29.540        20
29.560        23
29.580        43
29.600        27
29.620        30
29.640        47
29.660        10
29.680        47
29.700        20
29.720        20
29.740        27
29.760        43
29.780        17
29.800        13
29.820        23
29.840        47
29.860        33
29.880        33
29.900        23
29.920        33
29.940        43
29.960        33
29.980        20
30.000        30
30.020        33
30.040        27
30.060        23
30.080        30
30.100        17
30.120        27
30.140        20
30.160        33
30.180        20
30.200        40
30.220        40
30.240        30
30.260        40
30.280        60
30.300        40
30.320        27
30.340        33
30.360        30
30.380        43
30.400        27
30.420        40
30.440        37
30.460        27
30.480        23
30.500        50
30.520        37
30.540        33
30.560        40
30.580        43
30.600        63
30.620        23
30.640        20
30.660        50
30.680        40
30.700        63
30.720        73
30.740        57
30.760        67
30.780       110
30.800        77
30.820        77
30.840        97
30.860        90
30.880        93
30.900       107
30.920       153
30.940       157
30.960       153
30.980       207
31.000       197
31.020       190
31.040       163
31.060       217
31.080       187
31.100       117
31.120       153
31.140       107
31.160       103
31.180        73
31.200        90
31.220        67
31.240        67
31.260        53
31.280        50
31.300        57
31.320        67
31.340        73
31.360        43
31.380        27
31.400        57
31.420        37
31.440        43
31.460        30
31.480        13
31.500        20
31.520        33
31.540        40
31.560        33
31.580        43
31.600        43
31.620        23
31.640        33
31.660        17
31.680        13
31.700        27
31.720        37
31.740        27
31.760        50
31.780        40
31.800        40
31.820        47
31.840        30
31.860        37
31.880        30
31.900        40
31.920        30
31.940        20
31.960        27
31.980        23
32.000        30
32.020        40
32.040        37
32.060        37
32.080        13
32.100        13
32.120        20
32.140        20
32.160        17
32.180        23
32.200        30
32.220        40
32.240        40
32.260        17
32.280        23
32.300        20
32.320        33
32.340        13
32.360        27
32.380        40
32.400        47
32.420        27
32.440        27
32.460        23
32.480        27
32.500        17
32.520        30
32.540        37
32.560        23
32.580        27
32.600        13
32.620        23
32.640        33
32.660        30
32.680        17
32.700        23
32.720        23
32.740        30
32.760        33
32.780        23
32.800        17
32.820        37
32.840        30
32.860         3
32.880        33
32.900        33
32.920        27
32.940        20
32.960        33
32.980        27
33.000        23
33.020        17
33.040        33
33.060        20
33.080        33
33.100        13
33.120        23
33.140        27
33.160        17
33.180        27
33.200        27
33.220        40
33.240        27
33.260         3
33.280        33
33.300        23
33.320        40
33.340        33
33.360        17
33.380        43
33.400        47
33.420        27
33.440        27
33.460        20
33.480        30
33.500        23
33.520        20
33.540        33
33.560        20
33.580        10
33.600        20
33.620        30
33.640        20
33.660        30
33.680        23
33.700        37
33.720        17
33.740        20
33.760        13
33.780        17
33.800        37
33.820        40
33.840        13
33.860        23
33.880        47
33.900        17
33.920        40
33.940        23
33.960        20
33.980        10
34.000        47
34.020        40
34.040        20
34.060        47
34.080        37
34.100        43
34.120        30
34.140        23
34.160        23
34.180        50
34.200        23
34.220        33
34.240        43
34.260        33
34.280        40
34.300        33
34.320        40
34.340        53
34.360        40
34.380        63
34.400        47
34.420        53
34.440        60
34.460        40
34.480        40
34.500        30
34.520        50
34.540        50
34.560        63
34.580        37
34.600        27
34.620        37
34.640        10
34.660        50
34.680        20
34.700        30
34.720        43
34.740        20
34.760        37
34.780        30
34.800        30
34.820        23
34.840        23
34.860        30
34.880        37
34.900        20
34.920        40
34.940        33
34.960        33
34.980        33
35.000        47
35.020        43
35.040        30
35.060        37
35.080        77
35.100        67
35.120       130
35.140       147
35.160       173
35.180       103
35.200       113
35.220        70
35.240        77
35.260        77
35.280        40
35.300        37
35.320        40
35.340        43
35.360        10
35.380        37
35.400        30
35.420        20
35.440        17
35.460        27
35.480        27
35.500        47
35.520        23
35.540        30
35.560        13
35.580        20
35.600        27
35.620        20
35.640        23
35.660        23
35.680        37
35.700        23
35.720        23
35.740        23
35.760        30
35.780        17
35.800        33
35.820        23
35.840        23
35.860        17
35.880        20
35.900        17
35.920        37
35.940        23
35.960        37
35.980        30
36.000        20
36.020        17
36.040        30
36.060        30
36.080        20
36.100        17
36.120        27
36.140        33
36.160        50
36.180        40
36.200        13
36.220        13
36.240        27
36.260        27
36.280        37
36.300        17
36.320        37
36.340        10
36.360        27
36.380        27
36.400        23
36.420        33
36.440        47
36.460        23
36.480        23
36.500        43
36.520        47
36.540        17
36.560        30
36.580        23
36.600        37
36.620        23
36.640        27
36.660        37
36.680        47
36.700        27
36.720        30
36.740        37
36.760        43
36.780        43
36.800        20
36.820        53
36.840        20
36.860        50
36.880        60
36.900        60
36.920        53
36.940        70
36.960        67
36.980        30
37.000        60
37.020        50
37.040        40
37.060        53
37.080        57
37.100        40
37.120        77
37.140        23
37.160        67
37.180        80
37.200        47
37.220        40
37.240        40
37.260        47
37.280        53
37.300        53
37.320        70
37.340        73
37.360        33
37.380        57
37.400        63
37.420        87
37.440        67
37.460        67
37.480        77
37.500        73
37.520        73
37.540       103
37.560        83
37.580        50
37.600       107
37.620        80
37.640       137
37.660        97
37.680       133
37.700       110
37.720       130
37.740       110
37.760       137
37.780       190
37.800       163
37.820       217
37.840       197
37.860       220
37.880       200
37.900       203
37.920       270
37.940       337
37.960       263
37.980       340
38.000       383
38.020       407
38.040       566
38.060       596
38.080       766
38.100       926
38.120      1183
38.140      1503
38.160      1653
38.180      2016
38.200      2169
38.220      2369
38.240      2426
38.260      2292
38.280      2419
38.300      2182
38.320      2036
38.340      1686
38.360      1399
38.380      1293
38.400      1053
38.420       833
38.440       770
38.460       636
38.480       510
38.500       430
38.520       370
38.540       373
38.560       283
38.580       320
38.600       217
38.620       183
38.640       230
38.660       147
38.680       193
38.700       133
38.720       130
38.740       113
38.760       130
38.780       117
38.800       113
38.820       103
38.840       110
38.860        97
38.880       117
38.900        80
38.920        80
38.940       103
38.960        60
38.980        70
39.000        80
39.020        87
39.040        83
39.060        77
39.080        67
39.100        80
39.120        93
39.140        67
39.160        73
39.180        47
39.200        80
39.220        43
39.240        50
39.260        60
39.280        53
39.300        50
39.320        60
39.340        40
39.360        50
39.380        30
39.400        53
39.420        47
39.440        23
39.460        80
39.480        47
39.500        27
39.520        43
39.540        43
39.560        50
39.580        47
39.600        20
39.620        40
39.640        40
39.660        50
39.680        40
39.700        47
39.720        53
39.740        47
39.760        77
39.780        27
39.800        50
39.820        47
39.840        40
39.860        37
39.880        47
39.900        33
39.920        10
39.940        17
39.960        33
39.980        53
40.000        30
40.020        50
40.040        33
40.060        27
40.080        27
40.100        43
40.120        47
40.140        57
40.160        47
40.180        37
40.200        33
40.220        47
40.240        17
40.260        23
40.280        27
40.300        23
40.320        33
40.340        33
40.360        13
40.380        37
40.400        33
40.420        30
40.440        30
40.460        53
40.480        30
40.500        37
40.520        33
40.540        20
40.560        40
40.580        23
40.600        23
40.620        27
40.640        40
40.660        60
40.680        40
40.700        40
40.720        17
40.740        43
40.760        37
40.780        37
40.800        30
40.820        17
40.840        40
40.860        13
40.880        40
40.900        33
40.920        10
40.940        20
40.960        17
40.980        37
41.000        27
41.020        50
41.040        27
41.060        33
41.080        23
41.100        37
41.120        53
41.140        43
41.160        27
41.180        27
41.200        53
41.220        10
41.240        23
41.260        23
41.280        17
41.300        37
41.320        30
41.340        27
41.360        27
41.380        37
41.400        20
41.420        40
41.440        23
41.460        27
41.480        33
41.500        27
41.520        13
41.540        27
41.560        27
41.580        27
41.600        37
41.620        37
41.640        23
41.660        33
41.680        23
41.700        30
41.720        30
41.740        20
41.760        30
41.780        33
41.800        47
41.820        20
41.840        27
41.860        17
41.880         0
41.900        27
41.920        10
41.940        50
41.960        33
41.980        30
42.000        20
42.020        27
42.040        20
42.060        10
42.080        37
42.100        20
42.120        33
42.140        43
42.160        30
42.180        53
42.200        20
42.220        37
42.240        27
42.260        20
42.280        33
42.300        37
42.320        33
42.340        27
42.360        23
42.380         7
42.400        37
42.420        37
42.440        13
42.460        27
42.480        40
42.500        37
42.520        17
42.540        27
42.560        33
42.580        27
42.600        37
42.620        27
42.640         7
42.660        30
42.680        40
42.700        30
42.720        23
42.740        20
42.760        17
42.780        33
42.800        17
42.820        13
42.840        13
42.860        20
42.880        20
42.900        20
42.920        27
42.940        27
42.960        33
42.980        10
43.000        13
43.020        43
43.040        37
43.060        37
43.080        50
43.100        33
43.120        27
43.140        17
43.160        37
43.180        33
43.200        47
43.220        33
43.240        37
43.260        17
43.280        50
43.300        47
43.320        47
43.340        70
43.360        43
43.380        80
43.400        63
43.420        50
43.440        50
43.460        47
43.480        40
43.500        57
43.520        23
43.540        47
43.560        37
43.580        30
43.600        13
43.620        23
43.640        30
43.660        20
43.680        20
43.700        13
43.720        27
43.740         7
43.760        20
43.780        37
43.800        37
43.820        20
43.840        17
43.860        37
43.880        30
43.900        20
43.920        33
43.940        23
43.960        23
43.980        33
44.000        27
44.020        40
44.040        47
44.060        40
44.080        33
44.100        50
44.120        33
44.140        20
44.160        47
44.180        33
44.200        53
44.220        40
44.240        37
44.260        57
44.280        40
44.300        67
44.320        63
44.340        97
44.360        63
44.380        67
44.400        87
44.420        87
44.440        93
44.460        87
44.480        67
44.500        43
44.520        90
44.540        47
44.560        47
44.580        53
44.600        63
44.620        30
44.640        53
44.660        57
44.680        57
44.700        37
44.720        37
44.740        30
44.760        47
44.780        27
44.800        37
44.820        33
44.840        23
44.860        27
44.880        40
44.900        20
44.920        33
44.940        23
44.960        47
44.980        30
45.000        20
45.020        27
45.040        23
45.060        30
45.080        23
45.100        23
45.120        23
45.140        27
45.160        40
45.180        10
45.200        27
45.220        10
45.240        30
45.260        17
45.280        27
45.300        23
45.320        20
45.340        33
45.360        27
45.380        27
45.400        17
45.420        27
45.440        23
45.460        17
45.480        30
45.500        13
45.520        13
45.540        50
45.560        30
45.580        30
45.600        27
45.620        23
45.640        20
45.660        27
45.680        10
45.700        27
45.720        20
45.740        40
45.760        23
45.780        23
45.800        17
45.820        20
45.840        30
45.860        10
45.880        17
45.900        27
45.920        17
45.940        27
45.960        30
45.980        20
46.000        23
46.020        10
46.040        23
46.060        30
46.080        30
46.100        27
46.120        17
46.140        40
46.160        23
46.180        10
46.200        27
46.220        33
46.240        23
46.260        27
46.280        23
46.300        23
46.320        27
46.340         7
46.360        27
46.380        27
46.400        40
46.420        20
46.440        20
46.460        27
46.480        20
46.500        37
46.520        30
46.540        23
46.560        17
46.580        27
46.600         3
46.620        20
46.640        50
46.660         7
46.680        13
46.700        37
46.720        13
46.740        17
46.760        17
46.780        33
46.800        30
46.820        17
46.840        33
46.860        10
46.880        23
46.900        20
46.920        27
46.940        10
46.960        20
46.980        20
47.000        27
47.020        23
47.040        20
47.060        23
47.080         7
47.100        30
47.120        20
47.140        23
47.160        13
47.180        23
47.200        20
47.220        17
47.240        30
47.260        23
47.280        17
47.300        43
47.320        30
47.340        23
47.360        27
47.380        43
47.400        23
47.420        23
47.440        23
47.460        20
47.480        10
47.500        30
47.520        20
47.540        20
47.560        17
47.580        10
47.600        10
47.620        27
47.640        13
47.660        23
47.680        17
47.700        17
47.720        20
47.740        17
47.760        27
47.780        30
47.800        50
47.820        33
47.840        23
47.860        13
47.880        23
47.900        40
47.920        30
47.940        13
47.960        13
47.980         7
48.000        20
48.020        23
48.040        13
48.060        23
48.080        30
48.100        20
48.120         7
48.140        17
48.160        23
48.180        27
48.200        23
48.220        13
48.240        33
48.260        17
48.280        33
48.300        20
48.320        30
48.340        40
48.360        40
48.380        30
48.400        33
48.420        33
48.440        17
48.460        37
48.480        17
48.500        30
48.520        27
48.540        30
48.560        13
48.580        20
48.600        17
48.620        30
48.640        30
48.660        20
48.680        23
48.700        17
48.720        10
48.740        20
48.760        13
48.780        30
48.800        17
48.820        33
48.840        23
48.860        27
48.880        13
48.900        23
48.920        27
48.940        20
48.960        23
48.980        33
49.000        10
49.020        30
49.040        20
49.060        37
49.080        10
49.100        23
49.120        13
49.140        20
49.160        10
49.180        23
49.200        20
49.220        33
49.240        10
49.260        30
49.280        27
49.300        17
49.320        23
49.340         3
49.360        20
49.380        20
49.400        10
49.420        13
49.440        17
49.460        20
49.480        13
49.500        20
49.520        30
49.540        17
49.560        10
49.580         7
49.600        17
49.620        20
49.640        20
49.660         3
49.680         7
49.700        23
49.720        27
49.740        23
49.760        13
49.780        17
49.800        10
49.820        23
49.840        23
49.860        27
49.880        10
49.900        13
49.920        37
49.940        20
49.960        37
49.980        17
50.000         7
50.020        17
50.040        17
50.060        10
50.080        37
50.100        27
50.120        20
50.140        10
50.160        23
50.180        17
50.200        20
50.220        13
50.240        10
50.260        17
50.280        17
50.300        17
50.320        27
50.340        27
50.360        23
50.380        13
50.400        13
50.420        13
50.440        13
50.460        17
50.480        13
50.500        13
50.520        23
50.540        17
50.560        30
50.580        23
50.600         3
50.620        10
50.640        27
50.660        33
50.680        20
50.700        13
50.720        20
50.740        17
50.760         7
50.780        23
50.800        23
50.820         3
50.840        23
50.860        23
50.880        20
50.900        17
50.920        13
50.940        10
50.960        33
50.980        20
51.000        10
51.020        13
51.040         3
51.060        17
51.080        10
51.100        20
51.120        37
51.140         7
51.160        27
51.180         7
51.200        23
51.220         3
51.240        10
51.260         7
51.280        10
51.300        27
51.320        20
51.340        13
51.360        13
51.380        23
51.400        17
51.420        20
51.440        10
51.460        20
51.480        17
51.500        33
51.520        23
51.540        23
51.560        23
51.580        13
51.600        13
51.620        23
51.640        17
51.660        27
51.680        33
51.700        33
51.720        17
51.740        23
51.760        13
51.780        33
51.800        27
51.820        10
51.840        33
51.860        23
51.880        27
51.900        17
51.920        20
51.940        13
51.960        20
51.980        20
52.000        13
52.020        27
52.040        23
52.060        13
52.080        20
52.100        20
52.120         7
52.140        13
52.160        17
52.180        23
52.200        13
52.220        13
52.240        17
52.260        23
52.280        10
52.300        20
52.320        13
52.340        10
52.360        27
52.380        13
52.400        10
52.420        30
52.440        23
52.460        23
52.480        13
52.500        17
52.520        20
52.540        30
52.560        57
52.580        47
52.600        17
52.620        13
52.640        20
52.660        20
52.680        40
52.700        33
52.720        40
52.740        20
52.760        30
52.780        30
52.800        17
52.820         7
52.840        33
52.860        13
52.880        17
52.900        27
52.920        17
52.940        17
52.960        23
52.980        30
53.000        23
53.020        17
53.040        20
53.060         7
53.080        13
53.100        37
53.120        27
53.140        30
53.160        17
53.180        17
53.200        13
53.220        17
53.240        17
53.260        33
53.280        20
53.300         7
53.320        30
53.340         7
53.360        33
53.380        17
53.400        27
53.420        20
53.440        13
53.460        10
53.480        20
53.500        10
53.520         7
53.540        20
53.560        13
53.580        17
53.600        23
53.620        27
53.640        13
53.660        23
53.680        27
53.700         7
53.720        20
53.740        20
53.760        30
53.780        10
53.800        13
53.820        13
53.840        20
53.860        23
53.880        23
53.900         3
53.920        27
53.940        10
53.960         7
53.980        13
54.000        13
54.020        10
54.040        10
54.060        23
54.080        20
54.100        23
54.120        17
54.140        13
54.160        10
54.180         7
54.200        13
54.220        17
54.240        13
54.260        20
54.280        13
54.300        13
54.320        30
54.340         3
54.360        10
54.380        13
54.400        10
54.420         7
54.440        17
54.460        10
54.480        30
54.500        13
54.520        20
54.540        10
54.560        17
54.580        10
54.600        30
54.620        10
54.640        30
54.660        23
54.680        23
54.700        30
54.720        23
54.740        13
54.760        30
54.780        20
54.800        30
54.820        20
54.840        30
54.860        20
54.880        33
54.900        33
54.920        30
54.940        37
54.960        30
54.980        53
55.000        23
55.020        40
55.040        37
55.060        50
55.080        43
55.100        40
55.120        60
55.140        60
55.160        43
55.180        43
55.200        53
55.220        60
55.240        50
55.260        57
55.280        63
55.300        40
55.320        67
55.340        43
55.360        43
55.380        50
55.400        27
55.420        43
55.440        20
55.460        40
55.480        30
55.500        33
55.520        20
55.540        43
55.560        33
55.580        30
55.600        30
55.620        30
55.640        17
55.660        27
55.680         7
55.700        23
55.720        20
55.740        33
55.760        27
55.780        40
55.800        13
55.820        20
55.840         7
55.860        10
55.880        10
55.900        17
55.920         7
55.940        13
55.960        13
55.980        20
56.000        23
56.020        27
56.040        17
56.060        27
56.080        13
56.100        17
56.120        27
56.140         7
56.160        17
56.180        13
56.200        10
56.220        23
56.240        17
56.260        10
56.280        27
56.300        13
56.320        17
56.340        23
56.360        20
56.380        17
56.400        30
56.420         7
56.440        10
56.460        10
56.480        17
56.500         7
56.520        27
56.540         3
56.560        20
56.580         3
56.600        17
56.620        10
56.640        23
56.660        20
56.680         7
56.700         7
56.720        17
56.740        10
56.760        20
56.780        10
56.800        10
56.820         7
56.840        27
56.860        20
56.880         3
56.900        20
56.920        10
56.940        17
56.960        10
56.980        13
57.000         7
57.020        17
57.040        23
57.060         3
57.080        17
57.100        10
57.120        27
57.140        17
57.160        27
57.180        17
57.200        20
57.220        20
57.240        17
57.260         3
57.280        17
57.300        17
57.320        27
57.340        27
57.360        33
57.380        37
57.400        27
57.420        30
57.440        20
57.460        50
57.480        70
57.500       130
57.520        67
57.540       123
57.560        87
57.580        60
57.600        53
57.620        40
57.640        40
57.660        67
57.680        83
57.700        80
57.720        40
57.740        23
57.760        37
57.780        23
57.800        27
57.820        13
57.840        20
57.860        10
57.880        13
57.900        10
57.920        10
57.940         3
57.960        20
57.980        10
58.000        20
58.020        20
58.040        10
58.060        10
58.080         3
58.100        17
58.120        10
58.140        17
58.160        10
58.180        13
58.200        10
58.220         7
58.240        17
58.260        30
58.280        17
58.300        10
58.320        17
58.340        33
58.360         7
58.380         7
58.400        23
58.420        10
58.440        23
58.460        27
58.480        13
58.500        10
58.520        30
58.540        17
58.560        17
58.580        27
58.600        27
58.620        13
58.640        17
58.660        30
58.680        20
58.700         7
58.720        10
58.740        17
58.760        30
58.780        17
58.800        20
58.820        17
58.840        17
58.860        10
58.880        20
58.900         7
58.920        13
58.940        23
58.960        10
58.980        10
59.000        10
59.020         3
59.040         3
59.060        17
59.080         7
59.100        17
59.120        17
59.140        10
59.160         3
59.180        17
59.200        13
59.220        27
59.240        17
59.260        30
59.280         3
59.300        13
59.320        23
59.340        13
59.360        13
59.380        10
59.400         7
59.420        13
59.440        20
59.460        20
59.480        30
59.500        13
59.520        10
59.540         7
59.560         7
59.580        13
59.600        20
59.620        13
59.640        10
59.660         7
59.680         3
59.700        20
59.720        10
59.740        10
59.760        13
59.780        13
59.800        23
59.820        17
59.840        13
59.860        10
59.880        10
59.900        17
59.920        17
59.940        23
59.960        20
59.980         0
60.000         0
