20.000        40
20.020        60
20.040        30
20.060        50
20.080        63
20.100        37
20.120        37
20.140        37
20.160        53
20.180        60
20.200        47
20.220        30
20.240        33
20.260        43
20.280        23
20.300        53
20.320        33
20.340        50
20.360        33
20.380        50
20.400        37
20.420        53
20.440        43
20.460        50
20.480        43
20.500        40
20.520        40
20.540        53
20.560        43
20.580        63
20.600        33
20.620        37
20.640        57
20.660        53
20.680        33
20.700        30
20.720        53
20.740        43
20.760        40
20.780        40
20.800        17
20.820        43
20.840        47
20.860        30
20.880        40
20.900        23
20.920        37
20.940        37
20.960        33
20.980        33
21.000        60
21.020        50
21.040        37
21.060        23
21.080        57
21.100        20
21.120        47
21.140        50
21.160        67
21.180        47
21.200        33
21.220        57
21.240        37
21.260        47
21.280        27
21.300        50
21.320        33
21.340        57
21.360        53
21.380        37
21.400        53
21.420        30
21.440        40
21.460        43
21.480        27
21.500        27
21.520        37
21.540        47
21.560        60
21.580        20
21.600        33
21.620        33
21.640        23
21.660        67
21.680        27
21.700        33
21.720        33
21.740        33
21.760        30
21.780        20
21.800        40
21.820        40
21.840        47
21.860        40
21.880        33
21.900        47
21.920        37
21.940        17
21.960        30
21.980        43
22.000        30
22.020        47
22.040        30
22.060        37
22.080        50
22.100        33
22.120        37
22.140        27
22.160        17
22.180        40
22.200        40
22.220        23
22.240        53
22.260        37
22.280        30
22.300        20
22.320        37
22.340        33
22.360        23
22.380        27
22.400        53
22.420        20
22.440        53
22.460        33
22.480        40
22.500        53
22.520        23
22.540        23
22.560        30
22.580        33
22.600        33
22.620        20
22.640        37
22.660        33
22.680        40
22.700        37
22.720        30
22.740        23
22.760        33
22.780        13
22.800        33
22.820        43
22.840        70
22.860        60
22.880        50
22.900        20
22.920        30
22.940        40
22.960        43
22.980        30
23.000        50
23.020        17
23.040        20
23.060        33
23.080        37
23.100        30
23.120        23
23.140        30
23.160        47
23.180        17
23.200        50
23.220        40
23.240        27
23.260        27
23.280        33
23.300        27
23.320        50
23.340        37
23.360        23
23.380        50
23.400        50
23.420        43
23.440        23
23.460        43
23.480        37
23.500        37
23.520        10
23.540        27
23.560        40
23.580         3
23.600        33
23.620        43
23.640        33
23.660        33
23.680        47
23.700        33
23.720        37
23.740        20
23.760        17
23.780        13
23.800        50
23.820        20
23.840        43
23.860        37
23.880        27
23.900        20
23.920        27
23.940        30
23.960        33
23.980        40
24.000        33
24.020        17
24.040        40
24.060        30
24.080        33
24.100        37
24.120        40
24.140        43
24.160        23
24.180        30
24.200        33
24.220        23
24.240        43
24.260        47
24.280        20
24.300        30
24.320        23
24.340        23
24.360        33
24.380        23
24.400        30
24.420        50
24.440        27
24.460        23
24.480        37
24.500        23
24.520        23
24.540        33
24.560        30
24.580        20
24.600        37
24.620        10
24.640        50
24.660        27
24.680        47
24.700        43
24.720        33
24.740        37
24.760        27
24.780        40
24.800        30
24.820        33
24.840        23
24.860        23
24.880        40
24.900        40
24.920        37
24.940        17
24.960        37
24.980        30
25.000        27
25.020        23
25.040        37
25.060        33
25.080        30
25.100        20
25.120        30
25.140        23
25.160        27
25.180        43
25.200        37
25.220        53
25.240        30
25.260        30
25.280        47
25.300        30
25.320        17
25.340        37
25.360        10
25.380        27
25.400        27
25.420        37
25.440        17
25.460        23
25.480        37
25.500        37
25.520        40
25.540        37
25.560        23
25.580        37
25.600        30
25.620        17
25.640        30
25.660        20
25.680        40
25.700        20
25.720        33
25.740        30
25.760        30
25.780        17
25.800        37
25.820        40
25.840        37
25.860        20
25.880        37
25.900        17
25.920        40
25.940        27
25.960        30
25.980        27
26.000        27
26.020        13
26.040        53
26.060        33
26.080        17
26.100        27
26.120        27
26.140        40
26.160        23
26.180        33
26.200        33
26.220        20
26.240        10
26.260        33
26.280        17
26.300        20
26.320        30
26.340        23
26.360        40
26.380        27
26.400        37
26.420        33
26.440        40
26.460        23
26.480        10
26.500        33
26.520        27
26.540        30
26.560        20
26.580        30
26.600        20
26.620        33
26.640        33
26.660        23
26.680        23
26.700        37
26.720         7
26.740        23
26.760        10
26.780        17
26.800        47
26.820        17
26.840        20
26.860        27
26.880        50
26.900        47
26.920        27
26.940        27
26.960        10
26.980        23
27.000        23
27.020        33
27.040        17
27.060        30
27.080        17
27.100        37
27.120        23
27.140        17
27.160        23
27.180        20
27.200        20
27.220        37
27.240        27
27.260        27
27.280        30
27.300        33
27.320        37
27.340        30
27.360        27
27.380        27
27.400        27
27.420        23
27.440        37
27.460        33
27.480        30
27.500        17
27.520        23
27.540        33
27.560        43
27.580        23
27.600        30
27.620        47
27.640        20
27.660        27
27.680        27
27.700        20
27.720        47
27.740        17
27.760        27
27.780        30
27.800        13
27.820        13
27.840        30
27.860        27
27.880         7
27.900        20
27.920        23
27.940        27
27.960        37
27.980        27
28.000        47
28.020        20
28.040        30
28.060        17
28.080        30
28.100        17
28.120        27
28.140        20
28.160        33
28.180        27
28.200        37
28.220        23
28.240        17
28.260        20
28.280        20
28.300        10
28.320        13
28.340        33
28.360        23
28.380        13
28.400        17
28.420        27
28.440        40
28.460        27
28.480        30
28.500        23
28.520        20
28.540        23
28.560        17
28.580        20
28.600        23
28.620        23
28.640        37
28.660        40
28.680        40
28.700        27
28.720        27
28.740        13
28.760        27
28.780        13
28.800        27
28.820        20
28.840        20
28.860        17
28.880        40
28.900        37
28.920        30
28.940        20
28.960        33
28.980        27
29.000        30
29.020        30
29.040        27
29.060        30
29.080        13
29.100        43
29.120        40
29.140        37
29.160        17
29.180        63
29.200        27
29.220        33
29.240        37
29.260        40
29.280        23
29.300        27
29.320        30
29.340        33
29.360        33
29.380        27
29.400        27
29.420        13
29.440        27
29.460        47
29.480        27
29.500        17
29.520        30
29.540        27
29.560        27
29.580        17
29.600        40
29.620        13
29.640        27
29.660        23
29.680        30
29.700        23
29.720        23
29.740        33
29.760        17
29.780        17
29.800        23
29.820        27
29.840        13
29.860        13
29.880        20
29.900        37
29.920        13
29.940        33
29.960        37
29.980        30
30.000        33
30.020        13
30.040        30
30.060        17
30.080        27
30.100        23
30.120        20
30.140        47
30.160        23
30.180        40
30.200        30
30.220        47
30.240        27
30.260        40
30.280        30
30.300        30
30.320        20
30.340        23
30.360        30
30.380        23
30.400        33
30.420        33
30.440        33
30.460        67
30.480        47
30.500        57
30.520        57
30.540        77
30.560        77
30.580        73
30.600       110
30.620       100
30.640       130
30.660       157
30.680       123
30.700        73
30.720       140
30.740        57
30.760       103
30.780        67
30.800        43
30.820        50
30.840        40
30.860        50
30.880        20
30.900        33
30.920        13
30.940        63
30.960        30
30.980        13
31.000        47
31.020        47
31.040        20
31.060        47
31.080        43
31.100        27
31.120        47
31.140        17
31.160        17
31.180        40
31.200        13
31.220        27
31.240        30
31.260        23
31.280        27
31.300        23
31.320        33
31.340        17
31.360        23
31.380        23
31.400         7
31.420        30
31.440        13
31.460        23
31.480        13
31.500        13
31.520        20
31.540        30
31.560        10
31.580        40
31.600         7
31.620        23
31.640        30
31.660        23
31.680        37
31.700        10
31.720        43
31.740        17
31.760        17
31.780        23
31.800        13
31.820        20
31.840        10
31.860        17
31.880        17
31.900        37
31.920        17
31.940        17
31.960        13
31.980        10
32.000        27
32.020         7
32.040        17
32.060        13
32.080        27
32.100        17
32.120        20
32.140        20
32.160        13
32.180        30
32.200        17
32.220        23
32.240        33
32.260        27
32.280        20
32.300        17
32.320        37
32.340        23
32.360        17
32.380        13
32.400        13
32.420        17
32.440        10
32.460        33
32.480        30
32.500        27
32.520        17
32.540        40
32.560        37
32.580        20
32.600        13
32.620        27
32.640         3
32.660        10
32.680        20
32.700        13
32.720        30
32.740        20
32.760        30
32.780        20
32.800        20
32.820        13
32.840        20
32.860        37
32.880        30
32.900        23
32.920        20
32.940        47
32.960        17
32.980        33
33.000        27
33.020        23
33.040        20
33.060        13
33.080        20
33.100        23
33.120        27
33.140        10
33.160        13
33.180        20
33.200        23
33.220        17
33.240        20
33.260        17
33.280        10
33.300        47
33.320        30
33.340        23
33.360        20
33.380        17
33.400        33
33.420        40
33.440        17
33.460        20
33.480        13
33.500         7
33.520        13
33.540        17
33.560        20
33.580        47
33.600        27
33.620        13
33.640        30
33.660         3
33.680        10
33.700        20
33.720        10
33.740        27
33.760        20
33.780        17
33.800        20
33.820        13
33.840        20
33.860         3
33.880        27
33.900        23
33.920        13
33.940        33
33.960         7
33.980        20
34.000        23
34.020        33
34.040        20
34.060        27
34.080        17
34.100        43
34.120        33
34.140        10
34.160        30
34.180        23
34.200        23
34.220        13
34.240        33
34.260        20
34.280        20
34.300        27
34.320        17
34.340        43
34.360        40
34.380        10
34.400        10
34.420        10
34.440        10
34.460        13
34.480        23
34.500        33
34.520        13
34.540        17
34.560        10
34.580        33
34.600        27
34.620        17
34.640        13
34.660        20
34.680        17
34.700        23
34.720        13
34.740        13
34.760        30
34.780        10
34.800        27
34.820        17
34.840        17
34.860        40
34.880        13
34.900        10
34.920        20
34.940        23
34.960        27
34.980        10
35.000        13
35.020        20
35.040        23
35.060        23
35.080        13
35.100        10
35.120        13
35.140        10
35.160        23
35.180        30
35.200        23
35.220        20
35.240        10
35.260        23
35.280        10
35.300        23
35.320        37
35.340        23
35.360        33
35.380        27
35.400        23
35.420        23
35.440        20
35.460        37
35.480        23
35.500        13
35.520        13
35.540        17
35.560        17
35.580        23
35.600        10
35.620        23
35.640        23
35.660        23
35.680        27
35.700        13
35.720        33
35.740        10
35.760        37
35.780        33
35.800        27
35.820        17
35.840        20
35.860        17
35.880        37
35.900        33
35.920        23
35.940        23
35.960        30
35.980        37
36.000        17
36.020        20
36.040        13
36.060        13
36.080        13
36.100        27
36.120        17
36.140        17
36.160        33
36.180        10
36.200        13
36.220        20
36.240        23
36.260        30
36.280        30
36.300        20
36.320        27
36.340        17
36.360        17
36.380        17
36.400        30
36.420        27
36.440        23
36.460        27
36.480        43
36.500        43
36.520        20
36.540        43
36.560        13
36.580        10
36.600        40
36.620        20
36.640        30
36.660        27
36.680        20
36.700        10
36.720        10
36.740        30
36.760        37
36.780        50
36.800        37
36.820        40
36.840        23
36.860        23
36.880        17
36.900        23
36.920        17
36.940        40
36.960        13
36.980        10
37.000        27
37.020        33
37.040        23
37.060        33
37.080        33
37.100        40
37.120        37
37.140        20
37.160        27
37.180        33
37.200        43
37.220        17
37.240        23
37.260        20
37.280        23
37.300        33
37.320        23
37.340        30
37.360        37
37.380        23
37.400        37
37.420        37
37.440        37
37.460        27
37.480        57
37.500        47
37.520        67
37.540        63
37.560        87
37.580        93
37.600        83
37.620       123
37.640       123
37.660       153
37.680       213
37.700       260
37.720       293
37.740       383
37.760       553
37.780       616
37.800       856
37.820      1006
37.840      1210
37.860      1113
37.880       913
37.900       856
37.920       766
37.940       640
37.960       583
37.980       377
38.000       230
38.020       210
38.040       153
38.060       153
38.080        90
38.100        87
38.120        83
38.140        57
38.160        97
38.180        67
38.200        53
38.220        63
38.240        53
38.260        63
38.280        73
38.300        27
38.320        67
38.340        47
38.360        50
38.380        60
38.400        30
38.420        63
38.440        57
38.460        83
38.480        67
38.500        57
38.520        37
38.540        27
38.560        43
38.580        47
38.600        23
38.620        40
38.640        43
38.660        47
38.680        47
38.700        57
38.720        67
38.740        63
38.760        43
38.780        50
38.800        27
38.820        27
38.840        40
38.860        50
38.880        30
38.900        30
38.920        43
38.940        20
38.960        20
38.980        40
39.000        30
39.020        33
39.040        43
39.060        37
39.080        37
39.100        30
39.120        37
39.140        33
39.160        37
39.180        37
39.200        20
39.220        33
39.240        57
39.260        60
39.280        50
39.300        23
39.320        17
39.340        37
39.360        50
39.380        33
39.400        33
39.420        30
39.440        17
39.460        20
39.480        27
39.500        27
39.520        17
39.540        30
39.560        37
39.580        33
39.600        30
39.620        23
39.640        40
39.660        10
39.680         7
39.700        30
39.720        23
39.740        37
39.760        20
39.780        10
39.800        33
39.820        30
39.840        20
39.860        13
39.880         7
39.900        33
39.920        23
39.940        47
39.960        27
39.980        23
40.000        33
40.020        30
40.040        20
40.060        17
40.080        33
40.100        47
40.120        17
40.140        30
40.160        17
40.180        10
40.200        20
40.220        23
40.240        27
40.260        20
40.280        33
40.300        37
40.320        30
40.340        17
40.360        27
40.380        23
40.400        20
40.420        37
40.440        27
40.460        27
40.480        33
40.500        27
40.520        33
40.540        17
40.560        23
40.580        13
40.600        23
40.620        10
40.640        23
40.660        27
40.680        17
40.700        30
40.720        23
40.740        17
40.760        27
40.780        27
40.800        27
40.820        30
40.840        27
40.860        13
40.880        27
40.900        17
40.920        27
40.940        27
40.960        23
40.980        20
41.000        23
41.020        20
41.040        20
41.060        20
41.080        30
41.100        27
41.120        17
41.140        30
41.160        13
41.180        17
41.200        23
41.220        27
41.240        17
41.260        17
41.280        27
41.300        23
41.320        13
41.340        27
41.360        17
41.380        17
41.400        40
41.420        13
41.440        27
41.460        33
41.480        30
41.500        47
41.520        23
41.540        20
41.560        33
41.580        40
41.600        20
41.620        20
41.640        17
41.660        23
41.680        30
41.700        30
41.720        33
41.740        30
41.760        20
41.780        10
41.800        10
41.820        20
41.840        23
41.860        10
41.880        33
41.900         7
41.920        27
41.940        33
41.960        10
41.980        17
42.000        17
42.020        23
42.040         7
42.060        17
42.080        40
42.100        23
42.120        13
42.140        47
42.160        10
42.180        20
42.200        23
42.220         7
42.240        10
42.260        47
42.280         3
42.300        30
42.320        33
42.340        13
42.360        37
42.380        33
42.400        37
42.420        23
42.440         7
42.460        57
42.480        30
42.500        23
42.520        13
42.540        13
42.560        37
42.580        20
42.600        13
42.620        17
42.640        23
42.660        37
42.680        33
42.700        30
42.720        17
42.740        20
42.760        20
42.780        37
42.800        20
42.820        20
42.840        33
42.860        33
42.880        27
42.900        33
42.920        43
42.940        43
42.960        23
42.980        23
43.000        23
43.020        30
43.040        47
43.060        30
43.080        20
43.100        37
43.120        30
43.140        17
43.160        27
43.180        40
43.200        33
43.220        20
43.240        47
43.260        17
43.280        23
43.300        30
43.320        33
43.340        17
43.360        40
43.380        37
43.400        30
43.420        17
43.440         7
43.460        30
43.480        13
43.500        33
43.520        10
43.540        10
43.560        23
43.580        23
43.600        30
43.620        20
43.640        40
43.660        17
43.680        33
43.700        37
43.720        30
43.740        40
43.760        33
43.780        43
43.800        33
43.820        53
43.840        40
43.860        37
43.880        37
43.900        43
43.920        43
43.940        70
43.960        50
43.980        60
44.000        50
44.020        30
44.040        50
44.060        60
44.080        73
44.100        23
44.120        23
44.140        27
44.160        43
44.180        37
44.200        33
44.220        17
44.240        33
44.260        43
44.280        20
44.300        27
44.320        20
44.340        27
44.360        23
44.380        27
44.400        30
44.420        50
44.440        33
44.460        13
44.480        13
44.500        30
44.520        27
44.540        30
44.560        13
44.580        37
44.600        27
44.620        30
44.640        23
44.660        37
44.680         7
44.700        23
44.720        13
44.740        10
44.760        27
44.780        20
44.800        13
44.820        20
44.840        27
44.860        27
44.880        30
44.900        33
44.920        20
44.940        30
44.960        20
44.980        27
45.000        30
45.020        17
45.040        27
45.060        17
45.080         0
45.100        13
45.120        33
45.140        20
45.160        30
45.180        20
45.200        27
45.220        17
45.240        43
45.260        23
45.280        27
45.300        27
45.320         7
45.340        17
45.360        20
45.380        23
45.400        23
45.420        20
45.440        13
45.460        37
45.480        30
45.500        30
45.520        37
45.540        27
45.560        17
45.580        17
45.600        10
45.620        37
45.640        30
45.660        40
45.680        33
45.700        37
45.720        27
45.740        13
45.760        17
45.780        23
45.800        10
45.820         3
45.840        27
45.860        23
45.880        17
45.900        37
45.920        10
45.940        30
45.960         3
45.980        17
46.000        33
46.020        30
46.040        17
46.060        27
46.080        13
46.100        13
46.120        10
46.140        10
46.160        30
46.180        23
46.200        13
46.220        20
46.240        37
46.260        23
46.280        17
46.300        33
46.320        17
46.340        17
46.360        17
46.380        23
46.400        37
46.420        20
46.440        37
46.460        30
46.480        20
46.500        20
46.520        30
46.540        17
46.560        10
46.580        40
46.600        17
46.620        17
46.640        27
46.660        17
46.680        17
46.700        23
46.720        13
46.740        23
46.760        10
46.780        30
46.800        23
46.820        23
46.840        40
46.860        27
46.880        30
46.900        23
46.920        17
46.940        17
46.960        20
46.980        37
47.000        10
47.020        27
47.040        23
47.060        27
47.080        27
47.100        20
47.120        47
47.140        30
47.160        27
47.180        17
47.200        17
47.220        33
47.240        40
47.260        43
47.280        33
47.300        53
47.320        37
47.340        20
47.360        57
47.380        37
47.400        37
47.420         7
47.440        33
47.460        20
47.480        33
47.500        13
47.520        50
47.540        27
47.560        37
47.580        27
47.600        27
47.620        20
47.640        20
47.660        10
47.680        27
47.700        17
47.720        23
47.740        13
47.760        37
47.780        33
47.800        33
47.820        33
47.840        13
47.860        33
47.880        23
47.900        23
47.920         7
47.940        10
47.960        37
47.980        20
48.000        13
48.020        17
48.040        23
48.060        23
48.080        37
48.100        10
48.120        17
48.140        27
48.160        37
48.180        30
48.200        27
48.220        43
48.240        27
48.260        57
48.280        30
48.300        27
48.320        23
48.340        27
48.360        20
48.380        47
48.400        20
48.420        27
48.440        20
48.460        23
48.480        20
48.500        30
48.520         7
48.540        27
48.560        23
48.580         3
48.600        27
48.620        20
48.640        13
48.660        20
48.680        10
48.700        13
48.720        13
48.740        20
48.760        17
48.780        17
48.800        20
48.820        27
48.840        33
48.860        20
48.880        20
48.900        10
48.920        33
48.940        33
48.960        27
48.980        27
49.000        17
49.020        17
49.040        23
49.060        20
49.080        20
49.100         7
49.120        17
49.140        30
49.160        43
49.180        23
49.200         7
49.220        43
49.240        30
49.260        13
49.280        27
49.300        23
49.320        30
49.340        30
49.360        10
49.380        27
49.400        30
49.420        20
49.440        23
49.460        23
49.480        13
49.500        13
49.520        20
49.540         7
49.560        40
49.580         7
49.600        23
49.620        17
49.640        27
49.660        10
49.680         7
49.700        17
49.720        17
49.740        13
49.760         7
49.780        40
49.800        17
49.820        23
49.840        10
49.860        17
49.880        23
49.900        10
49.920        13
49.940         7
49.960        30
49.980        37
50.000        13
50.020        30
50.040        13
50.060        23
50.080        30
50.100        23
50.120        20
50.140        13
50.160        13
50.180        17
50.200        10
50.220         0
50.240        10
50.260        23
50.280        17
50.300        10
50.320        23
50.340        37
50.360        17
50.380        23
50.400        30
50.420        33
50.440        23
50.460        17
50.480        30
50.500        13
50.520        10
50.540        20
50.560        23
50.580        17
50.600        27
50.620        17
50.640         3
50.660        27
50.680        17
50.700        27
50.720        27
50.740        23
50.760        23
50.780        17
50.800        17
50.820         7
50.840        20
50.860        13
50.880        40
50.900        33
50.920        13
50.940        33
50.960        13
50.980        30
51.000        13
51.020        30
51.040        27
51.060        23
51.080        20
51.100        13
51.120         7
51.140        10
51.160        30
51.180        27
51.200         7
51.220        23
51.240        20
51.260        20
51.280        30
51.300         3
51.320        23
51.340        23
51.360        13
51.380        20
51.400        37
51.420        20
51.440        20
51.460        13
51.480        30
51.500        17
51.520        23
51.540        17
51.560        17
51.580         7
51.600        20
51.620        20
51.640        13
51.660        27
51.680         7
51.700        20
51.720        10
51.740        20
51.760        30
51.780        30
51.800        20
51.820        17
51.840        10
51.860        13
51.880        23
51.900        33
51.920        10
51.940        30
51.960        23
51.980        33
52.000        20
52.020        17
52.040        27
52.060        10
52.080        33
52.100        20
52.120        13
52.140        23
52.160        33
52.180        27
52.200        30
52.220        13
52.240        43
52.260        17
52.280        20
52.300        13
52.320        20
52.340        17
52.360        20
52.380        17
52.400        13
52.420        10
52.440        23
52.460        33
52.480        30
52.500        33
52.520        20
52.540        23
52.560        23
52.580        13
52.600        37
52.620        27
52.640        27
52.660        20
52.680        23
52.700        20
52.720        33
52.740        30
52.760        37
52.780        33
52.800        33
52.820        27
52.840        13
52.860        20
52.880        17
52.900        30
52.920        23
52.940        23
52.960        17
52.980        27
53.000        17
53.020        13
53.040        27
53.060         7
53.080        23
53.100         7
53.120        40
53.140        10
53.160        23
53.180        10
53.200        23
53.220         3
53.240        13
53.260        13
53.280        10
53.300        23
53.320         7
53.340        20
53.360        20
53.380        23
53.400        20
53.420        27
53.440        17
53.460        13
53.480        20
53.500        23
53.520        13
53.540        30
53.560        27
53.580         7
53.600        20
53.620         7
53.640        10
53.660        13
53.680        10
53.700        33
53.720        10
53.740        20
53.760        17
53.780        13
53.800        27
53.820         7
53.840        17
53.860        17
53.880        10
53.900        13
53.920         7
53.940        27
53.960        27
53.980        23
54.000        17
54.020        23
54.040        27
54.060        13
54.080        17
54.100        17
54.120        13
54.140         7
54.160        33
54.180        17
54.200        17
54.220        27
54.240        13
54.260        17
54.280        30
54.300        20
54.320        20
54.340        27
54.360        23
54.380        20
54.400        23
54.420        20
54.440        40
54.460        30
54.480        33
54.500        37
54.520        50
54.540        50
54.560        73
54.580        57
54.600        57
54.620        50
54.640        53
54.660        43
54.680        57
54.700        53
54.720        53
54.740        40
54.760        23
54.780        23
54.800        13
54.820        23
54.840        43
54.860        40
54.880        33
54.900        17
54.920        10
54.940        17
54.960        37
54.980        17
55.000        40
55.020        13
55.040         7
55.060        33
55.080        17
55.100        23
55.120        23
55.140        20
55.160        17
55.180        33
55.200        17
55.220        23
55.240        17
55.260        13
55.280        17
55.300        23
55.320        10
55.340        13
55.360         7
55.380        23
55.400        20
55.420        27
55.440        17
55.460        13
55.480        37
55.500        27
55.520        20
55.540        20
55.560         3
55.580        20
55.600         7
55.620        30
55.640        20
55.660        13
55.680        27
55.700        40
55.720        33
55.740        27
55.760        13
55.780        10
55.800        17
55.820        10
55.840        20
55.860        30
55.880        23
55.900         7
55.920        10
55.940        20
55.960         7
55.980         7
56.000        20
56.020        17
56.040        20
56.060         7
56.080         7
56.100        10
56.120         7
56.140        17
56.160        17
56.180        27
56.200         7
56.220        17
56.240        13
56.260        17
56.280        17
56.300        33
56.320        13
56.340         7
56.360        27
56.380        13
56.400        23
56.420        17
56.440        30
56.460        40
56.480        17
56.500        10
56.520        17
56.540        23
56.560        13
56.580        13
56.600        23
56.620        17
56.640        10
56.660        23
56.680        20
56.700        27
56.720        17
56.740        17
56.760        23
56.780        13
56.800        10
56.820        13
56.840        20
56.860        23
56.880        20
56.900         7
56.920        17
56.940        10
56.960        10
56.980        10
57.000        13
57.020        13
57.040        10
57.060        17
57.080        10
57.100        20
57.120        20
57.140        13
57.160        13
57.180        27
57.200         3
57.220        43
57.240        23
57.260        17
57.280        20
57.300        10
57.320        30
57.340        23
57.360        17
57.380        10
57.400        13
57.420        20
57.440        20
57.460        20
57.480        10
57.500         3
57.520        10
57.540        10
57.560        17
57.580         3
57.600         7
57.620         3
57.640        17
57.660        20
57.680        30
57.700        20
57.720        13
57.740        23
57.760        13
57.780        13
57.800         3
57.820        23
57.840         7
57.860        10
57.880        10
57.900        13
57.920        20
57.940        20
57.960        10
57.980        20
58.000        40
58.020        10
58.040        13
58.060        20
58.080         3
58.100        10
58.120        13
58.140        17
58.160         7
58.180        13
58.200        13
58.220        20
58.240        10
58.260        10
58.280         3
58.300        17
58.320        10
58.340        17
58.360         3
58.380        10
58.400        10
58.420        13
58.440        17
58.460        13
58.480        13
58.500        30
58.520        27
58.540        10
58.560         3
58.580        20
58.600        10
58.620        23
58.640        17
58.660        23
58.680         0
58.700        17
58.720        17
58.740        17
58.760        10
58.780        13
58.800        13
58.820        27
58.840         3
58.860         3
58.880         3
58.900        13
58.920        20
58.940        13
58.960        13
58.980        17
59.000        13
59.020        17
59.040        10
59.060        23
59.080        23
59.100        10
59.120         3
59.140         7
59.160        33
59.180        20
59.200        27
59.220        23
59.240        10
59.260        13
59.280        20
59.300        20
59.320        20
59.340        10
59.360        13
59.380        20
59.400        17
59.420        30
59.440        23
59.460         0
59.480        23
59.500        17
59.520        13
59.540         3
59.560        10
59.580        23
59.600        13
59.620        17
59.640        17
59.660         0
59.680         0
59.700         3
59.720         0
59.740         0
59.760         0
59.780         0
59.800         0
59.820         0
59.840         0
59.860         0
59.880         0
59.900         0
59.920         0
59.940         0
59.960         0
59.980         0
60.000         0
