20.000        97
20.020        97
20.040       117
20.060       113
20.080       127
20.100        93
20.120        90
20.140       113
20.160       120
20.180       120
20.200       103
20.220       110
20.240       110
20.260       133
20.280       100
20.300        77
20.320       137
20.340       170
20.360       127
20.380       157
20.400       100
20.420       100
20.440       177
20.460       123
20.480       127
20.500       150
20.520       113
20.540       140
20.560       110
20.580        93
20.600       123
20.620       140
20.640       160
20.660       150
20.680       120
20.700       137
20.720       160
20.740       157
20.760       163
20.780       130
20.800       133
20.820       147
20.840       153
20.860       137
20.880       157
20.900       143
20.920       167
20.940       130
20.960       133
20.980       167
21.000       130
21.020       170
21.040       133
21.060       163
21.080       150
21.100       133
21.120       117
21.140       150
21.160       103
21.180       137
21.200       173
21.220       133
21.240       123
21.260       133
21.280       133
21.300       167
21.320       180
21.340       167
21.360       137
21.380       180
21.400       167
21.420       183
21.440       160
21.460       160
21.480       157
21.500       170
21.520       137
21.540       123
21.560       220
21.580       177
21.600       170
21.620       147
21.640       203
21.660       140
21.680       133
21.700       150
21.720       153
21.740       183
21.760       147
21.780       223
21.800       147
21.820       180
21.840       190
21.860       167
21.880       223
21.900       217
21.920       177
21.940       180
21.960       217
21.980       240
22.000       173
22.020       230
22.040       180
22.060       193
22.080       227
22.100       203
22.120       193
22.140       210
22.160       213
22.180       253
22.200       230
22.220       170
22.240       247
22.260       190
22.280       217
22.300       217
22.320       230
22.340       180
22.360       210
22.380       227
22.400       207
22.420       303
22.440       243
22.460       230
22.480       253
22.500       253
22.520       250
22.540       230
22.560       243
22.580       250
22.600       193
22.620       227
22.640       250
22.660       267
22.680       300
22.700       290
22.720       237
22.740       293
22.760       240
22.780       263
22.800       220
22.820       267
22.840       253
22.860       297
22.880       283
22.900       320
22.920       280
22.940       290
22.960       233
22.980       340
23.000       290
23.020       247
23.040       317
23.060       253
23.080       353
23.100       313
23.120       393
23.140       456
23.160       480
23.180       377
23.200       243
23.220       283
23.240       267
23.260       257
23.280       310
23.300       233
23.320       300
23.340       313
23.360       303
23.380       293
23.400       267
23.420       303
23.440       303
23.460       340
23.480       303
23.500       347
23.520       327
23.540       270
23.560       243
23.580       317
23.600       413
23.620       337
23.640       330
23.660       310
23.680       287
23.700       280
23.720       330
23.740       347
23.760       317
23.780       330
23.800       377
23.820       250
23.840       280
23.860       260
23.880       393
23.900       360
23.920       283
23.940       300
23.960       320
23.980       320
24.000       343
24.020       420
24.040       283
24.060       377
24.080       267
24.100       327
24.120       383
24.140       357
24.160       360
24.180       317
24.200       313
24.220       273
24.240       297
24.260       363
24.280       320
24.300       353
24.320       360
24.340       333
24.360       327
24.380       350
24.400       443
24.420       283
24.440       350
24.460       333
24.480       343
24.500       293
24.520       337
24.540       313
24.560       293
24.580       357
24.600       350
24.620       327
24.640       423
24.660       317
24.680       350
24.700       380
24.720       387
24.740       320
24.760       333
24.780       333
24.800       383
24.820       393
24.840       353
24.860       353
24.880       347
24.900       373
24.920       473
24.940       377
24.960       347
24.980       387
25.000       350
25.020       403
25.040       377
25.060       350
25.080       420
25.100       347
25.120       363
25.140       353
25.160       373
25.180       370
25.200       393
25.220       410
25.240       446
25.260       387
25.280       327
25.300       357
25.320       377
25.340       353
25.360       353
25.380       430
25.400       463
25.420       456
25.440       583
25.460       610
25.480       723
25.500       813
25.520      1023
25.540      1150
25.560      1366
25.580      1829
25.600      4395
25.620      9476
25.640     13515
25.660     14677
25.680     14034
25.700     10532
25.720      8020
25.740      6144
25.760      3542
25.780      1476
25.800       863
25.820       666
25.840       570
25.860       483
25.880       426
25.900       443
25.920       436
25.940       436
25.960       397
25.980       443
26.000       453
26.020       423
26.040       330
26.060       370
26.080       373
26.100       370
26.120       397
26.140       380
26.160       383
26.180       413
26.200       393
26.220       363
26.240       380
26.260       330
26.280       323
26.300       383
26.320       397
26.340       327
26.360       277
26.380       317
26.400       400
26.420       330
26.440       387
26.460       373
26.480       370
26.500       347
26.520       377
26.540       397
26.560       393
26.580       367
26.600       370
26.620       307
26.640       357
26.660       367
26.680       347
26.700       353
26.720       353
26.740       340
26.760       377
26.780       347
26.800       343
26.820       340
26.840       343
26.860       287
26.880       403
26.900       340
26.920       387
26.940       417
26.960       380
26.980       367
27.000       327
27.020       383
27.040       393
27.060       317
27.080       430
27.100       387
27.120       297
27.140       293
27.160       320
27.180       363
27.200       317
27.220       367
27.240       350
27.260       313
27.280       373
27.300       377
27.320       357
27.340       340
27.360       327
27.380       360
27.400       327
27.420       283
27.440       353
27.460       353
27.480       373
27.500       353
27.520       377
27.540       330
27.560       313
27.580       377
27.600       313
27.620       410
27.640       337
27.660       383
27.680       300
27.700       353
27.720       370
27.740       363
27.760       330
27.780       400
27.800       347
27.820       283
27.840       333
27.860       370
27.880       367
27.900       337
27.920       363
27.940       323
27.960       343
27.980       320
28.000       363
28.020       310
28.040       297
28.060       343
28.080       343
28.100       347
28.120       483
28.140       337
28.160       300
28.180       350
28.200       357
28.220       330
28.240       333
28.260       387
28.280       323
28.300       360
28.320       380
28.340       370
28.360       353
28.380       273
28.400       313
28.420       263
28.440       313
28.460       360
28.480       337
28.500       267
28.520       410
28.540       303
28.560       320
28.580       350
28.600       363
28.620       367
28.640       310
28.660       383
28.680       317
28.700       317
28.720       353
28.740       367
28.760       417
28.780       310
28.800       323
28.820       367
28.840       320
28.860       290
28.880       373
28.900       350
28.920       300
28.940       343
28.960       313
28.980       357
29.000       297
29.020       327
29.040       373
29.060       333
29.080       317
29.100       323
29.120       340
29.140       270
29.160       333
29.180       337
29.200       360
29.220       337
29.240       347
29.260       353
29.280       373
29.300       350
29.320       377
29.340       370
29.360       300
29.380       267
29.400       317
29.420       320
29.440       263
29.460       333
29.480       280
29.500       290
29.520       360
29.540       297
29.560       323
29.580       277
29.600       277
29.620       387
29.640       283
29.660       337
29.680       313
29.700       327
29.720       317
29.740       303
29.760       343
29.780       327
29.800       290
29.820       267
29.840       277
29.860       243
29.880       303
29.900       353
29.920       343
29.940       277
29.960       327
29.980       233
30.000       337
30.020       307
30.040       283
30.060       270
30.080       307
30.100       287
30.120       257
30.140       317
30.160       353
30.180       253
30.200       300
30.220       260
30.240       293
30.260       290
30.280       303
30.300       283
30.320       273
30.340       310
30.360       297
30.380       340
30.400       253
30.420       313
30.440       307
30.460       250
30.480       280
30.500       287
30.520       283
30.540       313
30.560       280
30.580       250
30.600       237
30.620       250
30.640       243
30.660       283
30.680       280
30.700       243
30.720       287
30.740       290
30.760       250
30.780       273
30.800       307
30.820       303
30.840       270
30.860       283
30.880       290
30.900       223
30.920       267
30.940       263
30.960       280
30.980       313
31.000       240
31.020       383
31.040       317
31.060       360
31.080       313
31.100       340
31.120       383
31.140       460
31.160       383
31.180       337
31.200       337
31.220       267
31.240       323
31.260       270
31.280       270
31.300       337
31.320       233
31.340       293
31.360       260
31.380       290
31.400       237
31.420       237
31.440       197
31.460       283
31.480       270
31.500       247
31.520       183
31.540       277
31.560       237
31.580       230
31.600       257
31.620       223
31.640       270
31.660       277
31.680       253
31.700       187
31.720       213
31.740       213
31.760       213
31.780       200
31.800       150
31.820       267
31.840       197
31.860       193
31.880       220
31.900       227
31.920       213
31.940       213
31.960       227
31.980       227
32.000       230
32.020       197
32.040       220
32.060       190
32.080       133
32.100       200
32.120       190
32.140       180
32.160       203
32.180       240
32.200       203
32.220       213
32.240       220
32.260       207
32.280       210
32.300       227
32.320       170
32.340       193
32.360       167
32.380       233
32.400       170
32.420       173
32.440       223
32.460       210
32.480       183
32.500       207
32.520       200
32.540       210
32.560       240
32.580       183
32.600       197
32.620       167
32.640       160
32.660       163
32.680       227
32.700       153
32.720       123
32.740       203
32.760       143
32.780       207
32.800       183
32.820       210
32.840       157
32.860       183
32.880       157
32.900       173
32.920       207
32.940       187
32.960       180
32.980       197
33.000       140
33.020       203
33.040       157
33.060       160
33.080       197
33.100       157
33.120       157
33.140       153
33.160       167
33.180       177
33.200       163
33.220       150
33.240       173
33.260       177
33.280       177
33.300       180
33.320       157
33.340       207
33.360       137
33.380       190
33.400       167
33.420       187
33.440       177
33.460       160
33.480       190
33.500       173
33.520       167
33.540       163
33.560       193
33.580       120
33.600       220
33.620       170
33.640       143
33.660       143
33.680       183
33.700       147
33.720       167
33.740       157
33.760       147
33.780       143
33.800       110
33.820       207
33.840       183
33.860       133
33.880       123
33.900       180
33.920       180
33.940       140
33.960       160
33.980       150
34.000       190
34.020       150
34.040       183
34.060       133
34.080       157
34.100       143
34.120       170
34.140       140
34.160       143
34.180       167
34.200       117
34.220       173
34.240       167
34.260       180
34.280       150
34.300       173
34.320       190
34.340       120
34.360       113
34.380       197
34.400       193
34.420       163
34.440       177
34.460       183
34.480       180
34.500       157
34.520       140
34.540       127
34.560       147
34.580       130
34.600       167
34.620       123
34.640       157
34.660       113
34.680       133
34.700       160
34.720       117
34.740       120
34.760       147
34.780       173
34.800       137
34.820       153
34.840       137
34.860       160
34.880       160
34.900       157
34.920       140
34.940       147
34.960       127
34.980       117
35.000       147
35.020       133
35.040       150
35.060       110
35.080       133
35.100       103
35.120       143
35.140       140
35.160       120
35.180       103
35.200        97
35.220       103
35.240        97
35.260       117
35.280       150
35.300       160
35.320       113
35.340       130
35.360       127
35.380       133
35.400       137
35.420        90
35.440       133
35.460        97
35.480       160
35.500       133
35.520       147
35.540       107
35.560       110
35.580       107
35.600       100
35.620       133
35.640       140
35.660       197
35.680       143
35.700       127
35.720       107
35.740       117
35.760       117
35.780       113
35.800        97
35.820       117
35.840       113
35.860       143
35.880       127
35.900       107
35.920        87
35.940       123
35.960       107
35.980       130
36.000       100
36.020        80
36.040       113
36.060       100
36.080       130
36.100       123
36.120       103
36.140       103
36.160       137
36.180       107
36.200       100
36.220       113
36.240        90
36.260        87
36.280        90
36.300       130
36.320       100
36.340       150
36.360       100
36.380       103
36.400        63
36.420       117
36.440        90
36.460       133
36.480       120
36.500        87
36.520       113
36.540        80
36.560        93
36.580       120
36.600       110
36.620        97
36.640        93
36.660        97
36.680       103
36.700       107
36.720       133
36.740       117
36.760        93
36.780        87
36.800       120
36.820        80
36.840       147
36.860        97
36.880       120
36.900       100
36.920        93
36.940        70
36.960        57
36.980       107
37.000       103
37.020       103
37.040       103
37.060        87
37.080        90
37.100       120
37.120        80
37.140       107
37.160       103
37.180       113
37.200       103
37.220       103
37.240       113
37.260       110
37.280       107
37.300        97
37.320       147
37.340        90
37.360       127
37.380       143
37.400       113
37.420        93
37.440       120
37.460        97
37.480       157
37.500        83
37.520        97
37.540       107
37.560        70
37.580       120
37.600        93
37.620       147
37.640        77
37.660       103
37.680       110
37.700       113
37.720       117
37.740       113
37.760       130
37.780       143
37.800       120
37.820        93
37.840       163
37.860       133
37.880       113
37.900       143
37.920       157
37.940       117
37.960       170
37.980       133
38.000       153
38.020       183
38.040       153
38.060       213
38.080       190
38.100       263
38.120       233
38.140       333
38.160       327
38.180       383
38.200       553
38.220       676
38.240       956
38.260      1216
38.280      1786
38.300      2026
38.320      2199
38.340      2492
38.360      2642
38.380      2399
38.400      2386
38.420      2139
38.440      1999
38.460      1603
38.480      1319
38.500      1146
38.520       896
38.540       740
38.560       556
38.580       393
38.600       310
38.620       220
38.640       200
38.660       163
38.680       193
38.700       187
38.720       160
38.740       143
38.760       137
38.780       107
38.800       137
38.820       130
38.840       137
38.860       147
38.880       163
38.900       107
38.920        83
38.940       117
38.960        83
38.980       103
39.000        87
39.020       143
39.040       117
39.060        80
39.080       113
39.100        63
39.120        97
39.140       110
39.160        77
39.180       103
39.200        80
39.220        77
39.240       130
39.260        80
39.280       100
39.300        90
39.320       110
39.340        90
39.360       107
39.380        80
39.400        90
39.420        80
39.440        90
39.460        67
39.480        83
39.500        50
39.520        97
39.540        70
39.560        73
39.580        73
39.600        83
39.620        70
39.640        53
39.660        67
39.680        83
39.700        80
39.720        90
39.740        70
39.760        83
39.780        80
39.800        87
39.820        90
39.840        57
39.860        80
39.880        80
39.900        67
39.920        80
39.940        50
39.960        50
39.980        67
40.000        63
40.020        70
40.040        67
40.060        83
40.080        93
40.100        57
40.120        73
40.140        70
40.160        87
40.180        93
40.200        53
40.220        73
40.240        60
40.260        43
40.280        53
40.300        53
40.320        63
40.340        67
40.360        87
40.380        60
40.400        97
40.420        80
40.440        50
40.460        27
40.480        57
40.500        83
40.520        60
40.540        67
40.560        50
40.580        50
40.600        73
40.620        53
40.640        40
40.660        63
40.680        60
40.700        50
40.720        57
40.740        53
40.760        80
40.780        63
40.800        63
40.820        47
40.840        43
40.860        67
40.880        57
40.900        43
40.920        73
40.940        57
40.960        80
40.980        77
41.000        70
41.020        43
41.040        70
41.060        53
41.080        57
41.100        50
41.120        77
41.140        87
41.160        77
41.180        80
41.200        53
41.220        67
41.240        73
41.260        73
41.280        63
41.300        47
41.320        87
41.340        70
41.360        40
41.380        63
41.400        67
41.420        60
41.440        50
41.460        57
41.480        53
41.500        67
41.520        63
41.540        53
41.560        73
41.580        50
41.600        77
41.620        67
41.640        63
41.660        33
41.680        67
41.700        57
41.720        37
41.740        67
41.760        80
41.780        67
41.800        70
41.820        63
41.840        57
41.860        63
41.880        60
41.900        47
41.920        47
41.940        50
41.960        33
41.980        33
42.000        80
42.020        50
42.040        37
42.060        57
42.080        60
42.100        53
42.120        63
42.140        60
42.160        53
42.180        87
42.200        47
42.220        70
42.240        40
42.260        57
42.280        40
42.300        33
42.320        70
42.340        40
42.360        43
42.380        87
42.400        37
42.420        43
42.440        67
42.460        60
42.480        67
42.500        60
42.520        37
42.540        70
42.560        63
42.580        70
42.600        77
42.620        47
42.640        47
42.660        27
42.680        40
42.700        27
42.720        50
42.740        57
42.760        73
42.780        60
42.800        83
42.820        50
42.840        50
42.860        60
42.880        77
42.900        30
42.920        33
42.940        33
42.960        57
42.980        80
43.000        53
43.020        60
43.040        67
43.060        50
43.080        43
43.100        70
43.120        57
43.140        83
43.160        57
43.180        27
43.200        57
43.220        60
43.240        40
43.260        40
43.280        37
43.300        80
43.320        70
43.340        37
43.360        50
43.380        37
43.400        80
43.420        43
43.440        80
43.460        37
43.480        53
43.500        63
43.520        47
43.540        47
43.560        60
43.580        60
43.600        67
43.620        37
43.640        27
43.660        40
43.680        37
43.700        43
43.720        20
43.740        37
43.760        33
43.780        47
43.800        30
43.820        60
43.840        57
43.860        53
43.880        67
43.900        40
43.920        63
43.940        57
43.960        37
43.980        37
44.000        37
44.020        60
44.040        53
44.060        50
44.080        70
44.100        37
44.120        30
44.140        43
44.160        57
44.180        37
44.200        50
44.220        60
44.240        57
44.260        37
44.280        67
44.300        53
44.320        50
44.340        50
44.360        50
44.380        57
44.400        47
44.420        53
44.440        43
44.460        57
44.480        83
44.500        87
44.520        37
44.540        80
44.560        63
44.580        67
44.600        67
44.620        73
44.640        77
44.660        73
44.680        60
44.700        60
44.720        57
44.740        43
44.760        70
44.780        40
44.800        77
44.820        50
44.840        57
44.860        33
44.880        43
44.900        57
44.920        43
44.940        53
44.960        70
44.980        60
45.000        43
45.020        70
45.040        43
45.060        63
45.080        50
45.100        47
45.120        43
45.140        50
45.160        37
45.180        27
45.200        37
45.220        47
45.240        57
45.260        47
45.280        53
45.300        43
45.320        77
45.340        53
45.360        63
45.380        47
45.400        50
45.420        30
45.440        70
45.460        47
45.480        50
45.500        47
45.520        43
45.540        67
45.560        17
45.580        27
45.600        37
45.620        50
45.640        37
45.660        57
45.680        47
45.700        50
45.720        40
45.740        43
45.760        33
45.780        43
45.800        47
45.820        30
45.840        67
45.860        30
45.880        60
45.900        50
45.920        47
45.940        47
45.960        43
45.980        50
46.000        40
46.020        53
46.040        50
46.060        53
46.080        50
46.100        47
46.120        43
46.140        50
46.160        47
46.180        53
46.200        37
46.220        30
46.240        60
46.260        43
46.280        57
46.300        43
46.320        47
46.340        27
46.360        47
46.380        37
46.400        27
46.420        40
46.440        43
46.460        63
46.480        47
46.500        53
46.520        50
46.540        37
46.560        50
46.580        57
46.600        30
46.620        40
46.640        50
46.660        43
46.680        57
46.700        57
46.720        43
46.740        53
46.760        43
46.780        50
46.800        63
46.820        53
46.840        87
46.860        83
46.880        67
46.900        60
46.920        77
46.940        67
46.960        80
46.980        87
47.000       103
47.020        80
47.040        87
47.060        83
47.080        77
47.100        93
47.120       130
47.140       130
47.160       183
47.180       330
47.200       613
47.220       886
47.240      1070
47.260      1013
47.280       686
47.300       397
47.320       203
47.340       153
47.360       100
47.380       120
47.400        97
47.420       107
47.440       103
47.460       130
47.480        90
47.500        90
47.520        63
47.540        67
47.560        97
47.580        90
47.600        60
47.620        53
47.640        63
47.660        83
47.680        63
47.700        60
47.720        80
47.740        53
47.760        73
47.780        40
47.800        70
47.820        60
47.840        33
47.860        50
47.880        63
47.900        47
47.920        70
47.940        57
47.960        47
47.980        30
48.000        40
48.020        73
48.040        40
48.060        53
48.080        47
48.100        53
48.120        33
48.140        47
48.160        60
48.180        43
48.200        47
48.220        53
48.240        70
48.260        50
48.280        57
48.300        40
48.320        40
48.340        43
48.360        60
48.380        57
48.400        87
48.420       100
48.440        73
48.460        60
48.480        50
48.500        57
48.520        63
48.540        57
48.560        53
48.580        47
48.600        40
48.620        67
48.640        57
48.660        47
48.680        57
48.700        33
48.720        53
48.740        50
48.760        53
48.780        43
48.800        60
48.820        30
48.840        60
48.860        53
48.880        30
48.900        37
48.920        57
48.940        37
48.960        43
48.980        70
49.000        43
49.020        63
49.040        40
49.060        53
49.080        53
49.100        47
49.120        50
49.140        60
49.160        17
49.180        73
49.200        50
49.220        47
49.240        73
49.260        37
49.280        37
49.300        73
49.320        43
49.340        43
49.360        47
49.380        77
49.400        53
49.420        57
49.440        40
49.460        47
49.480        80
49.500        30
49.520        47
49.540        43
49.560        57
49.580        20
49.600        50
49.620        30
49.640        27
49.660        70
49.680        27
49.700        43
49.720        53
49.740        33
49.760        50
49.780        57
49.800        57
49.820        53
49.840        53
49.860        50
49.880        40
49.900        33
49.920        50
49.940        50
49.960        50
49.980        33
50.000        53
50.020        47
50.040        53
50.060        43
50.080        50
50.100        60
50.120        63
50.140        47
50.160        57
50.180        57
50.200        47
50.220        60
50.240        40
50.260        43
50.280        27
50.300        47
50.320        33
50.340        60
50.360        43
50.380        50
50.400        53
50.420        53
50.440        60
50.460        77
50.480        57
50.500        57
50.520        40
50.540        40
50.560        60
50.580        47
50.600        63
50.620        67
50.640        63
50.660        73
50.680        93
50.700       160
50.720       143
50.740       203
50.760       260
50.780       203
50.800       230
50.820       293
50.840       250
50.860       240
50.880       213
50.900       207
50.920       247
50.940       230
50.960       280
50.980       217
51.000       233
51.020       233
51.040       240
51.060       217
51.080       233
51.100       237
51.120       217
51.140       237
51.160       200
51.180       270
51.200       193
51.220       260
51.240       267
51.260       220
51.280       240
51.300       203
51.320       240
51.340       247
51.360       227
51.380       287
51.400       280
51.420       227
51.440       197
51.460       243
51.480       260
51.500       217
51.520       227
51.540       270
51.560       203
51.580       293
51.600       230
51.620       223
51.640       200
51.660       253
51.680       207
51.700       233
51.720       210
51.740       260
51.760       237
51.780       247
51.800       213
51.820       283
51.840       240
51.860       230
51.880       263
51.900       283
51.920       310
51.940       293
51.960       267
51.980       320
52.000       267
52.020       263
52.040       270
52.060       290
52.080       347
52.100       340
52.120       320
52.140       327
52.160       370
52.180       353
52.200       436
52.220       380
52.240       506
52.260       513
52.280       586
52.300       693
52.320       716
52.340      1033
52.360      1499
52.380      1779
52.400      2139
52.420      2786
52.440      3015
52.460      3682
52.480      4025
52.500      4768
52.520      5948
52.540      8057
52.560     14388
52.580     33393
52.600     63501
52.620     86559
52.640     93746
52.660     77006
52.680     46971
52.700     25456
52.720     24117
52.740     36479
52.760     47504
52.780     49124
52.800     40237
52.820     23794
52.840     10576
52.860      5128
52.880      3299
52.900      2522
52.920      1983
52.940      1489
52.960      1140
52.980      1013
53.000       873
53.020       770
53.040       700
53.060       640
53.080       546
53.100       446
53.120       450
53.140       456
53.160       393
53.180       390
53.200       337
53.220       373
53.240       347
53.260       360
53.280       323
53.300       320
53.320       353
53.340       293
53.360       293
53.380       327
53.400       277
53.420       300
53.440       230
53.460       277
53.480       287
53.500       257
53.520       283
53.540       293
53.560       267
53.580       243
53.600       243
53.620       223
53.640       227
53.660       187
53.680       200
53.700       213
53.720       257
53.740       157
53.760       223
53.780       183
53.800       180
53.820       187
53.840       157
53.860       180
53.880       203
53.900       213
53.920       173
53.940       193
53.960       207
53.980       147
54.000       127
54.020       153
54.040       233
54.060       237
54.080       157
54.100       157
54.120       177
54.140       180
54.160       193
54.180       183
54.200       150
54.220       177
54.240       193
54.260       150
54.280       177
54.300       200
54.320       100
54.340       187
54.360       147
54.380       107
54.400       137
54.420       123
54.440       183
54.460       153
54.480       133
54.500       153
54.520       130
54.540       177
54.560       180
54.580       153
54.600       133
54.620       137
54.640       183
54.660        90
54.680       180
54.700       177
54.720       147
54.740       110
54.760       140
54.780       130
54.800       117
54.820       157
54.840       140
54.860       153
54.880       173
54.900       107
54.920       140
54.940       173
54.960       130
54.980       153
55.000       103
55.020       140
55.040       133
55.060       163
55.080       137
55.100       163
55.120       157
55.140       140
55.160       113
55.180       140
55.200       120
55.220       170
55.240       143
55.260       170
55.280       153
55.300       157
55.320       183
55.340       177
55.360       143
55.380       173
55.400       170
55.420       193
55.440       147
55.460       167
55.480       160
55.500       160
55.520       137
55.540        87
55.560       143
55.580       153
55.600       157
55.620       153
55.640       143
55.660       137
55.680       143
55.700        80
55.720       113
55.740       107
55.760       120
55.780       133
55.800       123
55.820       117
55.840       163
55.860       110
55.880       103
55.900       117
55.920       117
55.940       100
55.960       127
55.980       130
56.000       150
56.020       123
56.040       120
56.060       130
56.080       103
56.100       147
56.120       107
56.140        97
56.160        93
56.180        97
56.200        87
56.220       130
56.240       107
56.260        67
56.280       107
56.300       117
56.320       123
56.340       100
56.360       103
56.380       143
56.400       133
56.420        90
56.440        90
56.460       117
56.480       130
56.500        83
56.520       127
56.540       120
56.560        97
56.580        73
56.600       127
56.620       110
56.640       117
56.660       100
56.680       133
56.700       100
56.720        93
56.740       107
56.760       120
56.780       117
56.800       107
56.820       103
56.840       117
56.860       113
56.880        77
56.900       110
56.920       130
56.940        90
56.960       130
56.980       120
57.000        83
57.020        87
57.040        70
57.060       117
57.080       127
57.100       130
57.120       110
57.140       130
57.160       110
57.180        93
57.200        60
57.220        70
57.240        97
57.260       110
57.280        83
57.300       100
57.320       117
57.340        83
57.360        83
57.380        93
57.400        70
57.420       100
57.440       103
57.460        83
57.480       110
57.500       103
57.520        57
57.540        87
57.560        73
57.580        57
57.600        73
57.620       110
57.640        83
57.660       107
57.680       117
57.700        83
57.720       120
57.740        90
57.760        83
57.780        80
57.800        90
57.820       117
57.840       100
57.860        87
57.880        70
57.900        67
57.920       107
57.940        70
57.960        77
57.980        70
58.000        90
58.020        83
58.040        87
58.060        63
58.080       100
58.100       117
58.120        53
58.140        67
58.160        77
58.180        80
58.200        73
58.220       110
58.240       100
58.260        87
58.280        77
58.300       100
58.320        77
58.340        90
58.360        80
58.380        53
58.400        70
58.420        60
58.440        87
58.460        93
58.480        70
58.500        57
58.520        87
58.540        80
58.560        87
58.580        90
58.600        73
58.620        57
58.640       107
58.660        90
58.680        60
58.700        80
58.720        97
58.740        63
58.760        90
58.780        83
58.800        77
58.820        43
58.840        77
58.860        97
58.880        80
58.900        93
58.920        97
58.940        77
58.960        90
58.980       107
59.000        70
59.020        83
59.040        90
59.060        77
59.080        77
59.100        80
59.120        80
59.140        60
59.160        80
59.180       100
59.200        77
59.220        97
59.240        57
59.260        77
59.280        90
59.300        57
59.320        63
59.340        97
59.360        67
59.380        73
59.400        47
59.420        87
59.440        73
59.460        83
59.480        80
59.500        90
59.520        70
59.540        80
59.560        77
59.580        70
59.600        70
59.620        57
59.640        67
59.660        83
59.680        63
59.700        80
59.720        67
59.740        60
59.760        90
59.780        77
59.800        63
59.820        80
59.840        43
59.860       107
59.880        70
59.900        67
59.920        73
59.940        57
59.960        73
59.980        67
60.000        67
