20.000        37
20.020        37
20.040        30
20.060        33
20.080        47
20.100        50
20.120        53
20.140        60
20.160        43
20.180        60
20.200        43
20.220        53
20.240        47
20.260        47
20.280        27
20.300        33
20.320        70
20.340        57
20.360        40
20.380        53
20.400        50
20.420        67
20.440        30
20.460        57
20.480        43
20.500        53
20.520        30
20.540        23
20.560        50
20.580        63
20.600        60
20.620        30
20.640        23
20.660        33
20.680        33
20.700        47
20.720        37
20.740        47
20.760        60
20.780        43
20.800        57
20.820        37
20.840        50
20.860        70
20.880        47
20.900        47
20.920        57
20.940        37
20.960        27
20.980        73
21.000        47
21.020        33
21.040        53
21.060        40
21.080        50
21.100        53
21.120        47
21.140        40
21.160        40
21.180        43
21.200        47
21.220        57
21.240        30
21.260        60
21.280        43
21.300        17
21.320        27
21.340        67
21.360        57
21.380        57
21.400        47
21.420        53
21.440        53
21.460        47
21.480        47
21.500        33
21.520        57
21.540        20
21.560        40
21.580        27
21.600        53
21.620        50
21.640        37
21.660        37
21.680        47
21.700        53
21.720        43
21.740        50
21.760        30
21.780        27
21.800        63
21.820        53
21.840        40
21.860        33
21.880        53
21.900        43
21.920        37
21.940        30
21.960        43
21.980        47
22.000        53
22.020        47
22.040        27
22.060        30
22.080        40
22.100        27
22.120        37
22.140        33
22.160        40
22.180        27
22.200        60
22.220        27
22.240        37
22.260        27
22.280        43
22.300        30
22.320        43
22.340        43
22.360        30
22.380        20
22.400        37
22.420        53
22.440        57
22.460        63
22.480        43
22.500        67
22.520        37
22.540        47
22.560        43
22.580        30
22.600        40
22.620        47
22.640        43
22.660        40
22.680        33
22.700        27
22.720        33
22.740        50
22.760        37
22.780        43
22.800        53
22.820        43
22.840        43
22.860        50
22.880        33
22.900        50
22.920        20
22.940        37
22.960        40
22.980        33
23.000        47
23.020        40
23.040        20
23.060        33
23.080        30
23.100        27
23.120        23
23.140        43
23.160        33
23.180        37
23.200        50
23.220        33
23.240        33
23.260        40
23.280        47
23.300        27
23.320        40
23.340        23
23.360        17
23.380        37
23.400        23
23.420        40
23.440        30
23.460        43
23.480        40
23.500        33
23.520        30
23.540        33
23.560        33
23.580        50
23.600        33
23.620        30
23.640        53
23.660        50
23.680        37
23.700        43
23.720        33
23.740        37
23.760        47
23.780        40
23.800        37
23.820        33
23.840        17
23.860        30
23.880        27
23.900        30
23.920        60
23.940        43
23.960        37
23.980        27
24.000        37
24.020        27
24.040        17
24.060        23
24.080        40
24.100        47
24.120        40
24.140        53
24.160        33
24.180        43
24.200        37
24.220        47
24.240        50
24.260        50
24.280        33
24.300        40
24.320        30
24.340        13
24.360        50
24.380        50
24.400        47
24.420        33
24.440        27
24.460        27
24.480        30
24.500        20
24.520        47
24.540        40
24.560        27
24.580        47
24.600        47
24.620        37
24.640        37
24.660        40
24.680        30
24.700        23
24.720        50
24.740        47
24.760        20
24.780        43
24.800        50
24.820        30
24.840        63
24.860        43
24.880        33
24.900        50
24.920        13
24.940        53
24.960        27
24.980        37
25.000        50
25.020        53
25.040        43
25.060        30
25.080        23
25.100        40
25.120        33
25.140        40
25.160        33
25.180        40
25.200        30
25.220        27
25.240        47
25.260        30
25.280        30
25.300        13
25.320        23
25.340        40
25.360        33
25.380        37
25.400        27
25.420        17
25.440        33
25.460        37
25.480        47
25.500        33
25.520         3
25.540        20
25.560        63
25.580        37
25.600        37
25.620        33
25.640        27
25.660        43
25.680        20
25.700        33
25.720        23
25.740        43
25.760        27
25.780        43
25.800        43
25.820        37
25.840        60
25.860        10
25.880        13
25.900        37
25.920        47
25.940        33
25.960        30
25.980        30
26.000        37
26.020        30
26.040        37
26.060        30
26.080        27
26.100        23
26.120        13
26.140        17
26.160        30
26.180        43
26.200        43
26.220        33
26.240        40
26.260        43
26.280        40
26.300        30
26.320        40
26.340        17
26.360        40
26.380        37
26.400        47
26.420        47
26.440        43
26.460        53
26.480        53
26.500        33
26.520        70
26.540        17
26.560        27
26.580        40
26.600        60
26.620        40
26.640        53
26.660        53
26.680        57
26.700        53
26.720        73
26.740        37
26.760        50
26.780        70
26.800        37
26.820        70
26.840        43
26.860        33
26.880        23
26.900        60
26.920        33
26.940        37
26.960        67
26.980        37
27.000        30
27.020        27
27.040        23
27.060        20
27.080        30
27.100        30
27.120        23
27.140        23
27.160        47
27.180        37
27.200        37
27.220        43
27.240        20
27.260        33
27.280        23
27.300        17
27.320        23
27.340        20
27.360        33
27.380        20
27.400        30
27.420        20
27.440        30
27.460        27
27.480        33
27.500        20
27.520        20
27.540         7
27.560        17
27.580        50
27.600        53
27.620        60
27.640        17
27.660        17
27.680        27
27.700        23
27.720        47
27.740        27
27.760        30
27.780        13
27.800        30
27.820        40
27.840        30
27.860        37
27.880        10
27.900        20
27.920        37
27.940        30
27.960        43
27.980        30
28.000        13
28.020        13
28.040        30
28.060        33
28.080        43
28.100        27
28.120        23
28.140        23
28.160        40
28.180        17
28.200        37
28.220        27
28.240        23
28.260        43
28.280        20
28.300        27
28.320        33
28.340        47
28.360        37
28.380        33
28.400        23
28.420        20
28.440        20
28.460        27
28.480        23
28.500        20
28.520        30
28.540        10
28.560        23
28.580        30
28.600        37
28.620        20
28.640        10
28.660        23
28.680        17
28.700        33
28.720        10
28.740        33
28.760        33
28.780        23
28.800        37
28.820        13
28.840        27
28.860        33
28.880        23
28.900        33
28.920        23
28.940        30
28.960        20
28.980        23
29.000        17
29.020        37
29.040        43
29.060        20
29.080        23
29.100        30
29.120        27
29.140        13
29.160        50
29.180        27
29.200        50
29.220        37
29.240        20
29.260        47
29.280        47
29.300        77
29.320        60
29.340        67
29.360        50
29.380        27
29.400        57
29.420        67
29.440        37
29.460        40
29.480        33
29.500        37
29.520        47
29.540        20
29.560         3
29.580        33
29.600        17
29.620        47
29.640        13
29.660        33
29.680        30
29.700        20
29.720        23
29.740        23
29.760        33
29.780        13
29.800        30
29.820        10
29.840        13
29.860        33
29.880        33
29.900        23
29.920        17
29.940        37
29.960        20
29.980        13
30.000        40
30.020        33
30.040        23
30.060        17
30.080        33
30.100        17
30.120        30
30.140        13
30.160        13
30.180        23
30.200        17
30.220        17
30.240        37
30.260        30
30.280        33
30.300         7
30.320        20
30.340        33
30.360        40
30.380        37
30.400        33
30.420        27
30.440        20
30.460        23
30.480        27
30.500        27
30.520        20
30.540        30
30.560        27
30.580        27
30.600        33
30.620        37
30.640        37
30.660        27
30.680        30
30.700        17
30.720        20
30.740        30
30.760        27
30.780        37
30.800        37
30.820        40
30.840        50
30.860        57
30.880        53
30.900        37
30.920        47
30.940        60
30.960        73
30.980        83
31.000        87
31.020       127
31.040        80
31.060       103
31.080       110
31.100       103
31.120       167
31.140       160
31.160       130
31.180       147
31.200       100
31.220        83
31.240        97
31.260       107
31.280        87
31.300        83
31.320        50
31.340        60
31.360        37
31.380        23
31.400        60
31.420        53
31.440        53
31.460        53
31.480        13
31.500        23
31.520        43
31.540        30
31.560        27
31.580        43
31.600        17
31.620        30
31.640        17
31.660        17
31.680        23
31.700        23
31.720        30
31.740        27
31.760        33
31.780        40
31.800        27
31.820        23
31.840        27
31.860         7
31.880        20
31.900        37
31.920        43
31.940        17
31.960        30
31.980        40
32.000        10
32.020        33
32.040        20
32.060        17
32.080        30
32.100        20
32.120        20
32.140        33
32.160        23
32.180        17
32.200        37
32.220        27
32.240        33
32.260        30
32.280        20
32.300        30
32.320        30
32.340        27
32.360        13
32.380        40
32.400        27
32.420        37
32.440        20
32.460         7
32.480        27
32.500        27
32.520        37
32.540        17
32.560        13
32.580        23
32.600        23
32.620        20
32.640        17
32.660        27
32.680        17
32.700        20
32.720        13
32.740        37
32.760        10
32.780        17
32.800        40
32.820        20
32.840        27
32.860        27
32.880        33
32.900        27
32.920        20
32.940        17
32.960        23
32.980        20
33.000        50
33.020        27
33.040        23
33.060        37
33.080        30
33.100        20
33.120        47
33.140        30
33.160        13
33.180        17
33.200        23
33.220        20
33.240        30
33.260        33
33.280        10
33.300        43
33.320        23
33.340        23
33.360        13
33.380        17
33.400        23
33.420        17
33.440        23
33.460        20
33.480        17
33.500        23
33.520        20
33.540        27
33.560        43
33.580         7
33.600        20
33.620        27
33.640        23
33.660        33
33.680        20
33.700        17
33.720        40
33.740        20
33.760        23
33.780        13
33.800        20
33.820        27
33.840        23
33.860        17
33.880        27
33.900        33
33.920        33
33.940        23
33.960        27
33.980        27
34.000        57
34.020        10
34.040        50
34.060        27
34.080        37
34.100        60
34.120        37
34.140        37
34.160        43
34.180        33
34.200        37
34.220        43
34.240        13
34.260        30
34.280        20
34.300        20
34.320        23
34.340        37
34.360        23
34.380        17
34.400        37
34.420        17
34.440        27
34.460        43
34.480        23
34.500        30
34.520        47
34.540        40
34.560        13
34.580        13
34.600        30
34.620        47
34.640        37
34.660        30
34.680        33
34.700        33
34.720        27
34.740        37
34.760        10
34.780        23
34.800        23
34.820        30
34.840        10
34.860        17
34.880        33
34.900        17
34.920        20
34.940        23
34.960        27
34.980        33
35.000        10
35.020        27
35.040        30
35.060        50
35.080        30
35.100        40
35.120        50
35.140        27
35.160        57
35.180        53
35.200        47
35.220        80
35.240        63
35.260        40
35.280        50
35.300        60
35.320        47
35.340        43
35.360        30
35.380        30
35.400        20
35.420        37
35.440        20
35.460        33
35.480        10
35.500        37
35.520        13
35.540        27
35.560        13
35.580        30
35.600        33
35.620        27
35.640        23
35.660        17
35.680        23
35.700        10
35.720        10
35.740        10
35.760        27
35.780        23
35.800        23
35.820        37
35.840        30
35.860        33
35.880        13
35.900        33
35.920        40
35.940        37
35.960        23
35.980        27
36.000        30
36.020        40
36.040        20
36.060        50
36.080        13
36.100        40
36.120        10
36.140        13
36.160        27
36.180        27
36.200        13
36.220        43
36.240        27
36.260        40
36.280        33
36.300        20
36.320        33
36.340        27
36.360        37
36.380        20
36.400        17
36.420        23
36.440        27
36.460        23
36.480        20
36.500        47
36.520        17
36.540        30
36.560        30
36.580        10
36.600        27
36.620        23
36.640        17
36.660        27
36.680        37
36.700        23
36.720        20
36.740        23
36.760        37
36.780        20
36.800        20
36.820        27
36.840        37
36.860        27
36.880        43
36.900        40
36.920        20
36.940        33
36.960        30
36.980        13
37.000        23
37.020        40
37.040        33
37.060        37
37.080        23
37.100        30
37.120        40
37.140        40
37.160        30
37.180        23
37.200        37
37.220        60
37.240        40
37.260        47
37.280        17
37.300        37
37.320        53
37.340        40
37.360        27
37.380        50
37.400        47
37.420        47
37.440        33
37.460        53
37.480        33
37.500        43
37.520        50
37.540        47
37.560        53
37.580        80
37.600        37
37.620        57
37.640        57
37.660        70
37.680        33
37.700        57
37.720        77
37.740        63
37.760        43
37.780        93
37.800       107
37.820       113
37.840        90
37.860        83
37.880        93
37.900       127
37.920       127
37.940       107
37.960       177
37.980       123
38.000       147
38.020       180
38.040       217
38.060       213
38.080       233
38.100       277
38.120       273
38.140       363
38.160       387
38.180       453
38.200       513
38.220       686
38.240       926
38.260      1070
38.280      1346
38.300      1459
38.320      1746
38.340      2009
38.360      2086
38.380      2019
38.400      2073
38.420      1819
38.440      1749
38.460      1656
38.480      1486
38.500      1296
38.520      1003
38.540       833
38.560       696
38.580       596
38.600       493
38.620       407
38.640       320
38.660       270
38.680       233
38.700       233
38.720       200
38.740       140
38.760       123
38.780       113
38.800       147
38.820        80
38.840       113
38.860        60
38.880        60
38.900        50
38.920        80
38.940        77
38.960        73
38.980        83
39.000        70
39.020        67
39.040        53
39.060        53
39.080        37
39.100        63
39.120        40
39.140        53
39.160        67
39.180        37
39.200        57
39.220        57
39.240        47
39.260        60
39.280        47
39.300        53
39.320        43
39.340        40
39.360        70
39.380        33
39.400        43
39.420        70
39.440        43
39.460        43
39.480        33
39.500        50
39.520        43
39.540        13
39.560        40
39.580        60
39.600        27
39.620        33
39.640        20
39.660        30
39.680        77
39.700        40
39.720        17
39.740        40
39.760        27
39.780        37
39.800        10
39.820        43
39.840        23
39.860        37
39.880        37
39.900        37
39.920        33
39.940        33
39.960        37
39.980        40
40.000        47
40.020        40
40.040        23
40.060        17
40.080        23
40.100        47
40.120        27
40.140        30
40.160        20
40.180        30
40.200        37
40.220        43
40.240        20
40.260        50
40.280        43
40.300        40
40.320        13
40.340        30
40.360        20
40.380        37
40.400        30
40.420        13
40.440        33
40.460        20
40.480        37
40.500        47
40.520        23
40.540        27
40.560        30
40.580        17
40.600        43
40.620        17
40.640        10
40.660        27
40.680        50
40.700        47
40.720        20
40.740        17
40.760        30
40.780        53
40.800        33
40.820        23
40.840        27
40.860        40
40.880        33
40.900        27
40.920        30
40.940        23
40.960        23
40.980        23
41.000        27
41.020        37
41.040        37
41.060         7
41.080        27
41.100        40
41.120        23
41.140        17
41.160        47
41.180        40
41.200        20
41.220        23
41.240        23
41.260        30
41.280        27
41.300        33
41.320        33
41.340        13
41.360        23
41.380        40
41.400        57
41.420        23
41.440        33
41.460        30
41.480        20
41.500        20
41.520        57
41.540        23
41.560        33
41.580        27
41.600        10
41.620        37
41.640        17
41.660        27
41.680        50
41.700        40
41.720        73
41.740        23
41.760        40
41.780        23
41.800        57
41.820        33
41.840        27
41.860        47
41.880        30
41.900        53
41.920        30
41.940        37
41.960        20
41.980        27
42.000        33
42.020        27
42.040        27
42.060        23
42.080        20
42.100        30
42.120        27
42.140        30
42.160        17
42.180        37
42.200        27
42.220        10
42.240        23
42.260        33
42.280        17
42.300        27
42.320        17
42.340        37
42.360        17
42.380        10
42.400        30
42.420        30
42.440        20
42.460        33
42.480        13
42.500        20
42.520        23
42.540        20
42.560        23
42.580        27
42.600        17
42.620        23
42.640        33
42.660        37
42.680        30
42.700        23
42.720        33
42.740        57
42.760        20
42.780        23
42.800        50
42.820        23
42.840        17
42.860        20
42.880        40
42.900        23
42.920        30
42.940        33
42.960        30
42.980        33
43.000        17
43.020        37
43.040        47
43.060        20
43.080        33
43.100        37
43.120        50
43.140        40
43.160        37
43.180        17
43.200        33
43.220        23
43.240        33
43.260        37
43.280        17
43.300        37
43.320        17
43.340        33
43.360        47
43.380        53
43.400        17
43.420        43
43.440        67
43.460        40
43.480        40
43.500        43
43.520        27
43.540        30
43.560        47
43.580        27
43.600        20
43.620        30
43.640        23
43.660        20
43.680        30
43.700        33
43.720        27
43.740        33
43.760        10
43.780        27
43.800        20
43.820        30
43.840        33
43.860        33
43.880        33
43.900        30
43.920         7
43.940        30
43.960        13
43.980        27
44.000        30
44.020        20
44.040        30
44.060        30
44.080        33
44.100        23
44.120        37
44.140        23
44.160        13
44.180        27
44.200        10
44.220        30
44.240        43
44.260        37
44.280        43
44.300        43
44.320        33
44.340        43
44.360        13
44.380        30
44.400        57
44.420        37
44.440        43
44.460        30
44.480        37
44.500        60
44.520        80
44.540        70
44.560        97
44.580        63
44.600        77
44.620        80
44.640        63
44.660       103
44.680        37
44.700        53
44.720        83
44.740        67
44.760        57
44.780        47
44.800        80
44.820        43
44.840        50
44.860        27
44.880        47
44.900        23
44.920        40
44.940        40
44.960        13
44.980        33
45.000        23
45.020        17
45.040        23
45.060        27
45.080        33
45.100        20
45.120        30
45.140        23
45.160        13
45.180        30
45.200        37
45.220        13
45.240        17
45.260        30
45.280        20
45.300        23
45.320        20
45.340        27
45.360        20
45.380        17
45.400        17
45.420        37
45.440        17
45.460        17
45.480        10
45.500        27
45.520        27
45.540        23
45.560        17
45.580        23
45.600        27
45.620        20
45.640        17
45.660        13
45.680        23
45.700        27
45.720        30
45.740        17
45.760        10
45.780        27
45.800        43
45.820        10
45.840        27
45.860        20
45.880        20
45.900        10
45.920        13
45.940        17
45.960        40
45.980        33
46.000        13
46.020         3
46.040        40
46.060        10
46.080        30
46.100        23
46.120        30
46.140        27
46.160        33
46.180        33
46.200        20
46.220        27
46.240        10
46.260        20
46.280        17
46.300        27
46.320        20
46.340        10
46.360        17
46.380        33
46.400        17
46.420        17
46.440        20
46.460         3
46.480        10
46.500        27
46.520        10
46.540        20
46.560        20
46.580        33
46.600         7
46.620        10
46.640        23
46.660        17
46.680        17
46.700        20
46.720        20
46.740        27
46.760         7
46.780        37
46.800        10
46.820        33
46.840        27
46.860         7
46.880        20
46.900        23
46.920        30
46.940        20
46.960        17
46.980        27
47.000        30
47.020         7
47.040        37
47.060        20
47.080        27
47.100        30
47.120        17
47.140        13
47.160        20
47.180        17
47.200        23
47.220        37
47.240        23
47.260        37
47.280        30
47.300        30
47.320        27
47.340        30
47.360        17
47.380        13
47.400        40
47.420        23
47.440        27
47.460        40
47.480        43
47.500        33
47.520        30
47.540        27
47.560        33
47.580        27
47.600        20
47.620        27
47.640        33
47.660        30
47.680        27
47.700        23
47.720        23
47.740        17
47.760        17
47.780        27
47.800        23
47.820        20
47.840        13
47.860        20
47.880        23
47.900        10
47.920        13
47.940        13
47.960        27
47.980        13
48.000        27
48.020        20
48.040        23
48.060        23
48.080        30
48.100        13
48.120        20
48.140        27
48.160        13
48.180        33
48.200        27
48.220        27
48.240        27
48.260        17
48.280        20
48.300        23
48.320        27
48.340        23
48.360        33
48.380        30
48.400        23
48.420        40
48.440        20
48.460        33
48.480        30
48.500        20
48.520        40
48.540        33
48.560        30
48.580        33
48.600        27
48.620        13
48.640        20
48.660        17
48.680        13
48.700        13
48.720        37
48.740        23
48.760        23
48.780        17
48.800        20
48.820         7
48.840        17
48.860        27
48.880        27
48.900        20
48.920        23
48.940        13
48.960        27
48.980        13
49.000        10
49.020        20
49.040        13
49.060         3
49.080        13
49.100        10
49.120        17
49.140        10
49.160         3
49.180        10
49.200        10
49.220        17
49.240        17
49.260        20
49.280        20
49.300        20
49.320        27
49.340        30
49.360         7
49.380        13
49.400        27
49.420         3
49.440        17
49.460        13
49.480        20
49.500         7
49.520        20
49.540        30
49.560        20
49.580        20
49.600        13
49.620        13
49.640        20
49.660        17
49.680        33
49.700        20
49.720        30
49.740        10
49.760        13
49.780        10
49.800         7
49.820        20
49.840        20
49.860        30
49.880        13
49.900        23
49.920         7
49.940        13
49.960        13
49.980        13
50.000        10
50.020        40
50.040        17
50.060        20
50.080         7
50.100        13
50.120        23
50.140        13
50.160         7
50.180        13
50.200        10
50.220        10
50.240        20
50.260        17
50.280        23
50.300        27
50.320        13
50.340        17
50.360        13
50.380        10
50.400        33
50.420        10
50.440        37
50.460        13
50.480        13
50.500        17
50.520        30
50.540         7
50.560        13
50.580        13
50.600        13
50.620        27
50.640        17
50.660        23
50.680        17
50.700        10
50.720         3
50.740        20
50.760        20
50.780        13
50.800        10
50.820        33
50.840        23
50.860        13
50.880        33
50.900        17
50.920        17
50.940         7
50.960        10
50.980        13
51.000        20
51.020        23
51.040        20
51.060        23
51.080        27
51.100        20
51.120        13
51.140        10
51.160        17
51.180        13
51.200        17
51.220        20
51.240         3
51.260        17
51.280        27
51.300        20
51.320        13
51.340        20
51.360        23
51.380        20
51.400        20
51.420        20
51.440        23
51.460        13
51.480        17
51.500        30
51.520         7
51.540        13
51.560        17
51.580        30
51.600        33
51.620        10
51.640        30
51.660        10
51.680        17
51.700        23
51.720        27
51.740        23
51.760        23
51.780        10
51.800        33
51.820        27
51.840        20
51.860        27
51.880        33
51.900        23
51.920        30
51.940        33
51.960        47
51.980        37
52.000        33
52.020        17
52.040        33
52.060        67
52.080        30
52.100        67
52.120        30
52.140        20
52.160        50
52.180        37
52.200        20
52.220        33
52.240        10
52.260        20
52.280        27
52.300         7
52.320        17
52.340        20
52.360        17
52.380        17
52.400        10
52.420        17
52.440        20
52.460        17
52.480        13
52.500        10
52.520        30
52.540        20
52.560        40
52.580        23
52.600        23
52.620        30
52.640        30
52.660        17
52.680        20
52.700        40
52.720        30
52.740        13
52.760        17
52.780        23
52.800        10
52.820        20
52.840        30
52.860        27
52.880        17
52.900        20
52.920         7
52.940        20
52.960        10
52.980        20
53.000        13
53.020        13
53.040        23
53.060        17
53.080        13
53.100        20
53.120        17
53.140        13
53.160        10
53.180        17
53.200         7
53.220        20
53.240        23
53.260        23
53.280         7
53.300        33
53.320        33
53.340        17
53.360        17
53.380        13
53.400        27
53.420        10
53.440        33
53.460         7
53.480        17
53.500         3
53.520        17
53.540        10
53.560         0
53.580        10
53.600        13
53.620        17
53.640         0
53.660        23
53.680        17
53.700        20
53.720        13
53.740        17
53.760        17
53.780        17
53.800        13
53.820         3
53.840        20
53.860        13
53.880        17
53.900        17
53.920        17
53.940        13
53.960        17
53.980        17
54.000         7
54.020        17
54.040        23
54.060        13
54.080        13
54.100         3
54.120         7
54.140        17
54.160        13
54.180        17
54.200        23
54.220         7
54.240        23
54.260        17
54.280        13
54.300        17
54.320        20
54.340        13
54.360        13
54.380        33
54.400        20
54.420         0
54.440        13
54.460        23
54.480        17
54.500        30
54.520        13
54.540        17
54.560        23
54.580        10
54.600        10
54.620        27
54.640         3
54.660        10
54.680        13
54.700         7
54.720        27
54.740        13
54.760        20
54.780        33
54.800        27
54.820        13
54.840        17
54.860        20
54.880        13
54.900        33
54.920        27
54.940        40
54.960        30
54.980        33
55.000        17
55.020        13
55.040        27
55.060        27
55.080        27
55.100        37
55.120        33
55.140        40
55.160        33
55.180        47
55.200        30
55.220        43
55.240        40
55.260        50
55.280        33
55.300        67
55.320        47
55.340        57
55.360        43
55.380        53
55.400        53
55.420        53
55.440        70
55.460        33
55.480        60
55.500        40
55.520        60
55.540        60
55.560        27
55.580        37
55.600        30
55.620        53
55.640        43
55.660        23
55.680        30
55.700        40
55.720        20
55.740        23
55.760        27
55.780        17
55.800        20
55.820        30
55.840        33
55.860        13
55.880        17
55.900        10
55.920        13
55.940        17
55.960        20
55.980        13
56.000        10
56.020        13
56.040        17
56.060        20
56.080        13
56.100        17
56.120        20
56.140        40
56.160        27
56.180        23
56.200        10
56.220        23
56.240        33
56.260        10
56.280        13
56.300        10
56.320         7
56.340        27
56.360         3
56.380        27
56.400        13
56.420        10
56.440        10
56.460         7
56.480        13
56.500         7
56.520        23
56.540        40
56.560        17
56.580        17
56.600        30
56.620         7
56.640        13
56.660         3
56.680        17
56.700        13
56.720        10
56.740        27
56.760        10
56.780        10
56.800        10
56.820        17
56.840         7
56.860        13
56.880        17
56.900         7
56.920        17
56.940        17
56.960        27
56.980        13
57.000         3
57.020        13
57.040        23
57.060        33
57.080        13
57.100        10
57.120        13
57.140        17
57.160        20
57.180        10
57.200        13
57.220        23
57.240         7
57.260        33
57.280        23
57.300        13
57.320        17
57.340        23
57.360        17
57.380        23
57.400        27
57.420        23
57.440        27
57.460        47
57.480        50
57.500        53
57.520        57
57.540        70
57.560       117
57.580       133
57.600       117
57.620       100
57.640        40
57.660        33
57.680        57
57.700        43
57.720        40
57.740        83
57.760        57
57.780        60
57.800        30
57.820        17
57.840        13
57.860        23
57.880        13
57.900        17
57.920        23
57.940        20
57.960        27
57.980         3
58.000        30
58.020        17
58.040         3
58.060        27
58.080        10
58.100        10
58.120        20
58.140        23
58.160        20
58.180         7
58.200        10
58.220        23
58.240        20
58.260        20
58.280        17
58.300        20
58.320        17
58.340         3
58.360         7
58.380        13
58.400        33
58.420        17
58.440         7
58.460         7
58.480        13
58.500        10
58.520        10
58.540        20
58.560         7
58.580         7
58.600        10
58.620        17
58.640        17
58.660        20
58.680        17
58.700        10
58.720        17
58.740        13
58.760         7
58.780        20
58.800        20
58.820         3
58.840        17
58.860        10
58.880        27
58.900        17
58.920        20
58.940        10
58.960        13
58.980        23
59.000        17
59.020        17
59.040        10
59.060         3
59.080         0
59.100         3
59.120        13
59.140        13
59.160         7
59.180        20
59.200        30
59.220        10
59.240        17
59.260        20
59.280        10
59.300         3
59.320        17
59.340        30
59.360         7
59.380        10
59.400        13
59.420        13
59.440        17
59.460        20
59.480        20
59.500         7
59.520        20
59.540         7
59.560        17
59.580        23
59.600        13
59.620        17
59.640        13
59.660        27
59.680        10
59.700        30
59.720        10
59.740        17
59.760        17
59.780        10
59.800        13
59.820        10
59.840        30
59.860        13
59.880        20
59.900        13
59.920        10
59.940        17
59.960        37
59.980        17
60.000        13
