20.000        40
20.020        40
20.040        43
20.060        57
20.080        63
20.100        60
20.120        77
20.140        53
20.160        57
20.180        60
20.200        27
20.220        57
20.240        40
20.260        50
20.280        50
20.300        27
20.320        53
20.340        60
20.360        33
20.380        37
20.400        47
20.420        53
20.440        40
20.460        33
20.480        57
20.500        57
20.520        37
20.540        53
20.560        40
20.580        50
20.600        30
20.620        40
20.640        47
20.660        47
20.680        37
20.700        57
20.720        37
20.740        57
20.760        40
20.780        40
20.800        50
20.820        30
20.840        80
20.860        57
20.880        60
20.900        53
20.920        47
20.940        97
20.960        70
20.980        53
21.000        77
21.020        63
21.040        80
21.060        53
21.080        63
21.100        50
21.120        33
21.140        53
21.160        70
21.180        73
21.200        60
21.220        57
21.240        57
21.260        70
21.280        83
21.300        77
21.320       113
21.340       100
21.360       113
21.380       133
21.400       113
21.420       137
21.440       137
21.460       223
21.480       223
21.500       303
21.520       317
21.540       397
21.560       510
21.580       533
21.600       653
21.620       733
21.640       643
21.660       653
21.680       593
21.700       626
21.720       683
21.740       583
21.760       710
21.780       636
21.800       643
21.820       693
21.840       666
21.860       760
21.880       636
21.900       580
21.920       446
21.940       423
21.960       353
21.980       210
22.000       227
22.020       207
22.040       150
22.060       170
22.080       143
22.100       120
22.120       123
22.140       100
22.160        70
22.180        73
22.200       103
22.220        90
22.240       110
22.260        83
22.280       100
22.300        93
22.320        90
22.340        93
22.360        83
22.380        80
22.400        73
22.420        90
22.440        73
22.460       113
22.480        67
22.500        37
22.520        53
22.540        67
22.560        67
22.580        80
22.600        60
22.620        60
22.640        90
22.660        57
22.680        43
22.700        77
22.720        63
22.740        43
22.760        57
22.780        67
22.800        77
22.820        20
22.840        67
22.860        50
22.880        63
22.900        70
22.920        73
22.940        63
22.960        47
22.980        60
23.000        50
23.020        47
23.040        37
23.060        57
23.080        67
23.100        77
23.120        60
23.140        63
23.160        50
23.180        57
23.200        50
23.220        37
23.240        63
23.260        37
23.280        63
23.300        47
23.320        53
23.340        73
23.360        53
23.380        47
23.400        77
23.420        40
23.440        57
23.460        83
23.480        63
23.500        53
23.520        53
23.540        50
23.560        70
23.580        50
23.600        53
23.620        40
23.640        50
23.660        40
23.680        70
23.700        47
23.720        50
23.740        50
23.760        60
23.780        33
23.800        43
23.820        67
23.840        80
23.860        47
23.880        63
23.900        77
23.920        43
23.940        50
23.960        47
23.980        30
24.000        40
24.020        57
24.040        47
24.060        57
24.080        50
24.100        37
24.120        33
24.140        47
24.160        43
24.180        43
24.200        70
24.220        53
24.240        50
24.260        63
24.280        80
24.300        47
24.320        33
24.340        53
24.360        40
24.380        43
24.400        40
24.420        67
24.440        50
24.460        27
24.480        43
24.500        67
24.520        53
24.540        60
24.560        43
24.580        43
24.600        50
24.620        27
24.640        50
24.660        30
24.680        43
24.700        73
24.720        37
24.740        63
24.760        33
24.780        80
24.800        40
24.820        33
24.840        30
24.860        47
24.880        67
24.900        43
24.920        50
24.940        57
24.960        40
24.980        47
25.000        47
25.020        47
25.040        30
25.060        40
25.080        27
25.100        50
25.120        67
25.140        50
25.160        40
25.180        30
25.200        67
25.220        43
25.240        57
25.260        63
25.280        47
25.300        57
25.320        57
25.340        57
25.360        70
25.380        33
25.400        43
25.420        37
25.440        57
25.460        40
25.480        53
25.500        43
25.520        57
25.540        53
25.560        67
25.580        63
25.600        70
25.620        53
25.640        40
25.660        57
25.680        47
25.700        73
25.720        27
25.740        30
25.760        27
25.780        23
25.800        37
25.820        50
25.840        63
25.860        27
25.880        53
25.900        63
25.920        37
25.940        60
25.960        63
25.980        53
26.000        70
26.020        63
26.040        53
26.060        60
26.080        37
26.100        50
26.120        50
26.140        30
26.160        50
26.180        23
26.200        33
26.220        43
26.240        43
26.260        43
26.280        50
26.300        53
26.320        53
26.340        40
26.360        30
26.380        40
26.400        50
26.420        70
26.440        33
26.460        53
26.480        47
26.500        33
26.520        50
26.540        60
26.560        47
26.580        50
26.600        27
26.620        23
26.640        37
26.660        37
26.680        50
26.700        50
26.720        47
26.740        33
26.760        33
26.780        60
26.800        40
26.820        57
26.840        37
26.860        57
26.880        37
26.900        40
26.920        30
26.940        40
26.960        30
26.980        50
27.000        13
27.020        43
27.040        33
27.060        30
27.080        33
27.100        43
27.120        30
27.140        50
27.160        73
27.180        47
27.200        57
27.220        40
27.240        43
27.260        43
27.280        37
27.300        50
27.320        43
27.340        43
27.360        63
27.380        40
27.400        23
27.420        50
27.440        53
27.460        30
27.480        70
27.500        30
27.520        47
27.540        50
27.560        33
27.580        43
27.600        43
27.620        57
27.640        50
27.660        47
27.680        43
27.700        53
27.720        53
27.740        40
27.760        17
27.780        30
27.800        47
27.820        37
27.840        23
27.860        53
27.880        40
27.900        40
27.920        27
27.940        37
27.960        27
27.980        43
28.000        63
28.020        40
28.040        47
28.060        43
28.080        27
28.100        30
28.120        30
28.140        40
28.160        37
28.180        30
28.200        43
28.220        33
28.240        37
28.260        30
28.280        37
28.300        33
28.320        33
28.340        43
28.360        53
28.380        23
28.400        50
28.420        27
28.440        37
28.460        27
28.480        30
28.500        43
28.520        43
28.540        33
28.560        40
28.580        40
28.600        23
28.620        27
28.640        30
28.660        43
28.680        30
28.700        10
28.720        43
28.740        30
28.760        33
28.780        37
28.800        37
28.820        43
28.840        40
28.860        40
28.880        40
28.900        33
28.920        27
28.940        30
28.960        47
28.980        30
29.000        27
29.020        37
29.040        33
29.060        43
29.080        33
29.100        37
29.120        40
29.140        33
29.160        27
29.180        40
29.200        33
29.220        40
29.240        40
29.260        23
29.280        33
29.300        43
29.320        33
29.340        37
29.360        37
29.380        10
29.400        47
29.420        33
29.440        30
29.460        37
29.480        20
29.500        33
29.520        27
29.540        33
29.560        30
29.580        47
29.600        23
29.620        50
29.640        37
29.660        50
29.680        13
29.700        43
29.720        23
29.740        47
29.760        37
29.780        17
29.800        67
29.820        20
29.840        33
29.860        33
29.880        37
29.900        37
29.920        33
29.940        60
29.960        43
29.980        40
30.000        37
30.020        37
30.040        43
30.060        33
30.080        23
30.100        57
30.120        57
30.140        37
30.160        30
30.180        40
30.200        33
30.220        57
30.240        30
30.260        47
30.280        37
30.300        53
30.320        40
30.340        63
30.360        33
30.380        40
30.400        50
30.420        17
30.440        80
30.460        40
30.480        53
30.500        63
30.520        83
30.540       107
30.560        70
30.580        97
30.600        80
30.620       127
30.640       100
30.660       100
30.680        93
30.700       150
30.720        93
30.740       120
30.760       107
30.780       117
30.800        80
30.820       137
30.840       140
30.860       130
30.880       120
30.900       180
30.920       180
30.940       163
30.960       280
30.980       187
31.000       243
31.020       157
31.040       197
31.060       220
31.080       227
31.100       237
31.120       210
31.140       197
31.160       170
31.180       163
31.200       180
31.220       113
31.240       113
31.260        67
31.280        57
31.300        67
31.320        83
31.340        37
31.360        63
31.380        57
31.400        33
31.420        63
31.440        53
31.460        47
31.480        23
31.500        47
31.520        30
31.540        27
31.560        57
31.580        47
31.600        43
31.620        27
31.640        40
31.660        47
31.680        60
31.700        47
31.720        37
31.740        23
31.760        40
31.780        40
31.800        37
31.820        57
31.840        33
31.860        43
31.880        30
31.900        37
31.920        40
31.940        33
31.960        33
31.980        33
32.000        40
32.020        43
32.040        37
32.060        20
32.080        30
32.100        27
32.120        43
32.140        30
32.160        33
32.180        37
32.200        37
32.220        27
32.240        20
32.260        27
32.280        23
32.300        13
32.320        17
32.340        40
32.360        47
32.380        17
32.400        37
32.420        33
32.440        27
32.460        47
32.480        53
32.500        20
32.520        30
32.540        40
32.560        30
32.580        40
32.600        27
32.620        37
32.640        40
32.660        33
32.680        20
32.700        23
32.720        43
32.740        37
32.760        20
32.780        30
32.800        43
32.820        20
32.840        23
32.860        10
32.880        27
32.900        13
32.920        13
32.940         7
32.960        30
32.980        37
33.000        27
33.020        33
33.040        23
33.060        23
33.080        33
33.100        33
33.120        37
33.140        40
33.160        37
33.180        50
33.200        20
33.220        23
33.240        27
33.260        37
33.280        13
33.300        27
33.320        13
33.340        27
33.360        30
33.380        23
33.400        17
33.420        23
33.440        27
33.460        40
33.480        27
33.500        13
33.520        30
33.540        17
33.560        53
33.580        30
33.600        27
33.620        17
33.640        33
33.660        20
33.680        37
33.700        30
33.720        17
33.740        20
33.760        23
33.780        23
33.800        20
33.820        23
33.840        20
33.860        33
33.880        27
33.900        17
33.920        13
33.940        23
33.960        53
33.980        20
34.000        20
34.020        17
34.040        57
34.060        53
34.080        27
34.100        30
34.120        33
34.140        20
34.160        33
34.180        40
34.200        13
34.220        53
34.240        40
34.260        27
34.280        33
34.300        13
34.320        23
34.340        40
34.360        33
34.380        13
34.400        33
34.420        43
34.440        40
34.460        43
34.480        30
34.500        30
34.520        23
34.540        23
34.560        33
34.580        40
34.600        30
34.620        43
34.640        20
34.660        30
34.680        30
34.700        10
34.720        20
34.740        13
34.760        43
34.780        37
34.800        13
34.820        23
34.840        30
34.860        13
34.880        27
34.900        10
34.920        33
34.940        27
34.960        47
34.980        37
35.000        37
35.020        37
35.040        43
35.060        57
35.080        50
35.100        37
35.120        47
35.140        47
35.160        83
35.180        77
35.200        87
35.220       100
35.240        93
35.260        53
35.280        73
35.300        53
35.320        37
35.340        47
35.360        27
35.380        20
35.400        23
35.420        33
35.440        33
35.460        27
35.480        40
35.500        27
35.520        23
35.540        27
35.560        30
35.580        40
35.600        17
35.620        23
35.640        27
35.660        30
35.680        20
35.700        20
35.720        30
35.740        17
35.760        20
35.780        20
35.800        23
35.820        50
35.840        20
35.860        33
35.880        30
35.900         7
35.920        57
35.940        30
35.960        27
35.980        27
36.000        20
36.020        30
36.040        27
36.060        37
36.080        23
36.100        13
36.120        20
36.140         7
36.160        60
36.180        30
36.200        27
36.220        13
36.240        37
36.260        17
36.280        50
36.300        13
36.320        20
36.340        47
36.360        23
36.380        40
36.400        23
36.420        37
36.440        40
36.460        43
36.480        30
36.500        27
36.520        27
36.540        30
36.560        33
36.580        27
36.600        47
36.620        27
36.640        17
36.660        23
36.680        23
36.700        23
36.720        27
36.740         7
36.760        20
36.780        30
36.800        17
36.820        40
36.840        30
36.860        20
36.880        13
36.900        50
36.920        40
36.940        40
36.960        23
36.980        13
37.000        40
37.020        47
37.040        37
37.060        27
37.080        37
37.100        30
37.120        47
37.140        23
37.160        43
37.180        47
37.200        30
37.220        37
37.240        30
37.260        40
37.280        50
37.300        43
37.320        37
37.340        40
37.360        47
37.380        37
37.400        47
37.420        47
37.440        40
37.460        80
37.480        67
37.500        80
37.520        90
37.540        47
37.560        73
37.580        83
37.600        77
37.620       153
37.640       100
37.660       133
37.680       170
37.700       163
37.720       127
37.740       220
37.760       227
37.780       197
37.800       207
37.820       250
37.840       217
37.860       260
37.880       210
37.900       253
37.920       210
37.940       260
37.960       263
37.980       267
38.000       297
38.020       270
38.040       303
38.060       320
38.080       373
38.100       390
38.120       367
38.140       390
38.160       426
38.180       526
38.200       493
38.220       526
38.240       646
38.260       590
38.280       653
38.300       593
38.320       670
38.340       663
38.360       670
38.380       603
38.400       600
38.420       593
38.440       446
38.460       337
38.480       260
38.500       233
38.520       300
38.540       227
38.560       157
38.580       127
38.600       113
38.620        70
38.640        73
38.660        93
38.680        47
38.700        70
38.720        77
38.740        43
38.760        70
38.780        80
38.800        60
38.820        50
38.840        67
38.860        50
38.880        63
38.900        67
38.920        47
38.940        43
38.960        50
38.980        60
39.000        73
39.020        50
39.040        43
39.060        37
39.080        27
39.100        43
39.120        40
39.140        47
39.160        40
39.180        30
39.200        27
39.220        60
39.240        27
39.260        60
39.280        60
39.300        43
39.320        40
39.340        37
39.360        37
39.380        40
39.400        37
39.420        37
39.440        30
39.460        43
39.480        37
39.500        27
39.520        30
39.540        27
39.560        50
39.580        43
39.600        37
39.620        33
39.640        33
39.660        40
39.680        40
39.700        20
39.720        27
39.740        47
39.760        50
39.780        50
39.800        43
39.820        50
39.840        33
39.860        37
39.880        43
39.900        43
39.920        67
39.940        67
39.960        40
39.980        30
40.000        27
40.020        63
40.040        33
40.060        47
40.080        30
40.100        20
40.120        37
40.140        27
40.160        27
40.180        23
40.200        47
40.220        47
40.240        30
40.260        23
40.280        43
40.300        13
40.320        40
40.340        27
40.360        30
40.380        37
40.400        30
40.420        17
40.440        30
40.460        30
40.480        13
40.500        20
40.520        23
40.540        23
40.560        43
40.580        47
40.600        47
40.620        33
40.640        23
40.660        17
40.680        37
40.700        43
40.720        20
40.740        30
40.760        37
40.780        20
40.800        57
40.820        30
40.840        40
40.860        30
40.880        33
40.900        37
40.920        37
40.940        40
40.960        33
40.980        23
41.000        33
41.020        33
41.040        17
41.060        17
41.080        17
41.100        33
41.120        47
41.140        30
41.160        23
41.180        40
41.200        43
41.220        37
41.240        23
41.260        27
41.280        40
41.300        27
41.320        53
41.340        33
41.360        23
41.380        40
41.400        37
41.420        47
41.440        30
41.460        27
41.480        50
41.500        27
41.520        20
41.540        33
41.560        47
41.580        37
41.600        33
41.620        37
41.640        40
41.660        50
41.680        60
41.700        57
41.720        83
41.740        57
41.760        63
41.780        73
41.800        47
41.820        43
41.840        47
41.860        67
41.880        43
41.900        50
41.920        53
41.940        27
41.960        23
41.980        27
42.000        47
42.020        40
42.040        30
42.060        40
42.080        43
42.100        17
42.120        30
42.140        60
42.160        23
42.180        30
42.200        30
42.220        57
42.240        23
42.260        33
42.280        43
42.300        43
42.320        50
42.340        40
42.360        30
42.380        50
42.400        23
42.420        43
42.440        50
42.460        40
42.480        43
42.500        37
42.520        57
42.540        47
42.560        47
42.580        47
42.600        37
42.620        40
42.640        60
42.660        43
42.680        27
42.700        57
42.720        57
42.740        63
42.760        53
42.780        50
42.800        93
42.820        40
42.840        77
42.860        43
42.880        37
42.900        67
42.920        67
42.940        73
42.960        87
42.980        70
43.000        47
43.020        83
43.040        87
43.060        80
43.080        70
43.100        60
43.120        93
43.140        80
43.160        83
43.180       103
43.200        83
43.220        80
43.240       100
43.260        90
43.280       130
43.300       130
43.320        97
43.340       137
43.360       120
43.380       140
43.400       167
43.420       143
43.440       153
43.460       177
43.480       180
43.500       173
43.520       150
43.540       230
43.560       220
43.580       217
43.600       207
43.620       253
43.640       203
43.660       273
43.680       283
43.700       363
43.720       333
43.740       330
43.760       383
43.780       483
43.800       403
43.820       493
43.840       576
43.860       530
43.880       570
43.900       623
43.920       716
43.940       750
43.960       836
43.980       903
44.000       983
44.020      1043
44.040      1060
44.060      1173
44.080      1100
44.100      1233
44.120      1103
44.140      1223
44.160      1150
44.180      1190
44.200      1256
44.220      1143
44.240      1283
44.260      1303
44.280      1313
44.300      1369
44.320      1383
44.340      1473
44.360      1603
44.380      1653
44.400      1626
44.420      1763
44.440      1776
44.460      1859
44.480      2029
44.500      1839
44.520      1956
44.540      2109
44.560      2069
44.580      1876
44.600      1889
44.620      1613
44.640      1496
44.660      1466
44.680      1383
44.700      1120
44.720       996
44.740       946
44.760       890
44.780       786
44.800       610
44.820       526
44.840       476
44.860       456
44.880       433
44.900       400
44.920       377
44.940       303
44.960       347
44.980       307
45.000       253
45.020       330
45.040       217
45.060       260
45.080       157
45.100       183
45.120       240
45.140       210
45.160       237
45.180       180
45.200       177
45.220       180
45.240       180
45.260       143
45.280       177
45.300       200
45.320       130
45.340       120
45.360       130
45.380       120
45.400       110
45.420       133
45.440        90
45.460        93
45.480       100
45.500       110
45.520       137
45.540        93
45.560       117
45.580       103
45.600        93
45.620        97
45.640        87
45.660        57
45.680        90
45.700        93
45.720        97
45.740        57
45.760        57
45.780        73
45.800        80
45.820        70
45.840        83
45.860        77
45.880        67
45.900        87
45.920        77
45.940        77
45.960        43
45.980        87
46.000        73
46.020        63
46.040        87
46.060        53
46.080        83
46.100        90
46.120        43
46.140        57
46.160        50
46.180        57
46.200        53
46.220        60
46.240        50
46.260        50
46.280        83
46.300        50
46.320        47
46.340        47
46.360        43
46.380        30
46.400        63
46.420        50
46.440        43
46.460        43
46.480        47
46.500        33
46.520        47
46.540        37
46.560        50
46.580        30
46.600        37
46.620        40
46.640        33
46.660        33
46.680        53
46.700        23
46.720        60
46.740        43
46.760        73
46.780        50
46.800        43
46.820        40
46.840        30
46.860        40
46.880        33
46.900        37
46.920        30
46.940        40
46.960        50
46.980        57
47.000        47
47.020        33
47.040        37
47.060        60
47.080        30
47.100        53
47.120        27
47.140        40
47.160        30
47.180        40
47.200        20
47.220        40
47.240        47
47.260        63
47.280        17
47.300        50
47.320        23
47.340        30
47.360        27
47.380        33
47.400        43
47.420        30
47.440        27
47.460        33
47.480        30
47.500        40
47.520        27
47.540        40
47.560        17
47.580        30
47.600         7
47.620        23
47.640        27
47.660        30
47.680        27
47.700        13
47.720        23
47.740        10
47.760        43
47.780        57
47.800        43
47.820        23
47.840        20
47.860        20
47.880        13
47.900        27
47.920        47
47.940        23
47.960        43
47.980        20
48.000        50
48.020        33
48.040        30
48.060        20
48.080        23
48.100        20
48.120        10
48.140        17
48.160        13
48.180        33
48.200        10
48.220        33
48.240        30
48.260        40
48.280        10
48.300        33
48.320        20
48.340        27
48.360        40
48.380        13
48.400        23
48.420        30
48.440        37
48.460        17
48.480        10
48.500        33
48.520        23
48.540        33
48.560        40
48.580        20
48.600        40
48.620        37
48.640        20
48.660        23
48.680        27
48.700        23
48.720        23
48.740        17
48.760        33
48.780        50
48.800        13
48.820        17
48.840        13
48.860        17
48.880        30
48.900        23
48.920        17
48.940        27
48.960        23
48.980        20
49.000        23
49.020        23
49.040        27
49.060        23
49.080        23
49.100        23
49.120        23
49.140        23
49.160        33
49.180        27
49.200        37
49.220        20
49.240        33
49.260        30
49.280        10
49.300        43
49.320        33
49.340        30
49.360        17
49.380        23
49.400        17
49.420        17
49.440        30
49.460        47
49.480        20
49.500        23
49.520        17
49.540        27
49.560        30
49.580        17
49.600        23
49.620        30
49.640        17
49.660        17
49.680        13
49.700        27
49.720        13
49.740        23
49.760        20
49.780        43
49.800        33
49.820        17
49.840        20
49.860        17
49.880        23
49.900        33
49.920        30
49.940        27
49.960        43
49.980        13
50.000        20
50.020        33
50.040        23
50.060        33
50.080        20
50.100        23
50.120        37
50.140        27
50.160        23
50.180        10
50.200        20
50.220        10
50.240        13
50.260        17
50.280        23
50.300        27
50.320        33
50.340        13
50.360        17
50.380        17
50.400         7
50.420        20
50.440        10
50.460        23
50.480        20
50.500         7
50.520        13
50.540        13
50.560        23
50.580        27
50.600        20
50.620        13
50.640        13
50.660        20
50.680        23
50.700        17
50.720        30
50.740        37
50.760        23
50.780        33
50.800        27
50.820        23
50.840        27
50.860         7
50.880        17
50.900        27
50.920        23
50.940         7
50.960        30
50.980        17
51.000        10
51.020        27
51.040        13
51.060        27
51.080        27
51.100        17
51.120        13
51.140        33
51.160        17
51.180        23
51.200        20
51.220        33
51.240        17
51.260        27
51.280        20
51.300        30
51.320        37
51.340        30
51.360        23
51.380        10
51.400        13
51.420        40
51.440        13
51.460        17
51.480        10
51.500         0
51.520         7
51.540        10
51.560        27
51.580        30
51.600        17
51.620        30
51.640         7
51.660        17
51.680        17
51.700        10
51.720        27
51.740        33
51.760        27
51.780         7
51.800        13
51.820        17
51.840        13
51.860         7
51.880        10
51.900        20
51.920        10
51.940        17
51.960         7
51.980        17
52.000        27
52.020        27
52.040        17
52.060        13
52.080        20
52.100        27
52.120        17
52.140        20
52.160         7
52.180        17
52.200        23
52.220        10
52.240        20
52.260        30
52.280        17
52.300        17
52.320        23
52.340        17
52.360        30
52.380        13
52.400        13
52.420        30
52.440        13
52.460        13
52.480        13
52.500         7
52.520        27
52.540        33
52.560        17
52.580        70
52.600        67
52.620        73
52.640        43
52.660        47
52.680        40
52.700        37
52.720        37
52.740        50
52.760        27
52.780        30
52.800        20
52.820        10
52.840         3
52.860        27
52.880        27
52.900        33
52.920        20
52.940        27
52.960         7
52.980        20
53.000        20
53.020        33
53.040        10
53.060        20
53.080        20
53.100        17
53.120        13
53.140        30
53.160        13
53.180        13
53.200        23
53.220        33
53.240        20
53.260        13
53.280        13
53.300        13
53.320        13
53.340        17
53.360        27
53.380        10
53.400        27
53.420         7
53.440        30
53.460        23
53.480        13
53.500        10
53.520        27
53.540        20
53.560         3
53.580        13
53.600        10
53.620        17
53.640        17
53.660        13
53.680        17
53.700        27
53.720        20
53.740        13
53.760        13
53.780        17
53.800        20
53.820        10
53.840        13
53.860        53
53.880        13
53.900        23
53.920        17
53.940        10
53.960        17
53.980        17
54.000        13
54.020        17
54.040        27
54.060        17
54.080         3
54.100        17
54.120        30
54.140        17
54.160        10
54.180         7
54.200        27
54.220        27
54.240        17
54.260        20
54.280        20
54.300        13
54.320        27
54.340        17
54.360        13
54.380        13
54.400        13
54.420        30
54.440        30
54.460        23
54.480        33
54.500        20
54.520        37
54.540        33
54.560        23
54.580        33
54.600        27
54.620        20
54.640        20
54.660        20
54.680        33
54.700        30
54.720        20
54.740        13
54.760        37
54.780        27
54.800        23
54.820        20
54.840        23
54.860        23
54.880        13
54.900        40
54.920        60
54.940        37
54.960        23
54.980        20
55.000        40
55.020        30
55.040        40
55.060        47
55.080        30
55.100        50
55.120        17
55.140        53
55.160        43
55.180        40
55.200        57
55.220        70
55.240        43
55.260        33
55.280        70
55.300        60
55.320        47
55.340        30
55.360        63
55.380        53
55.400        47
55.420        63
55.440        70
55.460        40
55.480        50
55.500        30
55.520        20
55.540        30
55.560        40
55.580        47
55.600        30
55.620        33
55.640        33
55.660        17
55.680        27
55.700        23
55.720        13
55.740        10
55.760        20
55.780        10
55.800        30
55.820        13
55.840        10
55.860        17
55.880        13
55.900        13
55.920        13
55.940        17
55.960        23
55.980        20
56.000         3
56.020        10
56.040         7
56.060        27
56.080        17
56.100         3
56.120         7
56.140        13
56.160        10
56.180        20
56.200        27
56.220         3
56.240        13
56.260        23
56.280        13
56.300        17
56.320        17
56.340        23
56.360        13
56.380        13
56.400        17
56.420        10
56.440         7
56.460        17
56.480        17
56.500        17
56.520        27
56.540        17
56.560        17
56.580        20
56.600         3
56.620        20
56.640        17
56.660         3
56.680         0
56.700        13
56.720         3
56.740        13
56.760        20
56.780        13
56.800        20
56.820        17
56.840        20
56.860        13
56.880        17
56.900        20
56.920        10
56.940         7
56.960        13
56.980        17
57.000         0
57.020        10
57.040        20
57.060        10
57.080        13
57.100        33
57.120        20
57.140        13
57.160        10
57.180        10
57.200         7
57.220         7
57.240         7
57.260        33
57.280        20
57.300        20
57.320        10
57.340        13
57.360        20
57.380        17
57.400        10
57.420        10
57.440        17
57.460        20
57.480        23
57.500        27
57.520        40
57.540        40
57.560        60
57.580        30
57.600        23
57.620        43
57.640        37
57.660        17
57.680        47
57.700        43
57.720        63
57.740        30
57.760        27
57.780        20
57.800        17
57.820        20
57.840        17
57.860        17
57.880        20
57.900        17
57.920         7
57.940        13
57.960        13
57.980        10
58.000         7
58.020        33
58.040        13
58.060        13
58.080        20
58.100        10
58.120         7
58.140        13
58.160         7
58.180        23
58.200        37
58.220        13
58.240        23
58.260        23
58.280        10
58.300         3
58.320        10
58.340        10
58.360        10
58.380         7
58.400        10
58.420        27
58.440        13
58.460        10
58.480        20
58.500         3
58.520        17
58.540         7
58.560         7
58.580        57
58.600        20
58.620        13
58.640        10
58.660         7
58.680         7
58.700        30
58.720        43
58.740        17
58.760        10
58.780        13
58.800        10
58.820         0
58.840        17
58.860        20
58.880        17
58.900        13
58.920        23
58.940         3
58.960        13
58.980        17
59.000         7
59.020         3
59.040        13
59.060        13
59.080        23
59.100         7
59.120         0
59.140        17
59.160        17
59.180         7
59.200        33
59.220        17
59.240         3
59.260        17
59.280         3
59.300        10
59.320         7
59.340        13
59.360        17
59.380         7
59.400        20
59.420        13
59.440        17
59.460         7
59.480        13
59.500        17
59.520        13
59.540         7
59.560        13
59.580        20
59.600        17
59.620        20
59.640        23
59.660        10
59.680        17
59.700        10
59.720        13
59.740        10
59.760        10
59.780        13
59.800        13
59.820         7
59.840        30
59.860        13
59.880        13
59.900         3
59.920        17
59.940         7
59.960        10
59.980        17
60.000         7
