20.000        40
20.020        40
20.040        57
20.060        40
20.080        43
20.100        43
20.120        23
20.140        53
20.160        70
20.180        43
20.200        63
20.220        57
20.240        53
20.260        50
20.280        63
20.300        43
20.320        53
20.340        37
20.360        53
20.380        53
20.400        47
20.420        73
20.440        43
20.460        53
20.480        47
20.500        40
20.520        50
20.540        53
20.560        73
20.580        40
20.600        40
20.620        27
20.640       100
20.660        67
20.680        60
20.700        70
20.720        53
20.740        77
20.760        30
20.780        63
20.800        80
20.820        73
20.840        47
20.860        57
20.880        70
20.900        77
20.920        90
20.940        70
20.960        83
20.980        70
21.000       113
21.020       103
21.040       167
21.060       150
21.080       180
21.100       203
21.120       243
21.140       247
21.160       337
21.180       297
21.200       476
21.220       413
21.240       550
21.260       543
21.280       580
21.300       520
21.320       550
21.340       543
21.360       456
21.380       420
21.400       353
21.420       220
21.440       227
21.460       187
21.480       160
21.500       140
21.520       107
21.540        83
21.560        80
21.580        90
21.600       100
21.620        83
21.640        77
21.660       103
21.680        93
21.700        67
21.720        53
21.740        73
21.760        57
21.780        90
21.800        77
21.820        40
21.840        67
21.860        67
21.880        73
21.900        63
21.920        70
21.940        93
21.960        47
21.980        57
22.000        53
22.020        47
22.040        43
22.060        70
22.080        70
22.100        57
22.120        40
22.140        60
22.160        47
22.180        47
22.200        70
22.220        43
22.240        60
22.260        50
22.280        70
22.300        37
22.320        40
22.340        37
22.360        20
22.380        60
22.400        43
22.420        70
22.440        47
22.460        80
22.480        73
22.500        60
22.520        43
22.540        30
22.560        63
22.580        27
22.600        57
22.620        40
22.640        53
22.660        57
22.680        37
22.700        43
22.720        63
22.740        47
22.760        53
22.780        83
22.800        53
22.820        43
22.840        53
22.860        47
22.880        57
22.900        50
22.920        33
22.940        40
22.960        57
22.980        53
23.000        57
23.020        43
23.040        50
23.060        30
23.080        67
23.100        60
23.120        83
23.140        43
23.160        33
23.180        47
23.200        63
23.220        50
23.240        57
23.260        53
23.280        57
23.300        60
23.320        43
23.340        57
23.360        57
23.380        60
23.400        57
23.420        37
23.440        43
23.460        57
23.480        53
23.500        40
23.520        87
23.540        53
23.560        67
23.580        93
23.600        53
23.620        33
23.640        43
23.660        53
23.680        53
23.700        47
23.720        57
23.740        53
23.760        67
23.780        50
23.800        63
23.820        40
23.840        63
23.860        53
23.880        57
23.900        60
23.920        53
23.940        40
23.960        70
23.980        70
24.000        50
24.020        60
24.040        40
24.060        57
24.080        37
24.100        43
24.120        47
24.140        37
24.160        47
24.180        33
24.200        40
24.220        37
24.240        47
24.260        47
24.280        33
24.300        37
24.320        43
24.340        70
24.360        40
24.380        30
24.400        47
24.420        40
24.440        40
24.460        70
24.480        60
24.500        30
24.520        50
24.540        50
24.560        43
24.580        60
24.600        40
24.620        57
24.640        27
24.660        60
24.680        47
24.700        73
24.720        47
24.740        53
24.760        67
24.780        40
24.800        27
24.820        50
24.840        47
24.860        43
24.880        33
24.900        37
24.920        37
24.940        30
24.960        57
24.980        43
25.000        40
25.020        27
25.040        67
25.060        37
25.080        43
25.100        57
25.120        37
25.140        37
25.160        37
25.180        30
25.200        47
25.220        37
25.240        37
25.260        27
25.280        53
25.300        43
25.320        43
25.340        67
25.360        47
25.380        43
25.400        47
25.420        47
25.440        53
25.460        33
25.480        40
25.500        53
25.520        37
25.540        47
25.560        67
25.580        73
25.600        53
25.620        57
25.640        27
25.660        57
25.680        60
25.700        40
25.720        20
25.740        43
25.760        43
25.780        40
25.800        50
25.820        40
25.840        53
25.860        47
25.880        53
25.900        43
25.920        50
25.940        40
25.960        80
25.980        37
26.000        33
26.020        40
26.040        53
26.060        30
26.080        20
26.100        43
26.120        40
26.140        33
26.160        57
26.180        30
26.200        37
26.220        63
26.240        43
26.260        67
26.280        23
26.300        27
26.320        47
26.340        33
26.360        23
26.380        37
26.400        73
26.420        37
26.440        47
26.460        40
26.480        47
26.500        20
26.520        47
26.540        37
26.560        43
26.580        57
26.600        43
26.620        40
26.640        47
26.660        40
26.680        37
26.700        40
26.720        43
26.740        53
26.760        33
26.780        37
26.800        53
26.820        23
26.840        33
26.860        30
26.880        33
26.900        30
26.920        43
26.940        43
26.960        47
26.980        33
27.000        53
27.020        40
27.040        40
27.060        33
27.080        20
27.100        73
27.120        33
27.140        47
27.160        30
27.180        37
27.200        30
27.220        37
27.240        47
27.260        43
27.280        43
27.300        60
27.320        63
27.340        43
27.360        37
27.380        47
27.400        57
27.420        57
27.440        27
27.460        47
27.480        47
27.500        57
27.520        40
27.540        53
27.560        40
27.580        37
27.600        40
27.620        47
27.640        40
27.660        63
27.680        57
27.700        43
27.720        53
27.740        67
27.760        43
27.780        30
27.800        23
27.820        53
27.840        27
27.860        20
27.880        40
27.900        50
27.920        37
27.940        57
27.960        53
27.980        30
28.000        37
28.020        33
28.040        43
28.060        33
28.080        20
28.100        37
28.120        30
28.140        27
28.160        40
28.180        20
28.200        27
28.220        57
28.240        13
28.260        47
28.280        53
28.300        53
28.320        47
28.340        50
28.360        40
28.380        27
28.400        43
28.420        50
28.440        33
28.460        53
28.480        37
28.500        43
28.520        20
28.540        30
28.560        33
28.580        33
28.600        43
28.620        50
28.640        23
28.660        27
28.680        47
28.700        37
28.720        27
28.740        40
28.760        47
28.780        20
28.800        43
28.820        43
28.840        37
28.860        40
28.880        20
28.900        17
28.920        50
28.940        43
28.960        30
28.980        30
29.000        20
29.020        37
29.040        27
29.060        53
29.080        40
29.100        50
29.120        23
29.140        20
29.160        53
29.180        37
29.200        37
29.220        30
29.240        50
29.260        43
29.280        43
29.300        40
29.320        80
29.340        27
29.360        57
29.380        73
29.400        57
29.420        33
29.440        70
29.460        47
29.480        43
29.500        37
29.520        50
29.540        40
29.560        53
29.580        40
29.600        60
29.620        50
29.640        43
29.660        47
29.680        40
29.700        47
29.720        87
29.740        50
29.760        40
29.780        40
29.800        60
29.820        57
29.840        67
29.860        83
29.880        70
29.900        50
29.920        80
29.940        83
29.960        67
29.980        87
30.000       100
30.020        93
30.040       107
30.060        93
30.080       150
30.100       120
30.120       137
30.140       143
30.160       167
30.180       240
30.200       170
30.220       140
30.240       193
30.260       207
30.280       173
30.300       183
30.320       207
30.340       173
30.360       137
30.380       163
30.400       153
30.420       120
30.440       150
30.460       177
30.480        97
30.500       133
30.520       140
30.540       113
30.560       140
30.580        87
30.600       107
30.620       130
30.640       113
30.660        93
30.680       103
30.700        83
30.720        53
30.740        80
30.760       107
30.780        87
30.800        73
30.820        80
30.840       110
30.860        87
30.880        47
30.900        67
30.920        63
30.940        77
30.960        83
30.980        60
31.000        57
31.020        50
31.040        53
31.060        60
31.080        53
31.100        57
31.120        77
31.140        70
31.160        60
31.180        73
31.200        47
31.220        73
31.240        53
31.260        40
31.280        47
31.300        63
31.320        30
31.340        63
31.360        63
31.380        77
31.400        27
31.420        53
31.440        47
31.460        50
31.480        37
31.500        77
31.520        40
31.540        47
31.560        30
31.580        67
31.600        50
31.620        40
31.640        40
31.660        33
31.680        30
31.700        40
31.720        33
31.740        37
31.760        37
31.780        33
31.800        57
31.820        33
31.840        63
31.860        33
31.880        27
31.900        37
31.920        23
31.940        40
31.960        47
31.980        43
32.000        33
32.020        30
32.040        27
32.060        33
32.080        17
32.100        50
32.120        43
32.140        33
32.160        30
32.180        27
32.200        50
32.220        20
32.240        30
32.260        50
32.280        23
32.300        50
32.320        23
32.340        23
32.360        33
32.380        63
32.400        40
32.420        47
32.440        27
32.460        30
32.480        37
32.500        27
32.520        10
32.540        33
32.560        43
32.580        37
32.600        37
32.620        30
32.640        27
32.660        23
32.680        27
32.700        50
32.720        53
32.740        37
32.760        43
32.780        37
32.800        37
32.820        30
32.840        33
32.860        30
32.880        43
32.900        37
32.920        23
32.940        23
32.960        43
32.980        33
33.000        47
33.020        47
33.040        43
33.060        57
33.080        10
33.100        50
33.120        40
33.140        17
33.160        20
33.180        37
33.200        33
33.220        23
33.240        40
33.260        43
33.280        20
33.300        27
33.320        17
33.340        40
33.360        40
33.380        40
33.400        53
33.420        27
33.440        33
33.460        30
33.480        40
33.500        57
33.520        50
33.540        30
33.560        33
33.580        27
33.600        33
33.620        37
33.640        27
33.660        43
33.680        60
33.700        30
33.720        27
33.740        30
33.760        13
33.780        37
33.800        37
33.820        60
33.840        37
33.860        33
33.880        33
33.900        33
33.920        23
33.940        47
33.960        47
33.980        23
34.000        33
34.020        30
34.040        33
34.060        23
34.080        40
34.100        13
34.120        33
34.140        27
34.160        33
34.180        33
34.200        30
34.220        37
34.240        17
34.260        30
34.280        20
34.300        33
34.320        20
34.340        37
34.360        37
34.380        47
34.400        33
34.420        50
34.440        27
34.460        17
34.480        37
34.500        57
34.520        30
34.540        40
34.560        20
34.580        23
34.600        27
34.620        23
34.640        13
34.660        37
34.680        30
34.700        23
34.720        37
34.740        30
34.760        27
34.780        27
34.800        43
34.820        27
34.840        27
34.860        23
34.880        30
34.900        37
34.920        27
34.940        43
34.960        27
34.980        33
35.000        33
35.020        50
35.040        30
35.060        33
35.080        40
35.100        33
35.120        40
35.140        87
35.160        90
35.180       110
35.200       100
35.220        63
35.240        87
35.260        60
35.280        80
35.300        93
35.320        23
35.340        50
35.360        33
35.380        33
35.400        10
35.420        43
35.440        33
35.460        27
35.480        33
35.500        20
35.520        20
35.540        30
35.560        13
35.580        23
35.600        27
35.620        23
35.640        37
35.660        30
35.680        43
35.700        33
35.720        37
35.740        50
35.760        33
35.780        30
35.800        47
35.820        47
35.840        33
35.860        17
35.880        30
35.900        60
35.920        27
35.940        23
35.960        27
35.980        23
36.000        27
36.020        37
36.040        17
36.060        27
36.080        33
36.100        13
36.120        47
36.140        27
36.160        33
36.180        23
36.200        37
36.220        27
36.240        23
36.260        27
36.280        23
36.300        40
36.320        30
36.340        33
36.360        50
36.380        33
36.400        23
36.420        17
36.440        37
36.460        33
36.480        17
36.500        30
36.520        47
36.540        23
36.560        27
36.580        33
36.600        37
36.620        20
36.640        43
36.660        27
36.680        30
36.700        40
36.720        40
36.740        60
36.760        30
36.780        40
36.800        57
36.820        47
36.840        47
36.860        37
36.880        33
36.900        27
36.920        43
36.940        47
36.960        80
36.980        43
37.000        43
37.020        60
37.040        53
37.060        87
37.080        90
37.100        53
37.120        90
37.140        93
37.160        63
37.180       107
37.200       120
37.220       137
37.240       107
37.260       113
37.280       130
37.300       213
37.320       163
37.340       213
37.360       207
37.380       253
37.400       277
37.420       273
37.440       303
37.460       303
37.480       373
37.500       397
37.520       310
37.540       456
37.560       413
37.580       337
37.600       417
37.620       353
37.640       390
37.660       390
37.680       337
37.700       320
37.720       283
37.740       290
37.760       310
37.780       227
37.800       240
37.820       197
37.840       160
37.860       133
37.880       137
37.900       100
37.920       133
37.940        73
37.960       130
37.980        97
38.000        67
38.020       100
38.040        90
38.060        73
38.080        83
38.100        80
38.120        53
38.140        70
38.160        60
38.180        70
38.200        83
38.220        63
38.240        93
38.260        73
38.280        70
38.300        67
38.320        37
38.340        57
38.360        67
38.380        67
38.400        63
38.420        57
38.440        77
38.460        63
38.480        60
38.500        53
38.520        67
38.540        43
38.560        70
38.580        60
38.600        53
38.620        33
38.640        47
38.660        73
38.680        70
38.700        43
38.720        37
38.740        50
38.760        50
38.780        40
38.800        43
38.820        50
38.840        37
38.860        50
38.880        43
38.900        57
38.920        30
38.940        50
38.960        50
38.980        37
39.000        53
39.020        63
39.040        70
39.060        60
39.080        47
39.100        43
39.120        47
39.140        37
39.160        53
39.180        53
39.200        50
39.220        50
39.240        20
39.260        47
39.280        43
39.300        30
39.320        40
39.340        40
39.360        27
39.380        40
39.400        33
39.420        33
39.440        53
39.460        27
39.480        53
39.500        27
39.520        43
39.540        63
39.560        37
39.580        27
39.600        30
39.620        63
39.640        33
39.660        33
39.680        63
39.700        33
39.720        47
39.740        23
39.760        40
39.780        43
39.800        13
39.820        37
39.840        30
39.860        23
39.880        53
39.900        17
39.920        33
39.940        47
39.960        40
39.980        43
40.000        67
40.020        40
40.040        27
40.060        30
40.080        20
40.100        27
40.120        30
40.140        57
40.160        23
40.180        30
40.200        27
40.220        23
40.240        30
40.260        27
40.280        40
40.300        50
40.320        33
40.340        30
40.360        43
40.380        40
40.400        50
40.420        40
40.440        33
40.460        37
40.480        23
40.500        20
40.520        27
40.540        37
40.560        30
40.580        37
40.600        37
40.620        20
40.640        17
40.660        33
40.680        30
40.700        43
40.720        23
40.740        57
40.760        27
40.780        50
40.800        30
40.820        50
40.840        37
40.860        23
40.880        50
40.900        47
40.920        40
40.940        50
40.960        47
40.980        20
41.000        47
41.020        47
41.040        40
41.060        30
41.080        43
41.100        30
41.120        50
41.140        47
41.160        43
41.180        37
41.200        47
41.220        30
41.240        40
41.260        57
41.280        47
41.300        60
41.320        27
41.340        50
41.360        53
41.380        47
41.400        30
41.420        47
41.440        30
41.460        60
41.480        23
41.500        50
41.520        23
41.540        43
41.560        33
41.580        63
41.600        57
41.620        43
41.640        77
41.660        63
41.680        63
41.700        87
41.720       103
41.740        67
41.760        70
41.780        83
41.800        57
41.820        53
41.840        57
41.860        63
41.880        57
41.900        60
41.920        70
41.940        67
41.960        43
41.980        47
42.000        63
42.020        37
42.040        87
42.060        73
42.080        80
42.100        53
42.120        87
42.140        60
42.160        67
42.180        73
42.200        80
42.220       117
42.240        57
42.260        77
42.280        90
42.300        97
42.320        70
42.340        60
42.360        93
42.380        70
42.400        77
42.420        87
42.440        47
42.460        97
42.480        80
42.500       123
42.520       110
42.540       113
42.560       100
42.580        73
42.600       103
42.620        97
42.640       107
42.660       163
42.680       127
42.700       153
42.720       153
42.740       173
42.760       190
42.780       240
42.800       213
42.820       243
42.840       273
42.860       247
42.880       277
42.900       273
42.920       373
42.940       393
42.960       450
42.980       470
43.000       586
43.020       580
43.040       696
43.060       846
43.080       933
43.100       926
43.120       900
43.140      1160
43.160      1210
43.180      1299
43.200      1346
43.220      1339
43.240      1449
43.260      1539
43.280      1723
43.300      1653
43.320      1666
43.340      1746
43.360      1773
43.380      1683
43.400      1819
43.420      1486
43.440      1563
43.460      1279
43.480      1333
43.500       990
43.520      1096
43.540      1060
43.560       910
43.580       886
43.600       836
43.620       786
43.640       613
43.660       510
43.680       550
43.700       463
43.720       403
43.740       350
43.760       327
43.780       280
43.800       253
43.820       287
43.840       240
43.860       213
43.880       230
43.900       207
43.920       163
43.940       227
43.960       173
43.980       207
44.000       177
44.020       170
44.040       153
44.060       183
44.080       170
44.100       133
44.120       153
44.140       190
44.160       113
44.180       130
44.200       140
44.220       120
44.240       140
44.260       123
44.280       107
44.300       100
44.320       107
44.340       117
44.360       137
44.380       110
44.400       120
44.420       100
44.440       143
44.460        90
44.480       100
44.500        83
44.520       107
44.540       103
44.560       107
44.580       107
44.600       113
44.620       110
44.640       147
44.660        83
44.680       120
44.700        57
44.720        87
44.740       130
44.760        97
44.780        67
44.800        83
44.820        83
44.840        80
44.860       103
44.880        90
44.900        90
44.920        73
44.940       107
44.960        80
44.980        83
45.000        77
45.020        83
45.040        93
45.060        63
45.080        63
45.100        47
45.120        53
45.140        80
45.160        63
45.180        87
45.200        77
45.220        70
45.240        80
45.260        70
45.280        80
45.300        63
45.320        83
45.340        60
45.360        53
45.380        63
45.400        40
45.420        63
45.440        70
45.460        70
45.480        60
45.500        40
45.520       100
45.540        60
45.560        47
45.580        40
45.600        60
45.620        43
45.640        77
45.660        67
45.680        53
45.700        43
45.720        73
45.740        43
45.760        37
45.780        63
45.800        50
45.820        60
45.840        70
45.860        77
45.880        57
45.900        70
45.920        30
45.940        63
45.960        83
45.980        57
46.000        43
46.020        67
46.040        47
46.060        30
46.080        70
46.100        63
46.120        47
46.140        40
46.160        50
46.180        47
46.200        47
46.220        40
46.240        40
46.260        60
46.280        50
46.300        20
46.320        63
46.340        73
46.360        63
46.380        57
46.400        33
46.420        53
46.440        50
46.460        53
46.480        43
46.500        43
46.520        53
46.540        53
46.560        53
46.580        20
46.600        33
46.620        40
46.640        47
46.660        33
46.680        37
46.700        57
46.720        33
46.740        17
46.760        33
46.780        40
46.800        47
46.820        47
46.840        37
46.860        33
46.880        57
46.900        17
46.920        47
46.940        40
46.960        20
46.980        47
47.000        37
47.020        33
47.040        50
47.060        23
47.080        40
47.100        40
47.120        47
47.140        30
47.160        43
47.180        23
47.200        43
47.220        43
47.240        43
47.260        40
47.280        40
47.300        40
47.320        20
47.340        23
47.360        57
47.380        47
47.400        33
47.420        33
47.440        30
47.460        33
47.480        40
47.500        17
47.520        60
47.540        23
47.560        67
47.580        23
47.600        53
47.620        27
47.640        40
47.660        23
47.680        27
47.700        23
47.720        30
47.740        30
47.760        17
47.780        33
47.800        27
47.820        33
47.840        27
47.860        53
47.880        37
47.900        33
47.920        30
47.940        27
47.960        43
47.980        37
48.000        17
48.020        40
48.040        27
48.060        23
48.080        30
48.100        30
48.120        43
48.140        23
48.160        10
48.180        43
48.200        23
48.220        20
48.240        17
48.260        37
48.280        30
48.300        30
48.320        27
48.340        30
48.360        33
48.380        37
48.400        37
48.420        23
48.440        30
48.460        13
48.480        30
48.500        40
48.520        27
48.540        17
48.560        27
48.580        33
48.600        30
48.620        23
48.640        30
48.660        37
48.680        30
48.700        30
48.720        17
48.740        33
48.760        40
48.780        30
48.800        10
48.820        30
48.840        17
48.860        33
48.880        30
48.900        33
48.920        27
48.940        27
48.960        23
48.980        30
49.000        30
49.020        40
49.040        20
49.060        13
49.080        27
49.100        23
49.120        27
49.140        37
49.160         7
49.180        20
49.200        37
49.220        23
49.240        23
49.260        20
49.280        13
49.300        37
49.320        23
49.340        10
49.360        10
49.380        13
49.400        27
49.420        30
49.440        30
49.460         3
49.480        10
49.500        33
49.520        23
49.540        27
49.560        27
49.580        27
49.600        27
49.620        30
49.640        23
49.660        20
49.680        13
49.700        30
49.720        13
49.740        17
49.760        23
49.780        17
49.800        30
49.820        20
49.840        23
49.860        23
49.880        30
49.900        20
49.920        23
49.940        17
49.960        20
49.980        33
50.000        23
50.020        23
50.040        20
50.060        13
50.080        27
50.100        27
50.120        37
50.140        30
50.160        23
50.180        13
50.200        20
50.220        27
50.240        23
50.260        10
50.280        17
50.300        37
50.320        27
50.340        33
50.360        10
50.380        27
50.400        20
50.420        10
50.440        33
50.460        40
50.480        37
50.500        17
50.520        30
50.540        23
50.560        20
50.580         3
50.600        20
50.620        27
50.640        10
50.660        27
50.680        23
50.700        27
50.720        20
50.740        13
50.760        10
50.780        30
50.800         7
50.820        37
50.840        23
50.860        23
50.880        20
50.900        17
50.920        17
50.940        17
50.960        20
50.980        30
51.000        23
51.020        17
51.040        17
51.060        20
51.080        33
51.100        43
51.120        27
51.140        10
51.160        30
51.180        20
51.200        10
51.220        13
51.240        13
51.260        33
51.280        17
51.300        20
51.320        27
51.340        20
51.360        20
51.380        13
51.400        30
51.420         7
51.440        27
51.460        23
51.480        43
51.500        20
51.520        17
51.540        20
51.560        17
51.580        20
51.600        20
51.620        10
51.640        30
51.660        17
51.680        20
51.700        20
51.720        13
51.740        37
51.760        20
51.780        17
51.800        20
51.820        23
51.840        30
51.860        10
51.880        10
51.900        27
51.920        23
51.940        37
51.960        17
51.980        17
52.000        33
52.020        37
52.040        27
52.060        20
52.080        10
52.100        13
52.120        10
52.140        17
52.160        23
52.180        23
52.200        20
52.220        20
52.240        43
52.260        23
52.280        37
52.300        20
52.320         7
52.340        27
52.360        27
52.380        13
52.400        23
52.420        27
52.440        20
52.460        20
52.480        20
52.500        17
52.520        23
52.540        27
52.560        27
52.580        47
52.600        43
52.620        17
52.640        40
52.660        27
52.680        33
52.700        33
52.720        37
52.740        20
52.760        30
52.780        30
52.800        53
52.820        23
52.840        17
52.860        40
52.880        37
52.900        13
52.920        27
52.940        33
52.960        13
52.980        13
53.000        37
53.020         7
53.040        20
53.060        30
53.080        20
53.100        30
53.120         0
53.140        27
53.160        23
53.180        13
53.200        27
53.220        20
53.240        17
53.260        13
53.280        27
53.300        30
53.320        23
53.340        13
53.360        20
53.380        33
53.400        23
53.420        13
53.440        40
53.460        27
53.480        23
53.500        17
53.520        33
53.540        40
53.560        17
53.580        33
53.600        37
53.620        40
53.640        33
53.660         7
53.680        37
53.700        47
53.720        47
53.740        27
53.760        40
53.780        63
53.800        77
53.820        50
53.840        70
53.860        40
53.880        43
53.900        53
53.920        43
53.940        57
53.960        57
53.980        47
54.000        30
54.020        63
54.040        47
54.060        63
54.080        60
54.100        37
54.120        73
54.140        53
54.160        70
54.180        63
54.200        67
54.220        50
54.240        63
54.260        40
54.280        17
54.300        63
54.320        43
54.340        33
54.360        33
54.380        67
54.400        27
54.420        57
54.440        43
54.460        20
54.480        27
54.500        47
54.520        17
54.540        33
54.560        37
54.580        40
54.600        30
54.620        27
54.640        23
54.660        13
54.680        23
54.700        30
54.720        30
54.740        17
54.760        30
54.780        27
54.800        27
54.820        27
54.840        20
54.860        27
54.880        23
54.900        10
54.920        43
54.940        27
54.960        23
54.980        27
55.000        27
55.020        17
55.040        27
55.060        17
55.080        27
55.100         7
55.120         7
55.140        30
55.160        13
55.180        23
55.200        23
55.220        17
55.240        23
55.260        17
55.280        27
55.300        17
55.320        13
55.340        27
55.360        27
55.380        17
55.400        30
55.420        20
55.440        33
55.460        17
55.480        17
55.500        17
55.520         7
55.540        33
55.560        23
55.580        20
55.600        27
55.620        13
55.640        17
55.660        13
55.680        30
55.700        20
55.720        20
55.740        10
55.760        30
55.780        23
55.800        30
55.820        17
55.840        40
55.860        17
55.880        30
55.900        10
55.920        10
55.940        17
55.960        10
55.980        40
56.000        10
56.020        17
56.040        13
56.060        17
56.080        33
56.100        27
56.120        30
56.140        20
56.160        17
56.180        20
56.200        17
56.220         7
56.240        20
56.260        13
56.280        17
56.300         7
56.320        17
56.340        13
56.360        20
56.380        17
56.400        27
56.420        27
56.440        17
56.460        27
56.480        13
56.500        17
56.520        27
56.540        17
56.560        13
56.580         7
56.600        20
56.620        17
56.640        23
56.660         0
56.680        17
56.700        10
56.720        23
56.740        13
56.760        23
56.780        23
56.800        17
56.820        17
56.840        20
56.860        23
56.880        20
56.900        27
56.920        13
56.940         7
56.960        17
56.980         7
57.000        30
57.020         0
57.040        20
57.060        17
57.080        20
57.100        13
57.120        20
57.140        27
57.160         7
57.180        17
57.200        23
57.220        13
57.240        17
57.260        13
57.280        23
57.300        13
57.320        27
57.340        33
57.360        23
57.380        23
57.400        17
57.420        27
57.440        43
57.460        97
57.480        87
57.500       100
57.520        83
57.540       127
57.560       110
57.580       123
57.600        80
57.620        63
57.640        43
57.660        67
57.680        50
57.700        93
57.720        67
57.740        67
57.760        37
57.780        23
57.800        13
57.820        10
57.840        40
57.860        30
57.880        23
57.900        20
57.920        33
57.940        27
57.960        10
57.980        27
58.000        43
58.020        20
58.040        17
58.060        13
58.080        23
58.100        10
58.120        23
58.140        13
58.160        17
58.180        10
58.200        23
58.220        13
58.240         7
58.260        20
58.280        13
58.300         7
58.320        17
58.340        17
58.360         7
58.380        13
58.400        10
58.420        27
58.440        17
58.460        13
58.480        17
58.500        13
58.520        10
58.540        27
58.560        23
58.580        30
58.600        13
58.620        23
58.640        10
58.660         3
58.680        17
58.700        10
58.720        10
58.740        20
58.760        13
58.780        23
58.800        27
58.820        33
58.840        23
58.860        10
58.880        23
58.900        27
58.920         7
58.940        13
58.960        27
58.980        43
59.000         7
59.020        30
59.040        20
59.060        10
59.080        17
59.100        27
59.120        27
59.140        10
59.160        17
59.180        17
59.200        33
59.220        13
59.240        23
59.260        23
59.280        17
59.300        13
59.320        10
59.340         7
59.360        13
59.380        20
59.400         0
59.420        13
59.440        10
59.460        13
59.480         0
59.500        33
59.520        13
59.540        17
59.560        33
59.580         7
59.600        17
59.620        23
59.640        13
59.660        30
59.680        27
59.700        10
59.720        17
59.740        13
59.760        30
59.780        10
59.800         0
59.820        23
59.840        20
59.860         7
59.880        17
59.900        23
59.920        13
59.940        17
59.960         7
59.980        13
60.000        20
