20.000        63
20.020        63
20.040        53
20.060        50
20.080        40
20.100        47
20.120        53
20.140        33
20.160        27
20.180        47
20.200        33
20.220        63
20.240        57
20.260        43
20.280        50
20.300        50
20.320        50
20.340        50
20.360        50
20.380        50
20.400        40
20.420        77
20.440        43
20.460        60
20.480        50
20.500        63
20.520        47
20.540        37
20.560        37
20.580        67
20.600        57
20.620        43
20.640        57
20.660        47
20.680        43
20.700        60
20.720        50
20.740        47
20.760        63
20.780        67
20.800        57
20.820        93
20.840        93
20.860        60
20.880        73
20.900        77
20.920        53
20.940        77
20.960        83
20.980        63
21.000        83
21.020       130
21.040        80
21.060       127
21.080       127
21.100       117
21.120       143
21.140       137
21.160       213
21.180       180
21.200       177
21.220       220
21.240       197
21.260       197
21.280       220
21.300       250
21.320       187
21.340       230
21.360       220
21.380       220
21.400       187
21.420       133
21.440       120
21.460       123
21.480        90
21.500        80
21.520        63
21.540        67
21.560        50
21.580        60
21.600        73
21.620        40
21.640        47
21.660        50
21.680        43
21.700        67
21.720        53
21.740        53
21.760        53
21.780        40
21.800        50
21.820        37
21.840        43
21.860        43
21.880        50
21.900        50
21.920        47
21.940        50
21.960        57
21.980        50
22.000        53
22.020        63
22.040        67
22.060        23
22.080        70
22.100        53
22.120        33
22.140        53
22.160        53
22.180        43
22.200        57
22.220        43
22.240        57
22.260        43
22.280        77
22.300        63
22.320        50
22.340        27
22.360        33
22.380        37
22.400        63
22.420        60
22.440        37
22.460        33
22.480        43
22.500        70
22.520        50
22.540        30
22.560        60
22.580        60
22.600        57
22.620        77
22.640        70
22.660        47
22.680        53
22.700        27
22.720        30
22.740        40
22.760        43
22.780        47
22.800        67
22.820        43
22.840        37
22.860        53
22.880        30
22.900        53
22.920        60
22.940        53
22.960        50
22.980        37
23.000        43
23.020        30
23.040        50
23.060        50
23.080        40
23.100        40
23.120        50
23.140        40
23.160        47
23.180        70
23.200        53
23.220        50
23.240        17
23.260        47
23.280        47
23.300        43
23.320        67
23.340        43
23.360        60
23.380        33
23.400        47
23.420        47
23.440        53
23.460        60
23.480        50
23.500        43
23.520        67
23.540        30
23.560        50
23.580        47
23.600        57
23.620        43
23.640        57
23.660        33
23.680        37
23.700        27
23.720        67
23.740        53
23.760        37
23.780        30
23.800        40
23.820        27
23.840        37
23.860        47
23.880        47
23.900        50
23.920        53
23.940        43
23.960        57
23.980        37
24.000        43
24.020        37
24.040        70
24.060        30
24.080        10
24.100        30
24.120        20
24.140        50
24.160        40
24.180        23
24.200        57
24.220        43
24.240        33
24.260        33
24.280        40
24.300        40
24.320        43
24.340        53
24.360        73
24.380        33
24.400        50
24.420        53
24.440        27
24.460        37
24.480        23
24.500        27
24.520        40
24.540        47
24.560        40
24.580        47
24.600        33
24.620        50
24.640        37
24.660        60
24.680        40
24.700        30
24.720        67
24.740        43
24.760        67
24.780        47
24.800        43
24.820        20
24.840        40
24.860        17
24.880        50
24.900        30
24.920        47
24.940        47
24.960        40
24.980        27
25.000        40
25.020        40
25.040        27
25.060        27
25.080        53
25.100        47
25.120        47
25.140        40
25.160        57
25.180        30
25.200        47
25.220        43
25.240        57
25.260        23
25.280        40
25.300        40
25.320        37
25.340        57
25.360        43
25.380        40
25.400        23
25.420        23
25.440        37
25.460        43
25.480        30
25.500        33
25.520        93
25.540        17
25.560        53
25.580        37
25.600        37
25.620        57
25.640        70
25.660        67
25.680        27
25.700        23
25.720        47
25.740        43
25.760        43
25.780        47
25.800        50
25.820        13
25.840        27
25.860        40
25.880        63
25.900        73
25.920        37
25.940        43
25.960        43
25.980        43
26.000        37
26.020        33
26.040        37
26.060        47
26.080        33
26.100        40
26.120        50
26.140        47
26.160        37
26.180        30
26.200        37
26.220        43
26.240        20
26.260        47
26.280        37
26.300        47
26.320        40
26.340        37
26.360        57
26.380        33
26.400        30
26.420        43
26.440        17
26.460        60
26.480        40
26.500        47
26.520        20
26.540        27
26.560        30
26.580        33
26.600        50
26.620        17
26.640        40
26.660        37
26.680        43
26.700        40
26.720        37
26.740        33
26.760        43
26.780        40
26.800        70
26.820        40
26.840        40
26.860        37
26.880        20
26.900        53
26.920        40
26.940        37
26.960        23
26.980        50
27.000        50
27.020        37
27.040        33
27.060        30
27.080        33
27.100        23
27.120        30
27.140        30
27.160        53
27.180        23
27.200        40
27.220        30
27.240        37
27.260        17
27.280        57
27.300        53
27.320        47
27.340        30
27.360        43
27.380        37
27.400        27
27.420        70
27.440        40
27.460        47
27.480        30
27.500        47
27.520        27
27.540        43
27.560        27
27.580        47
27.600        43
27.620        43
27.640        40
27.660        33
27.680        53
27.700        33
27.720        43
27.740        33
27.760        50
27.780        47
27.800        50
27.820        43
27.840        37
27.860        37
27.880        33
27.900        30
27.920        27
27.940        40
27.960        33
27.980        37
28.000        37
28.020        20
28.040        40
28.060        43
28.080        40
28.100        33
28.120        23
28.140        30
28.160        10
28.180        33
28.200        30
28.220        37
28.240        33
28.260        13
28.280        23
28.300        33
28.320        30
28.340        43
28.360        43
28.380        40
28.400        53
28.420        30
28.440        43
28.460        20
28.480        27
28.500        23
28.520        30
28.540        30
28.560        23
28.580        37
28.600        37
28.620        43
28.640        37
28.660        27
28.680        47
28.700        37
28.720        40
28.740        30
28.760        33
28.780        37
28.800        50
28.820        30
28.840        37
28.860        37
28.880        47
28.900        37
28.920        33
28.940        43
28.960        30
28.980        33
29.000        63
29.020        43
29.040        40
29.060        43
29.080        47
29.100        37
29.120        40
29.140        37
29.160        40
29.180        40
29.200        27
29.220        23
29.240        43
29.260        37
29.280        33
29.300        43
29.320        70
29.340        47
29.360        30
29.380        47
29.400        27
29.420        33
29.440        50
29.460        27
29.480        23
29.500        43
29.520        40
29.540        47
29.560        60
29.580        47
29.600        33
29.620        47
29.640        40
29.660        37
29.680        43
29.700        50
29.720        57
29.740        60
29.760        47
29.780        47
29.800        53
29.820        60
29.840        33
29.860        60
29.880        73
29.900        67
29.920        53
29.940        63
29.960        93
29.980        83
30.000        80
30.020       113
30.040        83
30.060       117
30.080       120
30.100       113
30.120       117
30.140       160
30.160       113
30.180       163
30.200       103
30.220       147
30.240       183
30.260       190
30.280       123
30.300       157
30.320       173
30.340       163
30.360       197
30.380       193
30.400       143
30.420       150
30.440       150
30.460       133
30.480       140
30.500       157
30.520       123
30.540        90
30.560       117
30.580        83
30.600        77
30.620        93
30.640        97
30.660        63
30.680        73
30.700        73
30.720        63
30.740        60
30.760        50
30.780        47
30.800        90
30.820        47
30.840        43
30.860        50
30.880        63
30.900        70
30.920        70
30.940        77
30.960        53
30.980        37
31.000        63
31.020        63
31.040        63
31.060        57
31.080        53
31.100        60
31.120        57
31.140        23
31.160        33
31.180        70
31.200        53
31.220        37
31.240        40
31.260        27
31.280        40
31.300        37
31.320        43
31.340        37
31.360        50
31.380        57
31.400        27
31.420        30
31.440        37
31.460        33
31.480        20
31.500        30
31.520        50
31.540        27
31.560        47
31.580        47
31.600        57
31.620        30
31.640        53
31.660        23
31.680        30
31.700        17
31.720        30
31.740        20
31.760        60
31.780        17
31.800        20
31.820        37
31.840        53
31.860        20
31.880        23
31.900        40
31.920        43
31.940        30
31.960        40
31.980        50
32.000        47
32.020        37
32.040        17
32.060        50
32.080        43
32.100        27
32.120        53
32.140        40
32.160        57
32.180        43
32.200        37
32.220        33
32.240        23
32.260        23
32.280        30
32.300        23
32.320        27
32.340        13
32.360        33
32.380        43
32.400        17
32.420        43
32.440        33
32.460        30
32.480        33
32.500        30
32.520        30
32.540        37
32.560        37
32.580        17
32.600        17
32.620        37
32.640        23
32.660        23
32.680        43
32.700        33
32.720        23
32.740        20
32.760        40
32.780        23
32.800        40
32.820        37
32.840        23
32.860        40
32.880        30
32.900        40
32.920        37
32.940        27
32.960        20
32.980        20
33.000        20
33.020        23
33.040        47
33.060        23
33.080        43
33.100        40
33.120        30
33.140        30
33.160        27
33.180        10
33.200        27
33.220        40
33.240        20
33.260        30
33.280        23
33.300        23
33.320        30
33.340        37
33.360        37
33.380        23
33.400        23
33.420        23
33.440        27
33.460        33
33.480        40
33.500       113
33.520        40
33.540        17
33.560        13
33.580        23
33.600        40
33.620        30
33.640        40
33.660        43
33.680        23
33.700        33
33.720        57
33.740        40
33.760        37
33.780        23
33.800        50
33.820        30
33.840        20
33.860        43
33.880        27
33.900        37
33.920        17
33.940        23
33.960        23
33.980        37
34.000        27
34.020        20
34.040        37
34.060        27
34.080        53
34.100        23
34.120        27
34.140        23
34.160        43
34.180        30
34.200        30
34.220        27
34.240        27
34.260        37
34.280        20
34.300        13
34.320        30
34.340        40
34.360        17
34.380        33
34.400        30
34.420        43
34.440        43
34.460        27
34.480        17
34.500        17
34.520        13
34.540        17
34.560        53
34.580        27
34.600        40
34.620        37
34.640        23
34.660        30
34.680        23
34.700        27
34.720        17
34.740        47
34.760        50
34.780        47
34.800        40
34.820        50
34.840        40
34.860        17
34.880        13
34.900        27
34.920        17
34.940        13
34.960         7
34.980        27
35.000        43
35.020        23
35.040        30
35.060        37
35.080        23
35.100        40
35.120        37
35.140        93
35.160        67
35.180        70
35.200        77
35.220        57
35.240        63
35.260        50
35.280        53
35.300        40
35.320        47
35.340        33
35.360        27
35.380        37
35.400        40
35.420        37
35.440        20
35.460        27
35.480        47
35.500        27
35.520        33
35.540        43
35.560        33
35.580        27
35.600        33
35.620        27
35.640        27
35.660        27
35.680        43
35.700        27
35.720        23
35.740        20
35.760        13
35.780        30
35.800        33
35.820        33
35.840        40
35.860        23
35.880        30
35.900        37
35.920        37
35.940        23
35.960        30
35.980        33
36.000        27
36.020        30
36.040        43
36.060        37
36.080        50
36.100        37
36.120        30
36.140        40
36.160        37
36.180        37
36.200        33
36.220        50
36.240        40
36.260        23
36.280        20
36.300        37
36.320        50
36.340        30
36.360        30
36.380        23
36.400        43
36.420        33
36.440        30
36.460        33
36.480        50
36.500        50
36.520        47
36.540        23
36.560        13
36.580        33
36.600        23
36.620        27
36.640        27
36.660        30
36.680        70
36.700        63
36.720        50
36.740        30
36.760        43
36.780        50
36.800        50
36.820        43
36.840        63
36.860        33
36.880        43
36.900        60
36.920        53
36.940        90
36.960        57
36.980        53
37.000        73
37.020        60
37.040        90
37.060        87
37.080        93
37.100       137
37.120       107
37.140       167
37.160       153
37.180       167
37.200       133
37.220       253
37.240       233
37.260       270
37.280       297
37.300       357
37.320       350
37.340       397
37.360       417
37.380       540
37.400       550
37.420       623
37.440       703
37.460       693
37.480       833
37.500       846
37.520      1046
37.540      1103
37.560      1116
37.580      1006
37.600      1090
37.620       846
37.640       800
37.660       676
37.680       656
37.700       536
37.720       483
37.740       413
37.760       307
37.780       350
37.800       323
37.820       257
37.840       240
37.860       260
37.880       163
37.900       227
37.920       177
37.940       177
37.960       133
37.980       147
38.000       147
38.020       130
38.040       150
38.060       103
38.080        97
38.100       150
38.120       110
38.140       137
38.160        83
38.180       127
38.200       137
38.220       117
38.240        90
38.260       103
38.280        83
38.300        77
38.320        83
38.340       103
38.360        93
38.380        67
38.400        93
38.420        83
38.440       107
38.460        97
38.480        80
38.500        73
38.520        93
38.540        73
38.560        70
38.580        67
38.600        60
38.620        73
38.640        97
38.660        73
38.680        57
38.700        70
38.720        50
38.740        67
38.760        63
38.780        80
38.800        80
38.820        43
38.840        67
38.860        57
38.880        30
38.900        37
38.920        53
38.940        83
38.960        47
38.980        53
39.000        80
39.020        33
39.040        57
39.060        73
39.080        53
39.100        63
39.120        33
39.140        70
39.160        43
39.180        47
39.200        60
39.220        37
39.240        63
39.260        47
39.280        43
39.300        27
39.320        63
39.340        43
39.360        60
39.380        23
39.400        37
39.420        50
39.440        43
39.460        47
39.480        47
39.500        43
39.520        33
39.540        57
39.560        53
39.580        33
39.600        47
39.620        40
39.640        40
39.660        53
39.680        27
39.700        53
39.720        33
39.740        37
39.760        30
39.780        23
39.800        47
39.820        37
39.840        53
39.860        23
39.880        40
39.900        17
39.920        57
39.940        27
39.960        47
39.980        30
40.000        37
40.020        47
40.040        43
40.060        57
40.080        40
40.100        23
40.120        37
40.140        60
40.160        30
40.180        50
40.200        57
40.220        47
40.240        37
40.260        33
40.280        33
40.300        50
40.320        47
40.340        37
40.360        20
40.380        20
40.400        37
40.420        23
40.440        40
40.460        43
40.480        33
40.500        23
40.520        30
40.540        57
40.560        40
40.580        27
40.600        30
40.620        33
40.640        40
40.660        37
40.680        47
40.700        30
40.720        20
40.740        47
40.760        37
40.780        23
40.800        43
40.820        30
40.840        37
40.860        47
40.880        23
40.900        20
40.920        37
40.940        37
40.960        27
40.980        33
41.000        30
41.020        37
41.040        43
41.060        50
41.080        33
41.100        17
41.120        53
41.140        23
41.160        20
41.180        27
41.200        27
41.220        47
41.240        27
41.260        43
41.280        40
41.300        43
41.320        20
41.340        27
41.360        47
41.380        10
41.400        33
41.420        30
41.440        20
41.460        30
41.480        33
41.500        40
41.520        47
41.540        60
41.560        57
41.580        23
41.600        60
41.620        43
41.640        40
41.660        63
41.680        97
41.700        63
41.720        87
41.740       100
41.760        60
41.780        60
41.800        47
41.820        77
41.840        70
41.860        43
41.880        43
41.900        57
41.920        27
41.940        37
41.960        27
41.980        60
42.000        37
42.020        30
42.040        43
42.060        57
42.080        33
42.100        47
42.120        43
42.140        37
42.160        27
42.180        53
42.200        43
42.220        40
42.240        57
42.260        63
42.280        50
42.300        50
42.320        53
42.340        50
42.360        53
42.380        50
42.400        50
42.420        53
42.440        47
42.460        47
42.480        40
42.500        47
42.520        67
42.540        47
42.560        70
42.580        50
42.600        53
42.620        80
42.640        80
42.660        63
42.680        87
42.700        83
42.720        80
42.740        80
42.760        73
42.780        90
42.800        87
42.820        87
42.840       130
42.860        90
42.880       147
42.900       177
42.920       147
42.940       177
42.960       140
42.980       187
43.000       207
43.020       230
43.040       313
43.060       323
43.080       393
43.100       353
43.120       340
43.140       453
43.160       503
43.180       536
43.200       483
43.220       553
43.240       660
43.260       650
43.280       650
43.300       676
43.320       700
43.340       790
43.360       726
43.380       730
43.400       733
43.420       756
43.440       830
43.460       606
43.480       660
43.500       570
43.520       536
43.540       523
43.560       453
43.580       407
43.600       390
43.620       297
43.640       293
43.660       203
43.680       223
43.700       160
43.720       173
43.740       147
43.760       123
43.780       117
43.800       127
43.820       143
43.840        93
43.860       100
43.880        63
43.900       103
43.920        53
43.940        50
43.960        93
43.980        57
44.000       107
44.020        83
44.040        93
44.060       103
44.080        63
44.100        73
44.120        73
44.140        77
44.160        70
44.180        63
44.200        70
44.220        23
44.240        47
44.260        57
44.280        53
44.300        57
44.320        63
44.340        67
44.360        37
44.380        47
44.400        43
44.420        57
44.440        60
44.460        33
44.480        43
44.500        50
44.520        50
44.540        53
44.560        57
44.580        37
44.600        43
44.620        33
44.640        57
44.660        57
44.680        47
44.700        53
44.720        77
44.740        60
44.760        70
44.780        37
44.800        57
44.820        57
44.840        30
44.860        40
44.880        63
44.900        30
44.920        47
44.940        43
44.960        27
44.980        37
45.000        47
45.020        23
45.040        47
45.060        23
45.080        60
45.100        40
45.120        40
45.140        37
45.160        43
45.180        50
45.200        17
45.220        47
45.240        30
45.260        40
45.280        40
45.300        23
45.320        33
45.340        33
45.360        27
45.380        27
45.400        30
45.420        43
45.440        27
45.460        27
45.480        23
45.500        30
45.520        40
45.540        13
45.560        43
45.580        40
45.600        20
45.620        50
45.640        43
45.660        23
45.680        40
45.700        37
45.720        40
45.740        40
45.760        30
45.780        33
45.800        10
45.820        23
45.840        30
45.860        33
45.880        23
45.900        13
45.920        43
45.940        30
45.960        27
45.980        43
46.000        30
46.020        33
46.040        33
46.060        23
46.080        30
46.100        33
46.120        27
46.140        20
46.160        43
46.180        37
46.200        33
46.220        17
46.240        47
46.260        17
46.280        33
46.300        30
46.320        37
46.340        30
46.360        27
46.380        23
46.400        47
46.420        43
46.440        27
46.460        30
46.480        17
46.500        40
46.520        20
46.540        30
46.560        27
46.580        30
46.600        43
46.620        10
46.640        27
46.660        33
46.680        47
46.700        20
46.720        17
46.740        20
46.760        23
46.780        13
46.800        23
46.820        10
46.840        13
46.860        30
46.880        37
46.900        27
46.920        30
46.940        17
46.960        30
46.980        40
47.000        27
47.020        37
47.040        27
47.060        27
47.080        20
47.100        37
47.120        17
47.140        23
47.160        17
47.180        27
47.200        17
47.220        37
47.240        37
47.260        17
47.280        17
47.300        27
47.320        23
47.340        23
47.360        30
47.380        13
47.400        23
47.420        17
47.440        23
47.460        20
47.480        23
47.500        37
47.520         7
47.540        13
47.560        17
47.580        23
47.600        33
47.620        17
47.640        23
47.660        40
47.680        17
47.700        23
47.720        23
47.740        17
47.760        17
47.780        17
47.800        37
47.820        20
47.840        30
47.860        33
47.880         7
47.900        17
47.920        13
47.940        23
47.960        43
47.980        17
48.000        13
48.020        20
48.040        17
48.060        23
48.080        23
48.100        23
48.120        30
48.140        30
48.160        17
48.180        10
48.200        17
48.220         7
48.240        27
48.260        27
48.280         7
48.300        17
48.320        17
48.340        17
48.360        23
48.380        23
48.400        33
48.420        13
48.440        30
48.460        27
48.480        47
48.500        30
48.520        37
48.540        17
48.560        27
48.580        27
48.600        17
48.620        10
48.640        33
48.660        37
48.680        20
48.700        23
48.720        27
48.740        30
48.760        20
48.780        23
48.800        23
48.820        23
48.840        20
48.860        13
48.880        23
48.900        53
48.920        30
48.940        23
48.960        13
48.980        23
49.000        17
49.020        23
49.040        13
49.060        30
49.080        30
49.100         3
49.120        13
49.140        17
49.160        20
49.180        10
49.200        37
49.220        20
49.240        20
49.260        23
49.280        17
49.300         7
49.320        30
49.340        23
49.360        13
49.380        20
49.400        33
49.420        23
49.440        23
49.460        30
49.480        27
49.500        13
49.520        30
49.540        27
49.560         7
49.580        20
49.600        13
49.620        17
49.640        23
49.660         7
49.680        23
49.700        30
49.720        10
49.740        20
49.760        33
49.780        20
49.800        33
49.820        27
49.840        23
49.860        20
49.880        23
49.900        27
49.920        27
49.940        23
49.960        17
49.980        13
50.000        17
50.020        17
50.040        27
50.060        30
50.080        17
50.100        37
50.120        17
50.140        17
50.160        20
50.180        23
50.200        20
50.220        33
50.240        23
50.260        20
50.280        13
50.300        10
50.320        13
50.340        20
50.360        13
50.380        20
50.400        23
50.420        10
50.440         7
50.460        20
50.480        27
50.500         7
50.520         7
50.540        17
50.560        20
50.580        10
50.600         7
50.620        10
50.640        27
50.660        30
50.680         7
50.700        10
50.720        20
50.740        13
50.760        23
50.780        17
50.800        43
50.820        17
50.840        13
50.860        33
50.880        20
50.900        23
50.920         7
50.940        20
50.960        30
50.980        20
51.000        10
51.020        27
51.040         3
51.060        10
51.080        10
51.100        10
51.120        37
51.140        30
51.160        27
51.180        13
51.200        27
51.220        13
51.240        10
51.260        23
51.280        20
51.300        17
51.320        23
51.340        10
51.360        20
51.380        10
51.400        40
51.420        27
51.440        10
51.460        20
51.480        40
51.500        20
51.520        13
51.540        20
51.560        20
51.580        23
51.600        27
51.620        20
51.640        17
51.660        13
51.680        10
51.700        30
51.720        20
51.740        13
51.760         7
51.780        30
51.800        17
51.820        10
51.840        17
51.860        10
51.880        13
51.900        27
51.920        27
51.940         7
51.960        10
51.980        23
52.000        13
52.020        17
52.040        17
52.060         7
52.080        27
52.100        17
52.120        27
52.140        30
52.160        20
52.180        10
52.200         7
52.220        13
52.240        13
52.260        43
52.280        13
52.300        13
52.320        37
52.340         7
52.360        13
52.380        17
52.400        27
52.420         3
52.440        17
52.460        17
52.480        47
52.500        17
52.520        27
52.540        17
52.560        23
52.580        17
52.600        30
52.620        33
52.640        30
52.660        13
52.680        13
52.700        20
52.720        43
52.740        33
52.760        23
52.780        27
52.800        13
52.820        17
52.840        17
52.860        23
52.880        20
52.900        20
52.920        23
52.940        10
52.960        17
52.980        10
53.000        10
53.020        17
53.040        17
53.060        50
53.080        27
53.100        23
53.120        23
53.140        17
53.160        10
53.180        27
53.200        17
53.220        40
53.240        13
53.260        40
53.280        13
53.300        23
53.320        27
53.340        10
53.360        23
53.380        23
53.400        23
53.420        27
53.440        13
53.460        23
53.480        30
53.500        47
53.520        37
53.540        17
53.560        30
53.580        60
53.600        57
53.620        43
53.640        30
53.660        27
53.680        13
53.700        37
53.720        57
53.740        43
53.760        40
53.780        53
53.800        40
53.820        63
53.840        43
53.860        57
53.880        47
53.900        47
53.920        40
53.940        40
53.960        70
53.980        70
54.000        77
54.020        40
54.040        93
54.060       107
54.080        57
54.100        70
54.120        67
54.140        63
54.160        33
54.180        63
54.200        57
54.220        60
54.240        33
54.260        40
54.280        43
54.300        60
54.320        53
54.340        50
54.360        30
54.380        57
54.400        37
54.420        30
54.440        30
54.460        33
54.480        47
54.500        23
54.520        27
54.540        23
54.560        17
54.580        20
54.600        53
54.620        17
54.640        20
54.660        47
54.680        30
54.700        30
54.720        30
54.740        27
54.760        20
54.780        37
54.800        13
54.820        27
54.840        20
54.860        43
54.880        40
54.900        43
54.920        33
54.940        20
54.960        33
54.980        33
55.000        43
55.020        13
55.040        20
55.060         3
55.080        27
55.100         7
55.120        27
55.140        30
55.160        20
55.180        23
55.200         7
55.220        30
55.240        20
55.260        47
55.280        17
55.300        23
55.320        20
55.340        17
55.360        13
55.380        30
55.400        17
55.420        13
55.440        13
55.460        17
55.480        20
55.500        13
55.520        20
55.540        13
55.560        37
55.580        17
55.600         7
55.620        13
55.640        27
55.660        20
55.680        17
55.700        17
55.720        20
55.740        27
55.760         7
55.780        17
55.800        23
55.820        13
55.840        20
55.860        37
55.880        17
55.900        30
55.920        13
55.940        17
55.960        37
55.980        43
56.000         3
56.020        17
56.040        27
56.060        23
56.080         7
56.100        33
56.120         7
56.140        17
56.160        20
56.180        27
56.200        27
56.220        23
56.240        13
56.260        20
56.280        20
56.300        23
56.320        10
56.340        13
56.360        10
56.380         3
56.400        17
56.420        10
56.440        23
56.460        10
56.480        13
56.500        40
56.520         7
56.540         0
56.560        13
56.580        20
56.600         3
56.620        17
56.640         7
56.660        20
56.680        13
56.700        20
56.720        20
56.740        20
56.760         7
56.780        27
56.800        13
56.820        13
56.840        20
56.860        23
56.880        17
56.900         7
56.920        17
56.940        10
56.960        23
56.980         7
57.000        10
57.020        10
57.040        10
57.060        17
57.080         7
57.100        30
57.120        23
57.140        20
57.160        10
57.180        23
57.200        13
57.220        13
57.240         3
57.260         7
57.280        20
57.300        13
57.320        13
57.340        13
57.360        30
57.380         7
57.400        13
57.420        20
57.440        10
57.460        33
57.480        17
57.500        53
57.520        37
57.540        60
57.560        63
57.580        50
57.600        57
57.620        27
57.640        33
57.660        37
57.680        50
57.700        77
57.720        40
57.740        40
57.760        37
57.780        20
57.800         7
57.820        20
57.840        20
57.860        17
57.880         3
57.900        17
57.920        17
57.940        13
57.960         3
57.980        30
58.000         7
58.020        20
58.040        13
58.060         3
58.080        27
58.100        13
58.120        10
58.140         3
58.160        17
58.180        17
58.200        17
58.220        30
58.240        23
58.260        13
58.280        27
58.300        10
58.320        13
58.340         7
58.360        27
58.380        17
58.400        20
58.420        20
58.440        20
58.460        20
58.480        10
58.500         3
58.520        13
58.540        20
58.560        10
58.580        17
58.600        10
58.620         3
58.640        13
58.660        23
58.680        10
58.700        17
58.720        10
58.740        17
58.760         7
58.780        17
58.800         7
58.820         3
58.840        20
58.860        10
58.880        13
58.900        10
58.920         7
58.940        23
58.960         7
58.980        13
59.000        10
59.020        13
59.040        23
59.060        10
59.080        40
59.100        10
59.120         7
59.140        20
59.160         3
59.180        17
59.200         3
59.220         7
59.240        10
59.260        27
59.280         7
59.300         7
59.320        10
59.340        23
59.360        10
59.380        13
59.400        10
59.420        20
59.440         7
59.460        10
59.480        20
59.500        17
59.520        17
59.540        20
59.560        13
59.580        13
59.600        23
59.620        10
59.640        30
59.660        30
59.680        10
59.700        10
59.720        23
59.740        10
59.760        20
59.780        13
59.800        17
59.820        13
59.840        13
59.860         7
59.880         7
59.900        20
59.920        30
59.940        13
59.960        23
59.980        17
60.000        20
