20.000        60
20.020        43
20.040        73
20.060        40
20.080        67
20.100        60
20.120        43
20.140        57
20.160        40
20.180        63
20.200        50
20.220        63
20.240        50
20.260        47
20.280        47
20.300        57
20.320        47
20.340        40
20.360        50
20.380        47
20.400        70
20.420        50
20.440        73
20.460        43
20.480        33
20.500        50
20.520        33
20.540        33
20.560        67
20.580        57
20.600        33
20.620        53
20.640        70
20.660        50
20.680        50
20.700        47
20.720        63
20.740        30
20.760        47
20.780        43
20.800        40
20.820        60
20.840        47
20.860        63
20.880        43
20.900        63
20.920        90
20.940        77
20.960        67
20.980        50
21.000        93
21.020        90
21.040        93
21.060       120
21.080       137
21.100       157
21.120       193
21.140       203
21.160       257
21.180       313
21.200       323
21.220       350
21.240       433
21.260       387
21.280       480
21.300       433
21.320       470
21.340       443
21.360       370
21.380       323
21.400       237
21.420       253
21.440       203
21.460       123
21.480       120
21.500        87
21.520        97
21.540       103
21.560        50
21.580        93
21.600        60
21.620        70
21.640        50
21.660        73
21.680        60
21.700        80
21.720        40
21.740        63
21.760        83
21.780        43
21.800        63
21.820        57
21.840        43
21.860        47
21.880        73
21.900        60
21.920        60
21.940        37
21.960        47
21.980        53
22.000        47
22.020        33
22.040        43
22.060        57
22.080        47
22.100        13
22.120        30
22.140        47
22.160        57
22.180        53
22.200        63
22.220        60
22.240        27
22.260        73
22.280        70
22.300        47
22.320        53
22.340        50
22.360        47
22.380        47
22.400        53
22.420        60
22.440        50
22.460        63
22.480        43
22.500        53
22.520        57
22.540        47
22.560        50
22.580        57
22.600        63
22.620        63
22.640        63
22.660        40
22.680        40
22.700        47
22.720        63
22.740        73
22.760        30
22.780        30
22.800        40
22.820        30
22.840        57
22.860        43
22.880        50
22.900        53
22.920        70
22.940        60
22.960        57
22.980        53
23.000        37
23.020        67
23.040        47
23.060        50
23.080        43
23.100        20
23.120        23
23.140        60
23.160        50
23.180        57
23.200        43
23.220        53
23.240        43
23.260        63
23.280        33
23.300        53
23.320        27
23.340        47
23.360        43
23.380        43
23.400        57
23.420        47
23.440        50
23.460        40
23.480        50
23.500        47
23.520        37
23.540        57
23.560        57
23.580        37
23.600        43
23.620        43
23.640        50
23.660        37
23.680        50
23.700        43
23.720        27
23.740        50
23.760        37
23.780        67
23.800        50
23.820        37
23.840        43
23.860        80
23.880        33
23.900        53
23.920        43
23.940        40
23.960        50
23.980        53
24.000        37
24.020        43
24.040        53
24.060        30
24.080        33
24.100        50
24.120        57
24.140        17
24.160        33
24.180        70
24.200        50
24.220        47
24.240        50
24.260        30
24.280        43
24.300        40
24.320        60
24.340        37
24.360        57
24.380        30
24.400        27
24.420        23
24.440        57
24.460        60
24.480        40
24.500        50
24.520        43
24.540        47
24.560        57
24.580        43
24.600        40
24.620        57
24.640        27
24.660        50
24.680        33
24.700        43
24.720        57
24.740        47
24.760        53
24.780        53
24.800        37
24.820        47
24.840        50
24.860        33
24.880        20
24.900        27
24.920        27
24.940        50
24.960        63
24.980        83
25.000        50
25.020        57
25.040        30
25.060        50
25.080        23
25.100        53
25.120        57
25.140        57
25.160        53
25.180        27
25.200        43
25.220        37
25.240        37
25.260        47
25.280        87
25.300        43
25.320        47
25.340        50
25.360        77
25.380        37
25.400        47
25.420        37
25.440        33
25.460        47
25.480        53
25.500        57
25.520        47
25.540        50
25.560        43
25.580        50
25.600        47
25.620        53
25.640        50
25.660        73
25.680        43
25.700        27
25.720        20
25.740        37
25.760        33
25.780        40
25.800        33
25.820        43
25.840        50
25.860        20
25.880        40
25.900        57
25.920        40
25.940        43
25.960        47
25.980        37
26.000        67
26.020        50
26.040        43
26.060        53
26.080        50
26.100        30
26.120        47
26.140        50
26.160        33
26.180        53
26.200        20
26.220        67
26.240        17
26.260        53
26.280        57
26.300        50
26.320        40
26.340        60
26.360        33
26.380        27
26.400        33
26.420        63
26.440        30
26.460        47
26.480        17
26.500        33
26.520        43
26.540        57
26.560        37
26.580        33
26.600        30
26.620        40
26.640        43
26.660        43
26.680        63
26.700        63
26.720        43
26.740        10
26.760        33
26.780        27
26.800        43
26.820        60
26.840        53
26.860        33
26.880        33
26.900        37
26.920        60
26.940        50
26.960        20
26.980        47
27.000        27
27.020        60
27.040        33
27.060        33
27.080        43
27.100        57
27.120        63
27.140        40
27.160        40
27.180        40
27.200        47
27.220        43
27.240        47
27.260        37
27.280        27
27.300        37
27.320        43
27.340        33
27.360        40
27.380        30
27.400        37
27.420        33
27.440        43
27.460        40
27.480        37
27.500        20
27.520        10
27.540        20
27.560        37
27.580        33
27.600        33
27.620        37
27.640        23
27.660        30
27.680        57
27.700        33
27.720        30
27.740        37
27.760        63
27.780        27
27.800        37
27.820        33
27.840        30
27.860        37
27.880        47
27.900        33
27.920        37
27.940        37
27.960        37
27.980        33
28.000        33
28.020        33
28.040        33
28.060        33
28.080        23
28.100        53
28.120        47
28.140        40
28.160        33
28.180        53
28.200        17
28.220        47
28.240        40
28.260        43
28.280        33
28.300        27
28.320        30
28.340        50
28.360        47
28.380        30
28.400        23
28.420        37
28.440        23
28.460        43
28.480        27
28.500        23
28.520        37
28.540        23
28.560        23
28.580        33
28.600        40
28.620        30
28.640        20
28.660        50
28.680        47
28.700        17
28.720        20
28.740        30
28.760        43
28.780        43
28.800        27
28.820        30
28.840        40
28.860        30
28.880        50
28.900        57
28.920        10
28.940        27
28.960        20
28.980        47
29.000        33
29.020        37
29.040        40
29.060        50
29.080        23
29.100        37
29.120        20
29.140        17
29.160        33
29.180        17
29.200        47
29.220        37
29.240        40
29.260        43
29.280        33
29.300        30
29.320        23
29.340        43
29.360        37
29.380        37
29.400        27
29.420        33
29.440        43
29.460        37
29.480        43
29.500        47
29.520        53
29.540        43
29.560        50
29.580        17
29.600        27
29.620        30
29.640        37
29.660        20
29.680        37
29.700        47
29.720        40
29.740        47
29.760        30
29.780        37
29.800        47
29.820        43
29.840        27
29.860        77
29.880        60
29.900        53
29.920        73
29.940        53
29.960        80
29.980        90
30.000       107
30.020       103
30.040       103
30.060        70
30.080       110
30.100       100
30.120       153
30.140       137
30.160       143
30.180       153
30.200       203
30.220       160
30.240       140
30.260       190
30.280       207
30.300       213
30.320       210
30.340       153
30.360       227
30.380       167
30.400       213
30.420       160
30.440       173
30.460       120
30.480       173
30.500       163
30.520       103
30.540       123
30.560       103
30.580        93
30.600        83
30.620        60
30.640        93
30.660        90
30.680        97
30.700        47
30.720        73
30.740        40
30.760        73
30.780        53
30.800        70
30.820        73
30.840        63
30.860        63
30.880        77
30.900        47
30.920        47
30.940        50
30.960        60
30.980        47
31.000        43
31.020        80
31.040        57
31.060        43
31.080        60
31.100        57
31.120        33
31.140        47
31.160        63
31.180        43
31.200        37
31.220        50
31.240        40
31.260        50
31.280        37
31.300        30
31.320        47
31.340        80
31.360        47
31.380        47
31.400        43
31.420        33
31.440        33
31.460        43
31.480        47
31.500        40
31.520        33
31.540        53
31.560        30
31.580        30
31.600        33
31.620        37
31.640        43
31.660        37
31.680        37
31.700        40
31.720        37
31.740        33
31.760        27
31.780        47
31.800        43
31.820        23
31.840        33
31.860        50
31.880        30
31.900        30
31.920        30
31.940        50
31.960        30
31.980        40
32.000        33
32.020        37
32.040        40
32.060        40
32.080        37
32.100        33
32.120        17
32.140        43
32.160        23
32.180        47
32.200        40
32.220        37
32.240        30
32.260        33
32.280        30
32.300        43
32.320        27
32.340        33
32.360        20
32.380        37
32.400        37
32.420        20
32.440        43
32.460        43
32.480        27
32.500        17
32.520        53
32.540        30
32.560        43
32.580        40
32.600        27
32.620        43
32.640        33
32.660        17
32.680        40
32.700        40
32.720        37
32.740        47
32.760        33
32.780        27
32.800        43
32.820        23
32.840        43
32.860        33
32.880        33
32.900        53
32.920        27
32.940        30
32.960        23
32.980        30
33.000        20
33.020         7
33.040        40
33.060        53
33.080        30
33.100        33
33.120        23
33.140        23
33.160        30
33.180        33
33.200        40
33.220        33
33.240        27
33.260        40
33.280        47
33.300        53
33.320        27
33.340        23
33.360        27
33.380        23
33.400        43
33.420        17
33.440        37
33.460        40
33.480        47
33.500        30
33.520        37
33.540        27
33.560        30
33.580        27
33.600        33
33.620        33
33.640        33
33.660        13
33.680         7
33.700        30
33.720        23
33.740        23
33.760        43
33.780        37
33.800        33
33.820        30
33.840        43
33.860        20
33.880        20
33.900        23
33.920        40
33.940        23
33.960        27
33.980        23
34.000        47
34.020        43
34.040        20
34.060        33
34.080        43
34.100        30
34.120        30
34.140        33
34.160        33
34.180        30
34.200        30
34.220        33
34.240        37
34.260        57
34.280        23
34.300        40
34.320        47
34.340        37
34.360        33
34.380        23
34.400        23
34.420        23
34.440        23
34.460        43
34.480        27
34.500        47
34.520        33
34.540        33
34.560        47
34.580        33
34.600        30
34.620        23
34.640        17
34.660        20
34.680        30
34.700        27
34.720        37
34.740        17
34.760         7
34.780        33
34.800        40
34.820        50
34.840        30
34.860        53
34.880        40
34.900        43
34.920        33
34.940        27
34.960        47
34.980        30
35.000        43
35.020        40
35.040        50
35.060        60
35.080        20
35.100        80
35.120        83
35.140       120
35.160       127
35.180       133
35.200       133
35.220       107
35.240        90
35.260        63
35.280        70
35.300        83
35.320        23
35.340        40
35.360        20
35.380        33
35.400        37
35.420        43
35.440        17
35.460        37
35.480        10
35.500         7
35.520        27
35.540        43
35.560        20
35.580        13
35.600        40
35.620        20
35.640        13
35.660        23
35.680        20
35.700        20
35.720        40
35.740        27
35.760        13
35.780        20
35.800        43
35.820        30
35.840        33
35.860        27
35.880        20
35.900        20
35.920        43
35.940        40
35.960        17
35.980        20
36.000        50
36.020        30
36.040        27
36.060        47
36.080        23
36.100        37
36.120        17
36.140        47
36.160        27
36.180        27
36.200        20
36.220        30
36.240        53
36.260        27
36.280        53
36.300        50
36.320        37
36.340        43
36.360        27
36.380        40
36.400        47
36.420        20
36.440        20
36.460        20
36.480        37
36.500        30
36.520        27
36.540        40
36.560        40
36.580        47
36.600        40
36.620        47
36.640        57
36.660        23
36.680        43
36.700        23
36.720        33
36.740        33
36.760        33
36.780        27
36.800        57
36.820        60
36.840        47
36.860        40
36.880        43
36.900        63
36.920        40
36.940        73
36.960        43
36.980        47
37.000        53
37.020        60
37.040        87
37.060        73
37.080        63
37.100       123
37.120       103
37.140       117
37.160        73
37.180       120
37.200       150
37.220       163
37.240       180
37.260       217
37.280       210
37.300       210
37.320       293
37.340       347
37.360       360
37.380       367
37.400       350
37.420       493
37.440       620
37.460       716
37.480       840
37.500      1050
37.520      1176
37.540      1259
37.560      1216
37.580      1116
37.600       916
37.620       840
37.640       753
37.660       580
37.680       516
37.700       466
37.720       343
37.740       350
37.760       283
37.780       267
37.800       253
37.820       197
37.840       147
37.860       180
37.880       203
37.900       160
37.920       173
37.940       117
37.960       167
37.980       143
38.000       123
38.020        97
38.040       130
38.060       133
38.080        93
38.100       120
38.120       110
38.140        93
38.160        80
38.180        47
38.200        80
38.220        50
38.240        80
38.260        80
38.280        63
38.300        70
38.320        63
38.340        67
38.360        73
38.380        67
38.400        43
38.420        73
38.440        47
38.460        93
38.480        70
38.500        77
38.520        53
38.540        80
38.560        50
38.580        60
38.600        47
38.620        67
38.640        47
38.660        30
38.680        43
38.700        87
38.720        83
38.740        57
38.760        53
38.780        57
38.800        47
38.820        40
38.840        47
38.860        47
38.880        47
38.900        43
38.920        60
38.940        70
38.960        67
38.980        67
39.000        70
39.020        83
39.040        57
39.060        67
39.080        47
39.100        50
39.120        43
39.140        43
39.160        60
39.180        50
39.200        63
39.220        60
39.240        33
39.260        33
39.280        33
39.300        53
39.320        30
39.340        47
39.360        40
39.380        33
39.400        43
39.420        33
39.440        43
39.460        60
39.480        57
39.500        47
39.520        47
39.540        33
39.560        30
39.580        43
39.600        37
39.620        30
39.640        50
39.660        43
39.680        37
39.700        33
39.720        63
39.740        57
39.760        27
39.780        33
39.800        33
39.820        40
39.840        27
39.860        20
39.880        27
39.900        53
39.920        33
39.940        53
39.960        53
39.980        30
40.000        50
40.020        43
40.040        50
40.060        47
40.080        57
40.100        43
40.120        27
40.140        40
40.160        37
40.180        37
40.200        27
40.220        30
40.240        33
40.260        40
40.280        43
40.300        33
40.320        47
40.340        33
40.360        23
40.380        40
40.400        53
40.420        30
40.440        37
40.460        43
40.480        30
40.500        60
40.520        20
40.540        20
40.560        30
40.580        30
40.600        40
40.620        50
40.640        47
40.660        37
40.680        33
40.700        30
40.720        23
40.740        33
40.760        17
40.780        27
40.800        30
40.820        27
40.840        33
40.860        20
40.880        23
40.900        43
40.920        27
40.940        37
40.960        37
40.980        53
41.000        30
41.020        43
41.040        30
41.060        47
41.080        43
41.100        47
41.120        63
41.140        30
41.160        33
41.180        23
41.200        27
41.220        37
41.240        33
41.260        40
41.280         7
41.300        43
41.320        50
41.340        40
41.360        23
41.380        17
41.400        27
41.420        27
41.440        33
41.460        33
41.480        50
41.500        30
41.520        27
41.540        63
41.560        30
41.580        43
41.600        50
41.620        40
41.640        50
41.660        63
41.680        57
41.700        80
41.720        67
41.740        73
41.760        70
41.780        27
41.800        70
41.820        57
41.840        73
41.860        53
41.880        47
41.900        37
41.920        27
41.940        27
41.960        47
41.980        47
42.000        37
42.020        27
42.040        47
42.060        53
42.080        50
42.100        43
42.120        77
42.140        43
42.160        57
42.180        67
42.200        43
42.220        60
42.240        50
42.260        40
42.280        57
42.300        77
42.320        53
42.340        43
42.360        43
42.380        67
42.400        43
42.420        50
42.440        53
42.460        60
42.480        80
42.500        67
42.520        53
42.540        67
42.560        67
42.580        60
42.600        83
42.620        70
42.640        60
42.660        93
42.680        90
42.700        80
42.720       107
42.740        83
42.760        97
42.780       173
42.800        93
42.820       120
42.840       127
42.860       193
42.880       130
42.900       163
42.920       140
42.940       257
42.960       240
42.980       253
43.000       327
43.020       367
43.040       407
43.060       390
43.080       453
43.100       470
43.120       576
43.140       610
43.160       710
43.180       736
43.200       776
43.220       736
43.240       953
43.260       923
43.280       953
43.300      1043
43.320      1056
43.340      1086
43.360      1050
43.380      1183
43.400      1070
43.420       986
43.440      1143
43.460       953
43.480       930
43.500       840
43.520       706
43.540       680
43.560       560
43.580       426
43.600       476
43.620       377
43.640       410
43.660       320
43.680       280
43.700       187
43.720       190
43.740       177
43.760       180
43.780       123
43.800       120
43.820       143
43.840       140
43.860       130
43.880       140
43.900       100
43.920        80
43.940        97
43.960        97
43.980        80
44.000       117
44.020        87
44.040        77
44.060        93
44.080        63
44.100        67
44.120        77
44.140        77
44.160        60
44.180        67
44.200        73
44.220        80
44.240        70
44.260        73
44.280        90
44.300        80
44.320        63
44.340        57
44.360        73
44.380        63
44.400        63
44.420        67
44.440        40
44.460        40
44.480        77
44.500        57
44.520        63
44.540        47
44.560        63
44.580        80
44.600        77
44.620        83
44.640        80
44.660        57
44.680        53
44.700        53
44.720        40
44.740        77
44.760        63
44.780        70
44.800        57
44.820        63
44.840        70
44.860        30
44.880        77
44.900        73
44.920        60
44.940        60
44.960        67
44.980        37
45.000        50
45.020        47
45.040        33
45.060        43
45.080        53
45.100        33
45.120        47
45.140        33
45.160        30
45.180        57
45.200        40
45.220        47
45.240        57
45.260        33
45.280        60
45.300        40
45.320        37
45.340        57
45.360        53
45.380        40
45.400        50
45.420        33
45.440        67
45.460        53
45.480        53
45.500        30
45.520        40
45.540        57
45.560        13
45.580        60
45.600        47
45.620        30
45.640        30
45.660        43
45.680        33
45.700        33
45.720        30
45.740        50
45.760        40
45.780        47
45.800        27
45.820        30
45.840        57
45.860        50
45.880        27
45.900        40
45.920        50
45.940        27
45.960        17
45.980        33
46.000        63
46.020        30
46.040        30
46.060        67
46.080        37
46.100        40
46.120        20
46.140        20
46.160        43
46.180        27
46.200        27
46.220        40
46.240        27
46.260        23
46.280        47
46.300        37
46.320        20
46.340        57
46.360        37
46.380        30
46.400        53
46.420        50
46.440        37
46.460        53
46.480        47
46.500        27
46.520        47
46.540        33
46.560        23
46.580        47
46.600        40
46.620        33
46.640        43
46.660        20
46.680        40
46.700        27
46.720        40
46.740        17
46.760        23
46.780        30
46.800        40
46.820        27
46.840        20
46.860        30
46.880        37
46.900        30
46.920        30
46.940        37
46.960        20
46.980        23
47.000        27
47.020        33
47.040        37
47.060        17
47.080        43
47.100        27
47.120        43
47.140        33
47.160        40
47.180        33
47.200        10
47.220        27
47.240        23
47.260        33
47.280        33
47.300        37
47.320        33
47.340        33
47.360        27
47.380        40
47.400        23
47.420        23
47.440        40
47.460        30
47.480        27
47.500        10
47.520        47
47.540        37
47.560        20
47.580         3
47.600        20
47.620        30
47.640        33
47.660        20
47.680        20
47.700        17
47.720        23
47.740        17
47.760        27
47.780        33
47.800        37
47.820        47
47.840        33
47.860        23
47.880        30
47.900        33
47.920        20
47.940        40
47.960        23
47.980        33
48.000        30
48.020        23
48.040        37
48.060        47
48.080        17
48.100        33
48.120        27
48.140        17
48.160        33
48.180        23
48.200        33
48.220        37
48.240        17
48.260        33
48.280        30
48.300        27
48.320        27
48.340        30
48.360        13
48.380        13
48.400        37
48.420         7
48.440        27
48.460        17
48.480        30
48.500        33
48.520        20
48.540         7
48.560        30
48.580        40
48.600        43
48.620        23
48.640        13
48.660        13
48.680        50
48.700        13
48.720        27
48.740        20
48.760        23
48.780        17
48.800        20
48.820        17
48.840        20
48.860        13
48.880        23
48.900        27
48.920        37
48.940        20
48.960        13
48.980        30
49.000        20
49.020        27
49.040        27
49.060        10
49.080        27
49.100        13
49.120        17
49.140        33
49.160        27
49.180        47
49.200        17
49.220        13
49.240        13
49.260        27
49.280        23
49.300        20
49.320        10
49.340        47
49.360        33
49.380        27
49.400        33
49.420        10
49.440        10
49.460        27
49.480        27
49.500        17
49.520        30
49.540        30
49.560         3
49.580        13
49.600         7
49.620        27
49.640        20
49.660        13
49.680        13
49.700        23
49.720         7
49.740        37
49.760        20
49.780        20
49.800        20
49.820         7
49.840        20
49.860        27
49.880        23
49.900        30
49.920        17
49.940        23
49.960        13
49.980        27
50.000        17
50.020        17
50.040        23
50.060        20
50.080        17
50.100        33
50.120        13
50.140        10
50.160        27
50.180         7
50.200        20
50.220        27
50.240        27
50.260        27
50.280        30
50.300        33
50.320        13
50.340        30
50.360        13
50.380        27
50.400        17
50.420        27
50.440        13
50.460        17
50.480        23
50.500        23
50.520        10
50.540        13
50.560        30
50.580        33
50.600        23
50.620        10
50.640        17
50.660        33
50.680        13
50.700        13
50.720        30
50.740        23
50.760        27
50.780        20
50.800        17
50.820        23
50.840        10
50.860        13
50.880        10
50.900        27
50.920         7
50.940        23
50.960        23
50.980        17
51.000        23
51.020        17
51.040        33
51.060        30
51.080        23
51.100        10
51.120        20
51.140        13
51.160        30
51.180        23
51.200        20
51.220        10
51.240        13
51.260        23
51.280        23
51.300        20
51.320        23
51.340        20
51.360        30
51.380        13
51.400        17
51.420        20
51.440        13
51.460        37
51.480        20
51.500        20
51.520        20
51.540         7
51.560        23
51.580        33
51.600        30
51.620        20
51.640        13
51.660        27
51.680        27
51.700        10
51.720        33
51.740        27
51.760        20
51.780        13
51.800        20
51.820        20
51.840        17
51.860        13
51.880        20
51.900        23
51.920        20
51.940        13
51.960        20
51.980        17
52.000        17
52.020        27
52.040        27
52.060        13
52.080        23
52.100        23
52.120        10
52.140        20
52.160        23
52.180        23
52.200        27
52.220        30
52.240        20
52.260        20
52.280        10
52.300        10
52.320        10
52.340        33
52.360        10
52.380         7
52.400        10
52.420        23
52.440        30
52.460        23
52.480        27
52.500        43
52.520        33
52.540        40
52.560        43
52.580        43
52.600        43
52.620        60
52.640        43
52.660        37
52.680        20
52.700        23
52.720        10
52.740        60
52.760        23
52.780        33
52.800        20
52.820        10
52.840        20
52.860        43
52.880        30
52.900        10
52.920        33
52.940        13
52.960        20
52.980        20
53.000        27
53.020        27
53.040        20
53.060        20
53.080        37
53.100        27
53.120        27
53.140        33
53.160        17
53.180        23
53.200        17
53.220         7
53.240        23
53.260        13
53.280        10
53.300        17
53.320        27
53.340        33
53.360        37
53.380        27
53.400        10
53.420        23
53.440        13
53.460        23
53.480        33
53.500        37
53.520        27
53.540        10
53.560        33
53.580        40
53.600        43
53.620        43
53.640        37
53.660        27
53.680        37
53.700        63
53.720        43
53.740        47
53.760        40
53.780        17
53.800        57
53.820        43
53.840        77
53.860        63
53.880        40
53.900        43
53.920        43
53.940        53
53.960       113
53.980        73
54.000        77
54.020        73
54.040        50
54.060        70
54.080        50
54.100        80
54.120        57
54.140        43
54.160        63
54.180        80
54.200        50
54.220        60
54.240        53
54.260        40
54.280        37
54.300        47
54.320        30
54.340        57
54.360        43
54.380        53
54.400        47
54.420        43
54.440        40
54.460        30
54.480        27
54.500        23
54.520        37
54.540        23
54.560        27
54.580        30
54.600        23
54.620        37
54.640        37
54.660        17
54.680        20
54.700        17
54.720        23
54.740        30
54.760        20
54.780        23
54.800        30
54.820        43
54.840        27
54.860        23
54.880        33
54.900        27
54.920        37
54.940        17
54.960        23
54.980        20
55.000        20
55.020        27
55.040        30
55.060        23
55.080        13
55.100        47
55.120         7
55.140        27
55.160        13
55.180        20
55.200        13
55.220        30
55.240        23
55.260        13
55.280        37
55.300        20
55.320        10
55.340        13
55.360        17
55.380        10
55.400        27
55.420        10
55.440        43
55.460        17
55.480        20
55.500        20
55.520        30
55.540        17
55.560        17
55.580        33
55.600        17
55.620        10
55.640        17
55.660        17
55.680        17
55.700        13
55.720        17
55.740        20
55.760        17
55.780        23
55.800        17
55.820        10
55.840        10
55.860        17
55.880         7
55.900        23
55.920        17
55.940        23
55.960        20
55.980        17
56.000        30
56.020        10
56.040         7
56.060         7
56.080        17
56.100        20
56.120        30
56.140        17
56.160        23
56.180        17
56.200        13
56.220        17
56.240         7
56.260        13
56.280        20
56.300        10
56.320        17
56.340        30
56.360        13
56.380         3
56.400        30
56.420         7
56.440         7
56.460        27
56.480        10
56.500        20
56.520        27
56.540         7
56.560        20
56.580        13
56.600        20
56.620        30
56.640        13
56.660        23
56.680        17
56.700        17
56.720        10
56.740        20
56.760        20
56.780        23
56.800        17
56.820        33
56.840        20
56.860        10
56.880        37
56.900        13
56.920        33
56.940        17
56.960        23
56.980        10
57.000        20
57.020        13
57.040        13
57.060        40
57.080        13
57.100        17
57.120        13
57.140        17
57.160        30
57.180        13
57.200        20
57.220        17
57.240        17
57.260        20
57.280        23
57.300        13
57.320        17
57.340        30
57.360        17
57.380        37
57.400        33
57.420        53
57.440        73
57.460        57
57.480        63
57.500        97
57.520       130
57.540       170
57.560       110
57.580        93
57.600        83
57.620        60
57.640        87
57.660        57
57.680       110
57.700        87
57.720        60
57.740        23
57.760        20
57.780        17
57.800         7
57.820        30
57.840        10
57.860        13
57.880        23
57.900        27
57.920        13
57.940        13
57.960        17
57.980        27
58.000         3
58.020         7
58.040        10
58.060        13
58.080        10
58.100         0
58.120        17
58.140        20
58.160         7
58.180        10
58.200        23
58.220        30
58.240        17
58.260        20
58.280        20
58.300        13
58.320        27
58.340        20
58.360        23
58.380         3
58.400        20
58.420        17
58.440        20
58.460        17
58.480        23
58.500        13
58.520         3
58.540        20
58.560         0
58.580        13
58.600        17
58.620        13
58.640        13
58.660        23
58.680        10
58.700        10
58.720        17
58.740        47
58.760        20
58.780        10
58.800        13
58.820         0
58.840        10
58.860        23
58.880        10
58.900        17
58.920        23
58.940        13
58.960        23
58.980        13
59.000         7
59.020         7
59.040        17
59.060        20
59.080        17
59.100         3
59.120         3
59.140        10
59.160        23
59.180        20
59.200         3
59.220        10
59.240        17
59.260        27
59.280        13
59.300        10
59.320        10
59.340        10
59.360         7
59.380        20
59.400         3
59.420         7
59.440        20
59.460         7
59.480         3
59.500        20
59.520         7
59.540        13
59.560        23
59.580        17
59.600        23
59.620         7
59.640        30
59.660        13
59.680        20
59.700        17
59.720         7
59.740         7
59.760        30
59.780        17
59.800         7
59.820        13
59.840        10
59.860        10
59.880        20
59.900        10
59.920         7
59.940        23
59.960         7
59.980        10
60.000        10
