20.000        40
20.020        47
20.040        77
20.060        47
20.080        47
20.100        67
20.120        67
20.140        60
20.160        77
20.180        50
20.200        53
20.220        70
20.240        60
20.260        40
20.280        60
20.300        37
20.320        57
20.340        40
20.360        47
20.380        73
20.400        47
20.420        47
20.440        40
20.460        37
20.480        50
20.500        43
20.520        40
20.540        43
20.560        37
20.580        50
20.600        43
20.620        57
20.640        40
20.660        20
20.680        53
20.700        47
20.720        73
20.740        37
20.760        47
20.780        53
20.800        70
20.820        57
20.840        37
20.860        43
20.880        30
20.900        73
20.920        53
20.940        63
20.960        50
20.980        60
21.000        67
21.020        37
21.040        53
21.060        40
21.080        53
21.100        40
21.120        57
21.140        60
21.160        73
21.180        43
21.200        50
21.220        73
21.240        33
21.260        43
21.280        60
21.300        57
21.320        30
21.340        53
21.360        50
21.380        47
21.400        37
21.420        43
21.440        63
21.460        50
21.480        53
21.500        47
21.520        43
21.540        67
21.560        60
21.580        43
21.600        60
21.620        50
21.640        23
21.660        70
21.680        47
21.700        67
21.720        87
21.740        87
21.760        57
21.780        83
21.800       107
21.820        53
21.840        53
21.860        73
21.880        70
21.900        70
21.920        33
21.940        33
21.960        47
21.980        53
22.000        47
22.020        50
22.040        40
22.060        37
22.080        47
22.100        63
22.120        43
22.140        30
22.160        63
22.180        67
22.200        47
22.220        57
22.240        50
22.260        40
22.280        33
22.300        70
22.320        57
22.340        57
22.360        53
22.380        43
22.400        53
22.420        53
22.440        17
22.460        57
22.480        60
22.500        40
22.520        57
22.540        40
22.560        40
22.580        33
22.600        27
22.620        33
22.640        20
22.660        47
22.680        57
22.700        57
22.720        37
22.740        33
22.760        47
22.780        30
22.800        43
22.820        50
22.840        40
22.860        27
22.880        27
22.900        30
22.920        33
22.940        27
22.960        40
22.980        53
23.000        37
23.020        33
23.040        27
23.060        37
23.080        37
23.100        37
23.120        50
23.140        37
23.160        67
23.180        40
23.200        33
23.220        37
23.240        40
23.260        40
23.280        43
23.300        23
23.320        50
23.340        33
23.360        27
23.380        43
23.400        60
23.420        50
23.440        57
23.460        50
23.480        67
23.500        23
23.520        37
23.540        30
23.560        43
23.580        37
23.600        30
23.620        20
23.640        47
23.660        43
23.680        37
23.700        43
23.720        17
23.740        50
23.760        10
23.780        63
23.800        60
23.820        33
23.840        20
23.860        30
23.880        27
23.900        27
23.920        30
23.940        37
23.960        50
23.980        53
24.000        33
24.020        40
24.040        37
24.060        47
24.080        70
24.100        47
24.120        37
24.140        40
24.160        23
24.180        50
24.200        53
24.220        37
24.240        37
24.260        20
24.280        40
24.300        23
24.320        37
24.340        53
24.360        17
24.380        37
24.400        30
24.420        33
24.440        37
24.460        33
24.480        30
24.500        40
24.520        43
24.540        43
24.560        53
24.580        60
24.600        57
24.620        40
24.640        17
24.660        37
24.680        43
24.700        27
24.720        50
24.740        40
24.760        27
24.780        37
24.800        37
24.820        47
24.840        33
24.860        33
24.880        40
24.900        17
24.920        17
24.940        37
24.960        47
24.980        40
25.000        37
25.020        47
25.040        33
25.060        37
25.080        40
25.100        37
25.120        40
25.140        20
25.160        43
25.180        40
25.200        53
25.220        23
25.240        47
25.260        37
25.280        33
25.300        37
25.320        63
25.340        27
25.360        30
25.380        37
25.400        27
25.420        20
25.440        30
25.460        23
25.480        40
25.500        20
25.520        13
25.540        50
25.560        40
25.580        23
25.600        43
25.620        47
25.640        50
25.660        27
25.680        37
25.700        20
25.720        27
25.740        50
25.760        40
25.780        37
25.800        40
25.820        43
25.840        47
25.860        43
25.880        20
25.900        50
25.920        37
25.940        37
25.960        43
25.980        23
26.000        40
26.020        30
26.040        30
26.060        27
26.080        47
26.100        57
26.120        27
26.140        27
26.160        40
26.180        27
26.200        23
26.220        40
26.240        23
26.260        37
26.280        27
26.300        40
26.320        47
26.340        53
26.360        13
26.380        40
26.400        50
26.420        40
26.440        20
26.460        33
26.480        40
26.500        47
26.520        47
26.540        13
26.560        27
26.580        30
26.600        43
26.620        50
26.640        30
26.660        23
26.680        40
26.700        27
26.720        47
26.740        33
26.760        30
26.780        17
26.800        23
26.820        30
26.840        33
26.860        50
26.880        27
26.900        43
26.920        30
26.940        57
26.960        37
26.980        30
27.000        37
27.020        30
27.040        30
27.060        30
27.080        53
27.100        47
27.120        37
27.140        33
27.160        20
27.180        27
27.200        43
27.220        47
27.240        27
27.260        27
27.280        27
27.300        40
27.320        23
27.340        40
27.360        37
27.380        30
27.400        43
27.420        53
27.440        53
27.460        13
27.480        33
27.500        37
27.520        30
27.540        30
27.560        43
27.580        30
27.600        43
27.620        37
27.640        53
27.660        33
27.680        30
27.700        30
27.720        37
27.740        43
27.760        63
27.780        53
27.800        57
27.820        43
27.840       117
27.860        87
27.880       100
27.900        83
27.920        90
27.940       107
27.960        80
27.980       107
28.000        50
28.020        57
28.040        43
28.060        63
28.080        53
28.100        20
28.120        37
28.140        60
28.160        47
28.180        40
28.200        27
28.220        47
28.240        43
28.260        47
28.280        30
28.300        37
28.320        47
28.340        47
28.360        47
28.380        53
28.400        33
28.420        40
28.440        40
28.460        30
28.480        30
28.500        23
28.520        30
28.540        37
28.560        43
28.580        37
28.600        33
28.620        27
28.640        40
28.660        37
28.680        40
28.700        50
28.720        47
28.740        30
28.760        33
28.780        40
28.800        27
28.820        37
28.840        33
28.860        70
28.880        33
28.900        47
28.920        43
28.940        30
28.960        23
28.980        47
29.000        23
29.020        33
29.040        27
29.060        40
29.080        43
29.100        40
29.120        20
29.140        40
29.160        53
29.180        47
29.200        37
29.220        40
29.240        33
29.260        53
29.280        57
29.300        40
29.320        60
29.340        43
29.360        20
29.380        47
29.400        63
29.420        40
29.440        37
29.460        43
29.480        53
29.500        20
29.520        57
29.540        60
29.560        13
29.580        23
29.600        23
29.620        43
29.640        47
29.660        27
29.680        37
29.700        50
29.720        30
29.740        43
29.760        33
29.780        67
29.800        57
29.820        43
29.840        37
29.860        53
29.880        33
29.900        77
29.920        43
29.940        47
29.960        70
29.980       103
30.000        67
30.020        70
30.040        83
30.060        53
30.080        80
30.100        80
30.120        63
30.140        43
30.160        57
30.180        77
30.200        73
30.220        83
30.240        47
30.260       100
30.280        70
30.300        77
30.320        77
30.340        73
30.360        93
30.380        63
30.400        87
30.420       100
30.440       107
30.460        83
30.480       120
30.500       117
30.520        83
30.540        93
30.560       147
30.580       110
30.600       130
30.620       137
30.640       203
30.660       200
30.680       353
30.700       367
30.720       390
30.740       570
30.760       690
30.780       903
30.800      1030
30.820      1356
30.840      1769
30.860      2299
30.880      2872
30.900      3945
30.920      5138
30.940      6881
30.960      8843
30.980      9593
31.000      9793
31.020      8470
31.040      7214
31.060      5684
31.080      4661
31.100      3415
31.120      2139
31.140      1256
31.160       686
31.180       430
31.200       347
31.220       303
31.240       243
31.260       163
31.280       150
31.300       160
31.320       163
31.340        97
31.360       120
31.380        80
31.400       117
31.420        83
31.440        97
31.460       117
31.480        83
31.500       100
31.520       113
31.540        90
31.560       113
31.580        93
31.600        83
31.620        80
31.640        57
31.660        93
31.680        90
31.700        67
31.720        93
31.740        93
31.760        57
31.780        80
31.800        63
31.820        60
31.840        73
31.860        50
31.880        83
31.900        63
31.920        77
31.940        70
31.960        70
31.980        50
32.000        83
32.020        60
32.040        87
32.060        60
32.080        57
32.100        80
32.120        93
32.140        57
32.160        57
32.180        60
32.200        83
32.220        60
32.240        43
32.260        73
32.280        33
32.300        63
32.320        60
32.340        67
32.360        70
32.380        60
32.400        37
32.420        57
32.440        53
32.460        50
32.480        70
32.500        60
32.520        63
32.540        50
32.560        50
32.580        40
32.600        40
32.620        63
32.640        60
32.660        60
32.680        93
32.700        83
32.720        57
32.740        53
32.760        27
32.780        40
32.800        70
32.820        53
32.840        40
32.860        67
32.880        60
32.900        63
32.920        63
32.940        67
32.960        60
32.980        47
33.000        40
33.020        43
33.040        40
33.060        60
33.080        43
33.100        30
33.120        43
33.140        33
33.160        40
33.180        53
33.200        27
33.220        73
33.240        37
33.260        33
33.280        37
33.300        37
33.320        47
33.340        67
33.360        40
33.380        40
33.400        47
33.420        20
33.440        27
33.460        60
33.480        67
33.500        60
33.520        40
33.540        43
33.560        47
33.580        43
33.600        57
33.620        53
33.640        63
33.660        37
33.680        40
33.700        60
33.720        50
33.740        43
33.760        43
33.780        53
33.800        43
33.820        73
33.840        40
33.860        43
33.880        53
33.900        43
33.920        27
33.940        53
33.960        33
33.980        53
34.000        40
34.020        33
34.040        57
34.060        43
34.080        47
34.100        37
34.120        63
34.140        50
34.160        40
34.180        37
34.200        37
34.220        40
34.240        33
34.260        30
34.280        50
34.300        37
34.320        30
34.340        37
34.360        33
34.380        40
34.400        47
34.420        50
34.440        47
34.460        30
34.480        40
34.500        23
34.520        17
34.540        43
34.560        43
34.580        37
34.600        33
34.620        67
34.640        37
34.660        57
34.680        40
34.700        43
34.720        20
34.740        57
34.760        33
34.780        43
34.800        33
34.820        23
34.840        30
34.860        63
34.880        50
34.900        27
34.920        47
34.940        20
34.960        30
34.980        30
35.000        63
35.020        57
35.040        27
35.060        33
35.080        33
35.100        60
35.120        57
35.140       110
35.160        60
35.180        70
35.200       103
35.220        77
35.240        47
35.260        43
35.280        97
35.300        47
35.320        30
35.340        50
35.360        30
35.380        43
35.400        47
35.420        40
35.440        40
35.460        30
35.480        30
35.500        47
35.520        20
35.540        30
35.560        33
35.580        33
35.600        43
35.620        17
35.640         3
35.660        37
35.680        27
35.700        27
35.720        30
35.740        67
35.760        40
35.780        60
35.800        13
35.820        60
35.840        40
35.860        23
35.880        27
35.900        37
35.920        33
35.940        33
35.960        50
35.980        27
36.000        37
36.020        23
36.040        27
36.060        47
36.080        20
36.100        17
36.120        27
36.140        37
36.160        27
36.180        33
36.200        33
36.220        30
36.240        37
36.260        23
36.280        23
36.300        40
36.320        30
36.340        43
36.360        50
36.380        53
36.400        27
36.420        37
36.440        27
36.460        10
36.480        33
36.500        47
36.520        33
36.540        40
36.560        37
36.580        17
36.600        33
36.620        37
36.640        43
36.660        30
36.680        43
36.700        40
36.720        27
36.740        50
36.760        40
36.780        50
36.800        27
36.820        20
36.840        40
36.860        43
36.880        20
36.900        43
36.920        53
36.940        33
36.960        23
36.980        27
37.000        27
37.020        30
37.040        30
37.060        50
37.080        17
37.100        23
37.120        40
37.140        37
37.160        40
37.180        23
37.200        23
37.220        33
37.240        27
37.260        33
37.280        40
37.300        43
37.320        27
37.340        30
37.360        30
37.380        33
37.400        33
37.420        40
37.440        30
37.460        23
37.480        23
37.500        37
37.520        27
37.540        37
37.560        23
37.580        33
37.600        30
37.620        33
37.640        33
37.660        33
37.680        23
37.700        40
37.720        17
37.740        43
37.760        40
37.780        40
37.800        23
37.820        30
37.840        30
37.860        27
37.880        27
37.900        43
37.920        10
37.940        30
37.960        27
37.980        30
38.000        20
38.020        23
38.040        27
38.060        17
38.080        17
38.100        47
38.120        33
38.140        43
38.160        60
38.180        47
38.200        33
38.220        30
38.240        23
38.260        33
38.280        37
38.300        27
38.320        40
38.340        40
38.360        37
38.380        37
38.400        27
38.420        37
38.440        30
38.460        30
38.480        20
38.500        13
38.520        50
38.540        13
38.560        43
38.580        33
38.600        20
38.620        10
38.640        37
38.660        37
38.680        10
38.700        20
38.720        33
38.740        17
38.760        23
38.780        37
38.800        30
38.820        23
38.840        33
38.860        23
38.880        37
38.900        40
38.920        33
38.940        27
38.960        20
38.980        30
39.000        30
39.020        27
39.040        10
39.060        13
39.080        33
39.100        30
39.120        23
39.140        40
39.160        27
39.180        40
39.200        33
39.220        30
39.240        20
39.260        27
39.280        27
39.300        33
39.320        20
39.340        13
39.360        23
39.380        23
39.400        20
39.420        33
39.440        13
39.460        20
39.480        10
39.500        20
39.520        30
39.540        13
39.560        37
39.580        23
39.600        27
39.620        30
39.640        20
39.660        23
39.680        17
39.700        37
39.720        13
39.740        13
39.760        17
39.780        27
39.800        20
39.820        23
39.840        43
39.860        37
39.880        27
39.900        13
39.920        20
39.940        17
39.960        27
39.980        10
40.000        17
40.020        20
40.040        33
40.060        10
40.080        23
40.100        20
40.120        13
40.140        23
40.160        10
40.180        37
40.200        40
40.220         7
40.240        17
40.260        13
40.280        17
40.300         7
40.320        13
40.340        10
40.360        23
40.380        23
40.400        20
40.420        20
40.440        23
40.460         7
40.480        27
40.500        23
40.520        23
40.540        30
40.560        20
40.580        13
40.600        37
40.620        17
40.640        23
40.660        57
40.680        33
40.700        23
40.720        10
40.740        20
40.760        27
40.780        27
40.800        13
40.820        43
40.840        20
40.860        23
40.880        30
40.900        13
40.920        17
40.940        20
40.960        23
40.980        10
41.000        17
41.020        13
41.040        33
41.060        33
41.080        17
41.100        17
41.120        10
41.140        27
41.160        17
41.180         7
41.200        20
41.220        17
41.240         7
41.260        20
41.280        20
41.300        17
41.320        30
41.340        13
41.360        17
41.380        10
41.400        27
41.420        23
41.440        17
41.460        13
41.480        20
41.500        17
41.520        37
41.540        20
41.560        40
41.580        17
41.600        23
41.620        33
41.640        23
41.660        53
41.680        37
41.700        37
41.720        33
41.740        43
41.760        40
41.780        10
41.800        27
41.820        37
41.840        23
41.860        33
41.880        17
41.900        23
41.920        20
41.940        20
41.960        10
41.980        33
42.000        13
42.020        10
42.040        20
42.060        27
42.080        13
42.100        23
42.120        23
42.140        23
42.160        30
42.180        20
42.200        37
42.220        33
42.240         3
42.260        23
42.280        13
42.300        17
42.320        20
42.340        23
42.360         7
42.380        20
42.400        30
42.420        17
42.440        23
42.460        30
42.480        10
42.500        20
42.520        23
42.540        20
42.560        13
42.580        10
42.600        27
42.620        20
42.640        10
42.660        43
42.680         7
42.700        20
42.720        17
42.740        20
42.760        30
42.780        23
42.800        23
42.820        27
42.840        37
42.860        20
42.880         7
42.900        37
42.920        23
42.940        13
42.960         7
42.980        33
43.000        30
43.020        10
43.040        17
43.060        17
43.080        30
43.100        33
43.120        20
43.140         7
43.160         7
43.180        20
43.200        20
43.220        23
43.240        20
43.260        30
43.280        17
43.300        33
43.320        27
43.340        40
43.360        40
43.380        63
43.400        50
43.420        17
43.440        27
43.460        27
43.480        40
43.500        40
43.520        40
43.540        30
43.560        30
43.580        27
43.600        37
43.620        13
43.640        23
43.660        10
43.680        33
43.700        33
43.720        23
43.740         7
43.760        13
43.780        17
43.800        17
43.820        13
43.840        23
43.860        23
43.880        23
43.900        20
43.920        17
43.940        20
43.960        17
43.980        27
44.000        20
44.020        40
44.040        43
44.060        20
44.080        37
44.100        27
44.120        30
44.140        47
44.160        30
44.180        23
44.200        53
44.220        43
44.240        40
44.260        63
44.280        57
44.300        67
44.320       107
44.340       103
44.360       143
44.380       140
44.400       177
44.420       193
44.440       163
44.460       203
44.480       123
44.500       193
44.520       163
44.540       123
44.560       100
44.580       107
44.600        67
44.620        73
44.640        67
44.660        60
44.680        27
44.700        43
44.720        57
44.740        27
44.760        40
44.780        13
44.800        27
44.820        13
44.840        33
44.860        13
44.880        27
44.900        17
44.920        27
44.940        23
44.960         3
44.980        23
45.000        27
45.020         3
45.040        27
45.060        20
45.080        10
45.100        17
45.120        30
45.140        20
45.160         7
45.180        33
45.200        10
45.220        13
45.240        17
45.260        23
45.280        20
45.300        23
45.320        20
45.340        20
45.360        23
45.380         7
45.400        20
45.420        17
45.440        23
45.460        13
45.480        13
45.500        20
45.520        27
45.540        17
45.560        23
45.580         7
45.600        23
45.620        27
45.640        13
45.660        20
45.680         0
45.700        13
45.720        23
45.740        13
45.760         3
45.780        23
45.800        23
45.820        27
45.840        23
45.860        10
45.880        23
45.900        43
45.920        17
45.940        13
45.960        13
45.980        20
46.000        13
46.020        13
46.040        13
46.060        30
46.080        13
46.100        20
46.120        20
46.140        23
46.160        23
46.180        13
46.200        13
46.220        27
46.240        10
46.260        10
46.280        20
46.300        10
46.320        23
46.340        23
46.360         7
46.380        20
46.400        17
46.420        10
46.440        13
46.460        13
46.480        27
46.500        27
46.520        20
46.540         7
46.560        13
46.580        10
46.600        10
46.620        13
46.640        13
46.660        10
46.680        23
46.700        20
46.720        20
46.740         7
46.760        23
46.780        13
46.800        30
46.820        27
46.840        17
46.860        27
46.880        27
46.900         7
46.920        13
46.940        17
46.960         7
46.980        27
47.000        33
47.020        13
47.040        10
47.060        17
47.080        23
47.100        20
47.120         3
47.140        30
47.160         7
47.180        23
47.200        20
47.220        37
47.240        37
47.260        13
47.280        17
47.300        10
47.320        37
47.340        20
47.360        17
47.380        23
47.400         7
47.420        13
47.440        10
47.460        17
47.480        13
47.500        30
47.520        20
47.540        17
47.560        13
47.580        23
47.600        27
47.620        13
47.640        20
47.660        23
47.680        13
47.700        23
47.720        17
47.740        13
47.760        13
47.780        13
47.800        10
47.820        13
47.840        13
47.860         7
47.880        17
47.900        20
47.920         7
47.940         7
47.960        13
47.980        17
48.000        23
48.020        13
48.040        17
48.060        17
48.080        13
48.100        17
48.120        17
48.140        27
48.160        23
48.180        13
48.200         7
48.220        13
48.240         7
48.260        17
48.280        20
48.300        10
48.320        23
48.340        10
48.360         7
48.380        23
48.400         7
48.420        27
48.440        13
48.460        20
48.480        13
48.500        17
48.520        13
48.540        43
48.560        13
48.580        13
48.600        13
48.620         7
48.640         7
48.660        13
48.680        17
48.700         3
48.720        23
48.740        17
48.760         7
48.780        20
48.800        30
48.820        13
48.840         7
48.860        23
48.880        17
48.900        13
48.920        17
48.940        20
48.960        10
48.980        13
49.000        10
49.020        23
49.040        20
49.060        13
49.080         7
49.100        20
49.120        23
49.140        40
49.160         7
49.180        23
49.200        20
49.220        27
49.240        10
49.260        40
49.280        20
49.300        17
49.320         3
49.340        10
49.360        13
49.380        13
49.400        10
49.420        33
49.440        20
49.460         7
49.480        17
49.500        30
49.520        10
49.540        20
49.560        17
49.580        13
49.600        10
49.620        27
49.640        13
49.660        17
49.680        10
49.700        27
49.720         0
49.740        13
49.760        20
49.780        10
49.800        17
49.820        20
49.840        17
49.860        23
49.880        20
49.900        10
49.920        23
49.940         7
49.960         7
49.980        17
50.000        20
50.020        27
50.040        13
50.060        10
50.080        17
50.100        23
50.120        20
50.140        13
50.160        10
50.180         7
50.200        17
50.220        20
50.240        13
50.260        27
50.280        20
50.300        10
50.320        13
50.340         7
50.360        17
50.380        10
50.400        23
50.420        20
50.440        13
50.460        10
50.480        27
50.500        20
50.520        10
50.540        13
50.560         3
50.580        23
50.600        17
50.620         3
50.640        20
50.660        23
50.680        10
50.700        27
50.720        13
50.740        27
50.760        17
50.780        20
50.800        37
50.820        17
50.840         7
50.860         7
50.880        13
50.900         3
50.920        27
50.940        13
50.960        30
50.980        23
51.000        17
51.020        13
51.040         3
51.060        10
51.080        17
51.100         3
51.120        40
51.140        10
51.160        23
51.180        13
51.200        13
51.220        27
51.240        17
51.260         3
51.280         3
51.300        13
51.320        13
51.340        23
51.360        10
51.380        33
51.400        13
51.420        13
51.440        20
51.460        10
51.480         7
51.500        20
51.520        30
51.540        23
51.560        17
51.580        20
51.600        20
51.620        23
51.640         7
51.660         7
51.680        20
51.700         7
51.720        17
51.740        10
51.760        20
51.780        17
51.800        13
51.820        10
51.840        10
51.860        10
51.880        13
51.900        13
51.920        10
51.940        23
51.960        10
51.980        23
52.000        13
52.020        23
52.040         7
52.060        17
52.080         7
52.100        27
52.120        13
52.140        13
52.160        27
52.180         7
52.200        23
52.220        20
52.240        17
52.260        10
52.280        23
52.300         7
52.320        10
52.340        13
52.360        13
52.380        20
52.400        13
52.420        23
52.440        20
52.460        23
52.480        17
52.500        30
52.520         7
52.540        40
52.560        17
52.580        23
52.600        27
52.620        40
52.640        27
52.660        37
52.680        20
52.700        23
52.720        23
52.740        20
52.760        20
52.780        17
52.800        23
52.820        10
52.840        20
52.860        17
52.880        13
52.900        10
52.920         7
52.940        20
52.960        13
52.980        13
53.000        23
53.020        10
53.040        17
53.060        10
53.080        13
53.100        30
53.120        23
53.140        17
53.160         7
53.180        20
53.200         7
53.220        23
53.240        17
53.260         0
53.280        17
53.300        13
53.320        13
53.340        13
53.360        23
53.380        10
53.400        13
53.420        13
53.440        10
53.460        17
53.480        10
53.500        27
53.520        23
53.540        13
53.560        17
53.580        27
53.600        10
53.620        17
53.640        10
53.660        17
53.680        17
53.700        10
53.720        10
53.740        13
53.760         7
53.780        13
53.800        20
53.820        20
53.840         7
53.860        17
53.880        27
53.900        20
53.920        13
53.940        20
53.960        27
53.980        13
54.000        27
54.020        30
54.040         7
54.060        13
54.080        13
54.100        27
54.120        23
54.140        27
54.160        20
54.180        30
54.200        17
54.220        43
54.240        13
54.260        20
54.280        13
54.300        33
54.320        13
54.340        10
54.360         3
54.380        27
54.400        17
54.420        13
54.440        17
54.460        17
54.480        20
54.500        20
54.520        27
54.540        20
54.560        27
54.580        33
54.600        27
54.620        20
54.640        40
54.660        20
54.680        27
54.700        27
54.720        17
54.740        30
54.760        33
54.780        33
54.800        47
54.820        50
54.840        53
54.860        50
54.880        77
54.900        93
54.920        93
54.940       123
54.960       147
54.980       197
55.000       230
55.020       323
55.040       440
55.060       470
55.080       556
55.100       553
55.120       546
55.140       513
55.160       443
55.180       453
55.200       380
55.220       343
55.240       307
55.260       303
55.280       273
55.300       227
55.320       183
55.340       133
55.360        70
55.380        47
55.400        53
55.420        37
55.440        23
55.460        23
55.480        37
55.500        30
55.520        20
55.540        37
55.560        40
55.580        13
55.600        17
55.620        10
55.640        23
55.660        17
55.680        17
55.700        20
55.720        50
55.740        23
55.760        23
55.780        13
55.800        30
55.820        13
55.840        43
55.860        17
55.880        20
55.900         7
55.920        30
55.940        27
55.960        30
55.980        10
56.000        13
56.020        13
56.040        27
56.060        20
56.080        23
56.100        17
56.120        13
56.140        13
56.160        10
56.180        10
56.200        20
56.220        23
56.240        13
56.260         7
56.280        23
56.300         7
56.320        27
56.340        17
56.360        27
56.380        17
56.400        17
56.420         3
56.440        17
56.460        23
56.480        13
56.500        30
56.520        17
56.540        27
56.560        27
56.580        13
56.600        17
56.620        27
56.640        17
56.660        20
56.680        20
56.700        10
56.720        10
56.740        10
56.760        13
56.780        20
56.800        10
56.820        10
56.840        10
56.860        20
56.880         7
56.900        20
56.920         3
56.940        13
56.960        13
56.980        20
57.000         7
57.020        23
57.040         7
57.060        20
57.080         7
57.100        13
57.120        13
57.140        17
57.160        10
57.180        13
57.200        40
57.220        13
57.240        13
57.260        20
57.280        20
57.300        20
57.320        20
57.340        33
57.360        10
57.380        27
57.400        20
57.420        20
57.440        20
57.460        17
57.480        23
57.500        40
57.520        27
57.540        37
57.560        43
57.580        17
57.600        13
57.620        27
57.640        17
57.660        40
57.680        13
57.700        13
57.720        50
57.740        37
57.760        23
57.780        30
57.800        13
57.820        17
57.840        23
57.860         7
57.880        10
57.900        30
57.920        17
57.940        20
57.960        17
57.980        13
58.000        23
58.020        17
58.040        17
58.060        20
58.080        13
58.100        20
58.120         3
58.140        23
58.160        17
58.180        27
58.200        20
58.220         7
58.240         7
58.260        17
58.280        10
58.300        20
58.320        17
58.340        13
58.360        30
58.380        17
58.400        10
58.420        13
58.440        20
58.460        17
58.480         7
58.500         7
58.520         3
58.540        40
58.560        20
58.580        10
58.600        13
58.620         7
58.640        10
58.660        10
58.680        20
58.700        13
58.720        10
58.740        30
58.760        17
58.780        20
58.800        10
58.820         7
58.840        13
58.860        30
58.880        13
58.900        10
58.920         3
58.940        20
58.960        17
58.980        13
59.000         7
59.020        10
59.040        20
59.060        17
59.080        13
59.100         7
59.120        10
59.140         3
59.160        10
59.180         7
59.200        17
59.220         7
59.240        13
59.260        17
59.280        17
59.300        13
59.320        10
59.340        23
59.360        17
59.380        23
59.400        10
59.420        13
59.440        10
59.460        10
59.480        13
59.500         7
59.520        23
59.540        20
59.560        20
59.580         7
59.600        13
59.620         3
59.640        10
59.660        10
59.680         7
59.700        13
59.720        13
59.740        20
59.760        23
59.780        37
59.800        20
59.820         3
59.840        10
59.860        13
59.880        10
59.900        13
59.920         3
59.940         3
59.960        10
59.980        23
60.000        23
