20.000        23
20.020        23
20.040        37
20.060        43
20.080        27
20.100        57
20.120        27
20.140        37
20.160        27
20.180        70
20.200        47
20.220        43
20.240        43
20.260        33
20.280        43
20.300        63
20.320        50
20.340        60
20.360        67
20.380        57
20.400        40
20.420        23
20.440        43
20.460        50
20.480        30
20.500        50
20.520        50
20.540        33
20.560        60
20.580        50
20.600        23
20.620        50
20.640        57
20.660        60
20.680        40
20.700        50
20.720        27
20.740        60
20.760        30
20.780        37
20.800        20
20.820        50
20.840        40
20.860        47
20.880        47
20.900        40
20.920        40
20.940        40
20.960        43
20.980        73
21.000        73
21.020        37
21.040        17
21.060        83
21.080        57
21.100        47
21.120        67
21.140        30
21.160        43
21.180        50
21.200        47
21.220        57
21.240        33
21.260        57
21.280        73
21.300        43
21.320        33
21.340        33
21.360        63
21.380        43
21.400        43
21.420        47
21.440        63
21.460        57
21.480        50
21.500        63
21.520        53
21.540        43
21.560        67
21.580        60
21.600        40
21.620        53
21.640        53
21.660        60
21.680        40
21.700        47
21.720        43
21.740        63
21.760        63
21.780        50
21.800        50
21.820        77
21.840        53
21.860        57
21.880        50
21.900        87
21.920        83
21.940        53
21.960        90
21.980        67
22.000        43
22.020        57
22.040        50
22.060        47
22.080        63
22.100        40
22.120        30
22.140        33
22.160        30
22.180        40
22.200        73
22.220        37
22.240        30
22.260        20
22.280        33
22.300        50
22.320        33
22.340        33
22.360        27
22.380        23
22.400        20
22.420        57
22.440        50
22.460        33
22.480        40
22.500        63
22.520        30
22.540        60
22.560        47
22.580        60
22.600        27
22.620        37
22.640        30
22.660        30
22.680        27
22.700        40
22.720        33
22.740        27
22.760        30
22.780        47
22.800        40
22.820        37
22.840        40
22.860        27
22.880        70
22.900        47
22.920        57
22.940        43
22.960        47
22.980        30
23.000        27
23.020        50
23.040        33
23.060        37
23.080        40
23.100        33
23.120        33
23.140        27
23.160        70
23.180        43
23.200        37
23.220        60
23.240        20
23.260        17
23.280        57
23.300        47
23.320        37
23.340        53
23.360        47
23.380        33
23.400        47
23.420        53
23.440        50
23.460        53
23.480        43
23.500        50
23.520        37
23.540        37
23.560        33
23.580        37
23.600        27
23.620        43
23.640        43
23.660        50
23.680        47
23.700        30
23.720        37
23.740        33
23.760        43
23.780        23
23.800        20
23.820        23
23.840        37
23.860        43
23.880        10
23.900        43
23.920        47
23.940        23
23.960        53
23.980        33
24.000        57
24.020        37
24.040        43
24.060        43
24.080        40
24.100        53
24.120        27
24.140        43
24.160        33
24.180        47
24.200        27
24.220        43
24.240        70
24.260        23
24.280        40
24.300        20
24.320        47
24.340        20
24.360        53
24.380        23
24.400        23
24.420        50
24.440        10
24.460        33
24.480        50
24.500        47
24.520        40
24.540        40
24.560        43
24.580        53
24.600        33
24.620        47
24.640        30
24.660        30
24.680        37
24.700        73
24.720        47
24.740        37
24.760        37
24.780        57
24.800        40
24.820        33
24.840        47
24.860        30
24.880        27
24.900        50
24.920        33
24.940        53
24.960        40
24.980        30
25.000        43
25.020        20
25.040        37
25.060        27
25.080        37
25.100        30
25.120        40
25.140        23
25.160        33
25.180        17
25.200        37
25.220        23
25.240        30
25.260        30
25.280        57
25.300        27
25.320        47
25.340        40
25.360        53
25.380        43
25.400        37
25.420        43
25.440        40
25.460        33
25.480        73
25.500        20
25.520        33
25.540        27
25.560        40
25.580        47
25.600        67
25.620        87
25.640        83
25.660        73
25.680        80
25.700        53
25.720        27
25.740        40
25.760        50
25.780        47
25.800        40
25.820        43
25.840        30
25.860        23
25.880        13
25.900        40
25.920        23
25.940        20
25.960        13
25.980        27
26.000        33
26.020        33
26.040        10
26.060         7
26.080        50
26.100        20
26.120        33
26.140        43
26.160        27
26.180        47
26.200        37
26.220        37
26.240        50
26.260        37
26.280        40
26.300        40
26.320        37
26.340        50
26.360        27
26.380        37
26.400        43
26.420        33
26.440        30
26.460        50
26.480        23
26.500        20
26.520        40
26.540        43
26.560        37
26.580        47
26.600        23
26.620        43
26.640        23
26.660        50
26.680        40
26.700        53
26.720        43
26.740        27
26.760        37
26.780        10
26.800        50
26.820        30
26.840        63
26.860        33
26.880        23
26.900        50
26.920        13
26.940        27
26.960        50
26.980        27
27.000        40
27.020        17
27.040        23
27.060        20
27.080        40
27.100        40
27.120        33
27.140        47
27.160        33
27.180        47
27.200        50
27.220        33
27.240        40
27.260        30
27.280        47
27.300        33
27.320        20
27.340        27
27.360        40
27.380        17
27.400        37
27.420        20
27.440        23
27.460        30
27.480        53
27.500        40
27.520        47
27.540        33
27.560        33
27.580        40
27.600        37
27.620        20
27.640        20
27.660        23
27.680        27
27.700        40
27.720        20
27.740        37
27.760        33
27.780        30
27.800        27
27.820        33
27.840        40
27.860        60
27.880        30
27.900        33
27.920        27
27.940        53
27.960        33
27.980        23
28.000        33
28.020        33
28.040        37
28.060        40
28.080        27
28.100        27
28.120        30
28.140        47
28.160        47
28.180        60
28.200        23
28.220        23
28.240        37
28.260        30
28.280        47
28.300        30
28.320        43
28.340        40
28.360        30
28.380        33
28.400        37
28.420        47
28.440        13
28.460        50
28.480        40
28.500        30
28.520        33
28.540        40
28.560        30
28.580        53
28.600        20
28.620        50
28.640        53
28.660        23
28.680        20
28.700        33
28.720        20
28.740        47
28.760        27
28.780        17
28.800        33
28.820        43
28.840        13
28.860        33
28.880         3
28.900        30
28.920        37
28.940        17
28.960        30
28.980        27
29.000        33
29.020        23
29.040        20
29.060        17
29.080        30
29.100        37
29.120        23
29.140        17
29.160        13
29.180        37
29.200        13
29.220        23
29.240        20
29.260        30
29.280        20
29.300        37
29.320        20
29.340        17
29.360        23
29.380        20
29.400        33
29.420        27
29.440        30
29.460        43
29.480        17
29.500        10
29.520        27
29.540         3
29.560        27
29.580        33
29.600        23
29.620        33
29.640        33
29.660        37
29.680        43
29.700        30
29.720        40
29.740        37
29.760         7
29.780        33
29.800        17
29.820        30
29.840        40
29.860        20
29.880        17
29.900        37
29.920        23
29.940        10
29.960        37
29.980        23
30.000        20
30.020        43
30.040        30
30.060        47
30.080        27
30.100        33
30.120        20
30.140        30
30.160        23
30.180        27
30.200        27
30.220        37
30.240        33
30.260        47
30.280        33
30.300        30
30.320        37
30.340        30
30.360        20
30.380        13
30.400        33
30.420        27
30.440        20
30.460        40
30.480        30
30.500        27
30.520        23
30.540        17
30.560        10
30.580        27
30.600        20
30.620        37
30.640        30
30.660        37
30.680        33
30.700        50
30.720        40
30.740        30
30.760        20
30.780        50
30.800        53
30.820        70
30.840        37
30.860        47
30.880        80
30.900        53
30.920        70
30.940        77
30.960        67
30.980       103
31.000       120
31.020       133
31.040        83
31.060       173
31.080       133
31.100       183
31.120       210
31.140       157
31.160       180
31.180       243
31.200       167
31.220       247
31.240       207
31.260       167
31.280       157
31.300       117
31.320        77
31.340        80
31.360       117
31.380        83
31.400        83
31.420        70
31.440        67
31.460        50
31.480        57
31.500        33
31.520        40
31.540        30
31.560        37
31.580        33
31.600        20
31.620        53
31.640        20
31.660        30
31.680        37
31.700        40
31.720        23
31.740        40
31.760        20
31.780        47
31.800        33
31.820        30
31.840        23
31.860        37
31.880        40
31.900        13
31.920        13
31.940        37
31.960        27
31.980        33
32.000        30
32.020        33
32.040        23
32.060        30
32.080        20
32.100        37
32.120        27
32.140        13
32.160        33
32.180        20
32.200        23
32.220        43
32.240        47
32.260        23
32.280        30
32.300        27
32.320        30
32.340        57
32.360        33
32.380        20
32.400        30
32.420        23
32.440        20
32.460         7
32.480        17
32.500        37
32.520        30
32.540        17
32.560        40
32.580        37
32.600        33
32.620        30
32.640        30
32.660        27
32.680        30
32.700        10
32.720        27
32.740        20
32.760        23
32.780        13
32.800        30
32.820        10
32.840        20
32.860        23
32.880        27
32.900        17
32.920        23
32.940        37
32.960        20
32.980        23
33.000        20
33.020        33
33.040        30
33.060        13
33.080        20
33.100        40
33.120        30
33.140        40
33.160        20
33.180        20
33.200        23
33.220         3
33.240        13
33.260        27
33.280        30
33.300        33
33.320        13
33.340        13
33.360        17
33.380        30
33.400        17
33.420        20
33.440        23
33.460        17
33.480        20
33.500        20
33.520        20
33.540        30
33.560        17
33.580        27
33.600        13
33.620        20
33.640        27
33.660        17
33.680        40
33.700        43
33.720        23
33.740        20
33.760        43
33.780        40
33.800        33
33.820        17
33.840        30
33.860        43
33.880        37
33.900        40
33.920        20
33.940        20
33.960        13
33.980        30
34.000        33
34.020        27
34.040        23
34.060        43
34.080        27
34.100        20
34.120        20
34.140        33
34.160        30
34.180        13
34.200        20
34.220        37
34.240        30
34.260        37
34.280        30
34.300        27
34.320        37
34.340        40
34.360        27
34.380        17
34.400        57
34.420        37
34.440        30
34.460        27
34.480        13
34.500        27
34.520        37
34.540        27
34.560        30
34.580        27
34.600        13
34.620        20
34.640        20
34.660         7
34.680        23
34.700        30
34.720        40
34.740        20
34.760        10
34.780        20
34.800        27
34.820        33
34.840        17
34.860        20
34.880        27
34.900        40
34.920        17
34.940        30
34.960        20
34.980        20
35.000        40
35.020        43
35.040        60
35.060        50
35.080        97
35.100       197
35.120       203
35.140       180
35.160       217
35.180       123
35.200       203
35.220       157
35.240       110
35.260        97
35.280        53
35.300        23
35.320        47
35.340        30
35.360        10
35.380        20
35.400        30
35.420        27
35.440        20
35.460        20
35.480        17
35.500        27
35.520        27
35.540        20
35.560        17
35.580        13
35.600        10
35.620        33
35.640        23
35.660        40
35.680        27
35.700        30
35.720        20
35.740        17
35.760        20
35.780        30
35.800        20
35.820        17
35.840        27
35.860        13
35.880        27
35.900        30
35.920        30
35.940        27
35.960        13
35.980        17
36.000        23
36.020        20
36.040        37
36.060        17
36.080        17
36.100        37
36.120        30
36.140        13
36.160        13
36.180        20
36.200        30
36.220        23
36.240        23
36.260        10
36.280        10
36.300        23
36.320        20
36.340        27
36.360        27
36.380        33
36.400        13
36.420        27
36.440        27
36.460        33
36.480        30
36.500        20
36.520        17
36.540        30
36.560        43
36.580        10
36.600        30
36.620        30
36.640        13
36.660        10
36.680        30
36.700        23
36.720        20
36.740        37
36.760        10
36.780        17
36.800        30
36.820        13
36.840        27
36.860        23
36.880        30
36.900        17
36.920        47
36.940        30
36.960        13
36.980        47
37.000        30
37.020        43
37.040        37
37.060        43
37.080        27
37.100        30
37.120        27
37.140        33
37.160        13
37.180        10
37.200        23
37.220        17
37.240        43
37.260        33
37.280        23
37.300        27
37.320        20
37.340        30
37.360        30
37.380        43
37.400        20
37.420        40
37.440        20
37.460        30
37.480        40
37.500        37
37.520        27
37.540        43
37.560        50
37.580        27
37.600        20
37.620        40
37.640        40
37.660        17
37.680        27
37.700        50
37.720        60
37.740        53
37.760        73
37.780        60
37.800        90
37.820        77
37.840        83
37.860        73
37.880       110
37.900       100
37.920        80
37.940       117
37.960       173
37.980       127
38.000       153
38.020       173
38.040       247
38.060       293
38.080       297
38.100       323
38.120       397
38.140       337
38.160       446
38.180       516
38.200       556
38.220       560
38.240       596
38.260       573
38.280       520
38.300       500
38.320       536
38.340       463
38.360       503
38.380       480
38.400       430
38.420       317
38.440       373
38.460       307
38.480       283
38.500       290
38.520       200
38.540       213
38.560       267
38.580       197
38.600       153
38.620       153
38.640       107
38.660       177
38.680       120
38.700       117
38.720        57
38.740       120
38.760        70
38.780        77
38.800        93
38.820       113
38.840        53
38.860        43
38.880        50
38.900        70
38.920        33
38.940        37
38.960        50
38.980        43
39.000        53
39.020        17
39.040        30
39.060        47
39.080        53
39.100        57
39.120        27
39.140        50
39.160        47
39.180        23
39.200        40
39.220        27
39.240        37
39.260        33
39.280        30
39.300        27
39.320        40
39.340        13
39.360        37
39.380        30
39.400        37
39.420        40
39.440        43
39.460        47
39.480        23
39.500        30
39.520        43
39.540        17
39.560        20
39.580        13
39.600        50
39.620        20
39.640        40
39.660        23
39.680        37
39.700        23
39.720        20
39.740        33
39.760        30
39.780        23
39.800        30
39.820        33
39.840        17
39.860        20
39.880        40
39.900        20
39.920        17
39.940        13
39.960        30
39.980        23
40.000        17
40.020        17
40.040        13
40.060         7
40.080        23
40.100        27
40.120        27
40.140        13
40.160        17
40.180        23
40.200        37
40.220        30
40.240        20
40.260        30
40.280        27
40.300        10
40.320        17
40.340        10
40.360        17
40.380        30
40.400        23
40.420        23
40.440        13
40.460        23
40.480        13
40.500        37
40.520        27
40.540        30
40.560        27
40.580        43
40.600        20
40.620        27
40.640        40
40.660        33
40.680        27
40.700        20
40.720        20
40.740        20
40.760        17
40.780        10
40.800        13
40.820        17
40.840         0
40.860        20
40.880        27
40.900        30
40.920        30
40.940        13
40.960        27
40.980        17
41.000        30
41.020        13
41.040        37
41.060        33
41.080        17
41.100        10
41.120        17
41.140        30
41.160        20
41.180        17
41.200        47
41.220        23
41.240        20
41.260        23
41.280        33
41.300        30
41.320        13
41.340        30
41.360        10
41.380        23
41.400        23
41.420        13
41.440        13
41.460        17
41.480        23
41.500        17
41.520        23
41.540        30
41.560        13
41.580        33
41.600        17
41.620        43
41.640        43
41.660        50
41.680        57
41.700        67
41.720        50
41.740        77
41.760        33
41.780        47
41.800        57
41.820        73
41.840        30
41.860        30
41.880        30
41.900        13
41.920        27
41.940        23
41.960        27
41.980        27
42.000        13
42.020        20
42.040        17
42.060         3
42.080        33
42.100        17
42.120        17
42.140        13
42.160        10
42.180        30
42.200        23
42.220        40
42.240        27
42.260        13
42.280        17
42.300        23
42.320        13
42.340        27
42.360        23
42.380        10
42.400         7
42.420        17
42.440        20
42.460        20
42.480        10
42.500        10
42.520        17
42.540        37
42.560        13
42.580        17
42.600        20
42.620        20
42.640        27
42.660        17
42.680        10
42.700        33
42.720        13
42.740        20
42.760        10
42.780        30
42.800        27
42.820        10
42.840        13
42.860        17
42.880        23
42.900        13
42.920        17
42.940        10
42.960        23
42.980        30
43.000        23
43.020        13
43.040        23
43.060        23
43.080        10
43.100        23
43.120        27
43.140        13
43.160        20
43.180        23
43.200        17
43.220        27
43.240        17
43.260        50
43.280        33
43.300        20
43.320        40
43.340        43
43.360        70
43.380       103
43.400        80
43.420        70
43.440        70
43.460        23
43.480        63
43.500        47
43.520        43
43.540        40
43.560        47
43.580        20
43.600        20
43.620        27
43.640        10
43.660        17
43.680        13
43.700         7
43.720        27
43.740        27
43.760        17
43.780        37
43.800        20
43.820        10
43.840        17
43.860        17
43.880        27
43.900        27
43.920        23
43.940        30
43.960        17
43.980        17
44.000        23
44.020        20
44.040        13
44.060        30
44.080        37
44.100        37
44.120        37
44.140        30
44.160        17
44.180        33
44.200        27
44.220        53
44.240        63
44.260        30
44.280        63
44.300        83
44.320        37
44.340        60
44.360        63
44.380        73
44.400        80
44.420        67
44.440        93
44.460        97
44.480        73
44.500       117
44.520       113
44.540       123
44.560       147
44.580       167
44.600       187
44.620       160
44.640       153
44.660       113
44.680       227
44.700       223
44.720       170
44.740       173
44.760       153
44.780       140
44.800       127
44.820       147
44.840       100
44.860       123
44.880       110
44.900        80
44.920        87
44.940        87
44.960        70
44.980        70
45.000        57
45.020        47
45.040        43
45.060        27
45.080        50
45.100        40
45.120        20
45.140        27
45.160        30
45.180        30
45.200        20
45.220        17
45.240        20
45.260        40
45.280        50
45.300        37
45.320        23
45.340        37
45.360        20
45.380        23
45.400        17
45.420        37
45.440        20
45.460        23
45.480        17
45.500        27
45.520        17
45.540        20
45.560         7
45.580        27
45.600        13
45.620        20
45.640        17
45.660        27
45.680        23
45.700        33
45.720        27
45.740        20
45.760        13
45.780        20
45.800        13
45.820        30
45.840        27
45.860        30
45.880        20
45.900        23
45.920        10
45.940        10
45.960        13
45.980        17
46.000         3
46.020        13
46.040        13
46.060         7
46.080        13
46.100        23
46.120        17
46.140        23
46.160        20
46.180        30
46.200        33
46.220        37
46.240        23
46.260        20
46.280        20
46.300        27
46.320        17
46.340        17
46.360         7
46.380         7
46.400        17
46.420        13
46.440        13
46.460        17
46.480        20
46.500        20
46.520        17
46.540        17
46.560        17
46.580        27
46.600         3
46.620        17
46.640        13
46.660        17
46.680        13
46.700        23
46.720        13
46.740        13
46.760        23
46.780        33
46.800        23
46.820        13
46.840        17
46.860        23
46.880        17
46.900         3
46.920         7
46.940        13
46.960        20
46.980        17
47.000        20
47.020         3
47.040        27
47.060        10
47.080        17
47.100        10
47.120        20
47.140        20
47.160         7
47.180        17
47.200        20
47.220        23
47.240        13
47.260        10
47.280         7
47.300        33
47.320        17
47.340        13
47.360        17
47.380        13
47.400        23
47.420        10
47.440        10
47.460        20
47.480        27
47.500        13
47.520        20
47.540         7
47.560        13
47.580        13
47.600        13
47.620        23
47.640        13
47.660        13
47.680        17
47.700        13
47.720        13
47.740        17
47.760        10
47.780        17
47.800        33
47.820        27
47.840        17
47.860        13
47.880         7
47.900        13
47.920        13
47.940        17
47.960        13
47.980        23
48.000        23
48.020        17
48.040        20
48.060        17
48.080        17
48.100        23
48.120        10
48.140        13
48.160         7
48.180        20
48.200        23
48.220         7
48.240        13
48.260        13
48.280        13
48.300        17
48.320         7
48.340        10
48.360        10
48.380        10
48.400        13
48.420        17
48.440        13
48.460        10
48.480        13
48.500        13
48.520        13
48.540        17
48.560         7
48.580         7
48.600         3
48.620        13
48.640        10
48.660        13
48.680        13
48.700        23
48.720         3
48.740        17
48.760        20
48.780        17
48.800        10
48.820        17
48.840        20
48.860        10
48.880        20
48.900        23
48.920        13
48.940        10
48.960        10
48.980        17
49.000        13
49.020        13
49.040         3
49.060        27
49.080        17
49.100        27
49.120         3
49.140        23
49.160        17
49.180        13
49.200         7
49.220        17
49.240        17
49.260        20
49.280        13
49.300        13
49.320        17
49.340        17
49.360        17
49.380        13
49.400        20
49.420        27
49.440        10
49.460        13
49.480        10
49.500        13
49.520         7
49.540        13
49.560        20
49.580        17
49.600         7
49.620        10
49.640        10
49.660        13
49.680        10
49.700         7
49.720        17
49.740        20
49.760        13
49.780        10
49.800         3
49.820        23
49.840        17
49.860        13
49.880        17
49.900        10
49.920        17
49.940         3
49.960        17
49.980         7
50.000        10
50.020        13
50.040        10
50.060        13
50.080        10
50.100        13
50.120        17
50.140        10
50.160        10
50.180         0
50.200        23
50.220        10
50.240        17
50.260        20
50.280        17
50.300        20
50.320        13
50.340         7
50.360        13
50.380        20
50.400         7
50.420        23
50.440        13
50.460        23
50.480        13
50.500        10
50.520        17
50.540        20
50.560        13
50.580        10
50.600        10
50.620         7
50.640        17
50.660         3
50.680         7
50.700        13
50.720         3
50.740        17
50.760        13
50.780        13
50.800         0
50.820        10
50.840        13
50.860        20
50.880        23
50.900        23
50.920         3
50.940        17
50.960         7
50.980        17
51.000        20
51.020        13
51.040        10
51.060        13
51.080        23
51.100        13
51.120        17
51.140        17
51.160        10
51.180        17
51.200         7
51.220         3
51.240        33
51.260         7
51.280        13
51.300         7
51.320        13
51.340        23
51.360        10
51.380        20
51.400        10
51.420        13
51.440        23
51.460        10
51.480        17
51.500        10
51.520        20
51.540        20
51.560        17
51.580        17
51.600        23
51.620        10
51.640        13
51.660        13
51.680        13
51.700        13
51.720        17
51.740        10
51.760         3
51.780        17
51.800        10
51.820        13
51.840        17
51.860        20
51.880        23
51.900         3
51.920        10
51.940        17
51.960        17
51.980        17
52.000        30
52.020        20
52.040        13
52.060        20
52.080        20
52.100        20
52.120        17
52.140        10
52.160        33
52.180        17
52.200        27
52.220        17
52.240        23
52.260        27
52.280        10
52.300        17
52.320        13
52.340        20
52.360        13
52.380        13
52.400        17
52.420        17
52.440        13
52.460        13
52.480        17
52.500        17
52.520        17
52.540        50
52.560        60
52.580       103
52.600       120
52.620        43
52.640        40
52.660        33
52.680        37
52.700        37
52.720        77
52.740        83
52.760        33
52.780        43
52.800        17
52.820        27
52.840        10
52.860         3
52.880         3
52.900        33
52.920        23
52.940        23
52.960         3
52.980        23
53.000        17
53.020        13
53.040        13
53.060        20
53.080         7
53.100         3
53.120        13
53.140        27
53.160         7
53.180         3
53.200        27
53.220        27
53.240        13
53.260        13
53.280        17
53.300         7
53.320        37
53.340        13
53.360        17
53.380         7
53.400        20
53.420        17
53.440        10
53.460        13
53.480         3
53.500         7
53.520        13
53.540         7
53.560        10
53.580        23
53.600        20
53.620        30
53.640        13
53.660        10
53.680        17
53.700        20
53.720        17
53.740        20
53.760        27
53.780         7
53.800         3
53.820         7
53.840        10
53.860        20
53.880        13
53.900        10
53.920        20
53.940        17
53.960        10
53.980         7
54.000        13
54.020        13
54.040        20
54.060        20
54.080        17
54.100        10
54.120        10
54.140        13
54.160        30
54.180        10
54.200         7
54.220        13
54.240        10
54.260        10
54.280        23
54.300         3
54.320         7
54.340         3
54.360         3
54.380        20
54.400        10
54.420         7
54.440        10
54.460        10
54.480        13
54.500        13
54.520        17
54.540        10
54.560        33
54.580        13
54.600        23
54.620        13
54.640        23
54.660        27
54.680        23
54.700        17
54.720        13
54.740        10
54.760        23
54.780        30
54.800        27
54.820        23
54.840        23
54.860        30
54.880        40
54.900        23
54.920        33
54.940        53
54.960        20
54.980        40
55.000        30
55.020        47
55.040        47
55.060        67
55.080        57
55.100        43
55.120        43
55.140        87
55.160        73
55.180        90
55.200       107
55.220        90
55.240        80
55.260        97
55.280        97
55.300       110
55.320        87
55.340        73
55.360        97
55.380        90
55.400       110
55.420        67
55.440        83
55.460        80
55.480       123
55.500        63
55.520        73
55.540        37
55.560        70
55.580        80
55.600        27
55.620        73
55.640        80
55.660        43
55.680        53
55.700        40
55.720        47
55.740        60
55.760        43
55.780        47
55.800        37
55.820        53
55.840        60
55.860        30
55.880        20
55.900        33
55.920        30
55.940        20
55.960        17
55.980        33
56.000        23
56.020        30
56.040        17
56.060        20
56.080        27
56.100         7
56.120        13
56.140        10
56.160        10
56.180        17
56.200        23
56.220        23
56.240        10
56.260        30
56.280         0
56.300        13
56.320        10
56.340        23
56.360        17
56.380        20
56.400        20
56.420        20
56.440        23
56.460        10
56.480        20
56.500        17
56.520        13
56.540        10
56.560        10
56.580         7
56.600        13
56.620        10
56.640        13
56.660        17
56.680        37
56.700        10
56.720        10
56.740        20
56.760        17
56.780        10
56.800        23
56.820         3
56.840         3
56.860        20
56.880        17
56.900        10
56.920         3
56.940        20
56.960        13
56.980        17
57.000        13
57.020        27
57.040        20
57.060        10
57.080        13
57.100         3
57.120        10
57.140        13
57.160        17
57.180        13
57.200        17
57.220        20
57.240        17
57.260        10
57.280         3
57.300        43
57.320        13
57.340        13
57.360        23
57.380        13
57.400        20
57.420        17
57.440        50
57.460        90
57.480       170
57.500       180
57.520       177
57.540       237
57.560       277
57.580       240
57.600       123
57.620        67
57.640       123
57.660        87
57.680       153
57.700       140
57.720       137
57.740       103
57.760        73
57.780        50
57.800        37
57.820        27
57.840        13
57.860        13
57.880        30
57.900        23
57.920        10
57.940        10
57.960         7
57.980        20
58.000        20
58.020        13
58.040        23
58.060        17
58.080        27
58.100        20
58.120         7
58.140        13
58.160        10
58.180        20
58.200        10
58.220        20
58.240         7
58.260         7
58.280         3
58.300        13
58.320         7
58.340        10
58.360        13
58.380        13
58.400         3
58.420        20
58.440        17
58.460         3
58.480        17
58.500         3
58.520         7
58.540        13
58.560        17
58.580         3
58.600         7
58.620        27
58.640         7
58.660        13
58.680         3
58.700        13
58.720         7
58.740         7
58.760        13
58.780         7
58.800        10
58.820        13
58.840        10
58.860         7
58.880         7
58.900         3
58.920         3
58.940        23
58.960         7
58.980        17
59.000        23
59.020        10
59.040         7
59.060        30
59.080         3
59.100        10
59.120         7
59.140        10
59.160        13
59.180        17
59.200        23
59.220        13
59.240        10
59.260        20
59.280        13
59.300         3
59.320        17
59.340        17
59.360        17
59.380        13
59.400         0
59.420        10
59.440        40
59.460        13
59.480        13
59.500         3
59.520        20
59.540        13
59.560        13
59.580        20
59.600        23
59.620        17
59.640        10
59.660         3
59.680         7
59.700         7
59.720        17
59.740         7
59.760         3
59.780        10
59.800        17
59.820         7
59.840        27
59.860         7
59.880        10
59.900        17
59.920        20
59.940        27
59.960        13
59.980        23
60.000        20
