20.000        67
20.020        67
20.040        60
20.060        53
20.080        53
20.100        50
20.120        70
20.140        67
20.160        43
20.180        57
20.200        40
20.220        57
20.240        57
20.260        53
20.280        60
20.300        57
20.320        33
20.340        43
20.360        33
20.380        93
20.400        40
20.420        37
20.440        30
20.460        70
20.480        40
20.500        43
20.520        43
20.540        50
20.560        63
20.580        63
20.600        20
20.620        50
20.640        43
20.660        23
20.680        50
20.700        70
20.720        53
20.740        43
20.760        73
20.780        57
20.800        57
20.820        40
20.840        50
20.860        53
20.880        60
20.900        53
20.920        60
20.940        47
20.960        47
20.980        67
21.000        57
21.020        60
21.040        47
21.060        40
21.080        30
21.100        63
21.120        70
21.140        50
21.160        50
21.180        50
21.200        30
21.220        47
21.240        70
21.260        63
21.280        53
21.300        47
21.320        53
21.340        40
21.360        70
21.380        60
21.400        80
21.420        50
21.440        50
21.460        80
21.480        80
21.500        30
21.520        40
21.540        57
21.560        80
21.580        73
21.600        67
21.620        67
21.640        43
21.660        53
21.680        50
21.700        63
21.720        67
21.740        77
21.760        67
21.780        60
21.800        53
21.820        50
21.840        83
21.860        97
21.880       127
21.900        83
21.920        90
21.940       120
21.960        97
21.980       150
22.000       120
22.020       137
22.040       187
22.060       117
22.080       147
22.100       170
22.120       163
22.140       187
22.160       200
22.180       183
22.200       217
22.220       207
22.240       170
22.260       240
22.280       227
22.300       297
22.320       203
22.340       270
22.360       190
22.380       193
22.400       183
22.420       210
22.440       200
22.460       137
22.480       197
22.500       210
22.520       197
22.540       137
22.560       177
22.580       167
22.600       123
22.620       143
22.640        93
22.660       140
22.680       137
22.700       100
22.720       120
22.740        83
22.760       100
22.780        97
22.800        83
22.820        63
22.840        90
22.860        80
22.880        67
22.900        70
22.920        73
22.940        70
22.960       123
22.980        80
23.000        93
23.020       107
23.040        80
23.060        67
23.080        53
23.100        90
23.120        47
23.140        50
23.160        77
23.180        63
23.200        77
23.220        83
23.240        20
23.260        50
23.280        67
23.300        73
23.320        47
23.340        50
23.360        43
23.380        63
23.400        63
23.420        50
23.440        43
23.460        43
23.480        63
23.500        57
23.520        47
23.540        77
23.560        47
23.580        67
23.600        33
23.620        73
23.640        87
23.660        17
23.680        20
23.700        57
23.720        63
23.740        47
23.760        57
23.780        73
23.800        40
23.820        50
23.840        20
23.860        53
23.880        63
23.900        67
23.920        60
23.940        47
23.960        43
23.980        70
24.000        37
24.020        50
24.040        57
24.060        60
24.080        63
24.100        67
24.120        37
24.140        50
24.160        50
24.180        60
24.200        53
24.220        57
24.240        47
24.260        53
24.280        60
24.300        53
24.320        47
24.340        30
24.360        33
24.380        50
24.400        57
24.420        57
24.440        50
24.460        27
24.480        53
24.500        67
24.520        53
24.540        47
24.560        30
24.580        57
24.600        57
24.620        37
24.640        43
24.660        47
24.680        40
24.700        63
24.720        33
24.740        57
24.760        50
24.780        43
24.800        47
24.820        40
24.840        27
24.860        60
24.880        57
24.900        37
24.920        33
24.940        47
24.960        47
24.980        47
25.000        60
25.020        43
25.040        50
25.060        40
25.080        37
25.100        43
25.120        27
25.140        67
25.160        70
25.180        37
25.200        33
25.220        60
25.240        67
25.260        70
25.280        67
25.300        23
25.320        77
25.340        57
25.360        43
25.380        60
25.400        70
25.420        33
25.440        57
25.460        57
25.480        83
25.500        87
25.520       120
25.540       123
25.560       147
25.580       130
25.600       153
25.620       133
25.640       100
25.660       100
25.680        83
25.700        77
25.720        67
25.740        67
25.760        47
25.780        53
25.800        47
25.820        63
25.840        43
25.860        40
25.880        40
25.900        53
25.920        47
25.940        53
25.960        30
25.980        33
26.000        43
26.020        57
26.040        43
26.060        27
26.080        33
26.100        60
26.120        43
26.140        53
26.160        27
26.180        40
26.200        37
26.220        50
26.240        50
26.260        43
26.280        47
26.300        40
26.320        27
26.340        63
26.360        43
26.380        37
26.400        37
26.420        43
26.440        37
26.460        47
26.480        23
26.500        27
26.520        73
26.540        17
26.560        30
26.580        43
26.600        27
26.620        37
26.640        33
26.660        47
26.680        27
26.700        43
26.720        43
26.740        30
26.760        60
26.780        57
26.800        47
26.820        40
26.840        30
26.860        37
26.880        40
26.900        37
26.920        17
26.940        60
26.960        43
26.980        30
27.000        37
27.020        50
27.040        40
27.060        63
27.080        30
27.100        30
27.120        27
27.140        37
27.160        37
27.180        27
27.200        27
27.220        40
27.240        20
27.260        40
27.280        27
27.300        40
27.320        47
27.340        23
27.360        43
27.380        47
27.400        23
27.420        40
27.440        37
27.460        43
27.480        40
27.500        53
27.520        33
27.540        37
27.560        40
27.580        47
27.600        17
27.620        50
27.640        37
27.660        20
27.680        30
27.700        63
27.720        33
27.740        33
27.760        27
27.780        50
27.800        33
27.820        40
27.840        30
27.860        37
27.880        63
27.900        53
27.920        30
27.940        37
27.960        43
27.980        33
28.000        57
28.020        50
28.040        30
28.060        30
28.080        33
28.100        43
28.120        50
28.140        37
28.160        40
28.180        23
28.200        47
28.220        33
28.240        33
28.260        30
28.280        43
28.300        43
28.320        50
28.340        33
28.360        30
28.380        60
28.400        43
28.420        30
28.440        57
28.460        60
28.480        33
28.500        47
28.520        27
28.540        37
28.560        47
28.580        37
28.600        37
28.620        53
28.640        43
28.660        37
28.680        37
28.700        40
28.720        27
28.740        53
28.760        50
28.780        23
28.800        67
28.820        37
28.840        47
28.860        33
28.880        37
28.900        33
28.920        57
28.940        50
28.960        40
28.980        40
29.000        33
29.020        27
29.040        27
29.060        33
29.080        23
29.100        27
29.120        23
29.140        23
29.160        47
29.180        37
29.200        13
29.220        33
29.240        47
29.260        40
29.280        37
29.300        30
29.320        40
29.340        47
29.360        50
29.380        57
29.400        57
29.420        33
29.440        23
29.460        50
29.480        47
29.500        30
29.520        37
29.540        63
29.560        50
29.580        40
29.600        33
29.620        47
29.640        33
29.660        37
29.680        43
29.700        37
29.720        47
29.740        40
29.760        30
29.780        33
29.800        17
29.820        50
29.840        20
29.860        10
29.880        47
29.900        20
29.920        30
29.940        30
29.960        50
29.980        40
30.000        17
30.020        30
30.040        50
30.060        50
30.080        63
30.100        23
30.120        40
30.140        53
30.160        53
30.180        37
30.200        77
30.220        30
30.240        33
30.260         3
30.280        37
30.300        20
30.320        47
30.340        43
30.360        50
30.380        30
30.400        40
30.420        50
30.440        17
30.460        37
30.480        47
30.500        30
30.520        33
30.540        47
30.560        47
30.580        57
30.600        20
30.620        20
30.640        37
30.660        37
30.680        50
30.700        37
30.720        47
30.740        47
30.760        37
30.780        50
30.800        67
30.820        27
30.840        60
30.860        67
30.880        63
30.900        47
30.920       100
30.940        67
30.960        77
30.980        40
31.000        80
31.020        37
31.040        63
31.060       100
31.080       100
31.100        57
31.120        67
31.140        50
31.160        83
31.180        83
31.200       107
31.220       103
31.240        77
31.260        93
31.280       120
31.300       100
31.320       100
31.340       110
31.360       107
31.380       107
31.400       173
31.420       200
31.440       180
31.460       150
31.480       170
31.500       223
31.520       233
31.540       280
31.560       260
31.580       233
31.600       303
31.620       307
31.640       380
31.660       353
31.680       393
31.700       500
31.720       450
31.740       417
31.760       470
31.780       610
31.800       610
31.820       620
31.840       660
31.860       616
31.880       640
31.900       580
31.920       650
31.940       623
31.960       670
31.980       646
32.000       563
32.020       496
32.040       580
32.060       423
32.080       453
32.100       526
32.120       503
32.140       410
32.160       387
32.180       413
32.200       320
32.220       370
32.240       303
32.260       267
32.280       233
32.300       227
32.320       273
32.340       213
32.360       180
32.380       167
32.400       187
32.420       187
32.440       170
32.460       130
32.480       123
32.500       140
32.520       120
32.540        93
32.560        97
32.580       133
32.600       110
32.620       100
32.640       113
32.660       130
32.680       110
32.700        80
32.720       103
32.740        77
32.760       103
32.780        67
32.800        77
32.820        57
32.840        63
32.860        87
32.880        37
32.900        93
32.920        70
32.940        47
32.960       117
32.980        30
33.000        60
33.020        43
33.040        40
33.060        30
33.080        73
33.100        50
33.120        53
33.140        50
33.160        40
33.180        43
33.200        60
33.220        50
33.240        53
33.260        37
33.280        60
33.300        40
33.320        20
33.340        37
33.360        50
33.380        50
33.400        50
33.420        47
33.440        50
33.460        60
33.480        40
33.500        37
33.520        37
33.540        20
33.560        40
33.580        47
33.600        33
33.620        37
33.640        37
33.660        67
33.680        67
33.700        40
33.720        37
33.740        43
33.760        43
33.780        50
33.800        33
33.820        43
33.840        23
33.860        30
33.880        23
33.900        27
33.920        33
33.940        23
33.960        50
33.980        37
34.000        43
34.020        20
34.040        27
34.060        23
34.080        30
34.100        27
34.120        30
34.140        33
34.160        20
34.180        37
34.200        47
34.220        33
34.240        40
34.260        23
34.280        27
34.300        30
34.320        40
34.340        40
34.360        30
34.380        33
34.400        40
34.420        40
34.440        27
34.460        27
34.480        37
34.500        23
34.520        23
34.540        13
34.560        33
34.580        37
34.600        43
34.620        27
34.640        40
34.660        23
34.680        37
34.700        33
34.720        33
34.740        27
34.760        30
34.780        50
34.800        37
34.820        40
34.840        50
34.860        57
34.880        23
34.900        23
34.920        57
34.940        63
34.960        63
34.980        47
35.000        50
35.020        90
35.040        87
35.060       140
35.080       117
35.100       137
35.120       227
35.140       303
35.160       417
35.180       506
35.200       500
35.220       367
35.240       233
35.260       307
35.280       300
35.300       200
35.320       107
35.340        60
35.360        53
35.380        67
35.400        67
35.420        37
35.440        20
35.460        33
35.480        43
35.500        33
35.520        53
35.540        33
35.560        20
35.580        27
35.600        60
35.620        17
35.640        17
35.660        20
35.680        30
35.700        33
35.720        37
35.740        27
35.760        50
35.780        27
35.800        30
35.820        37
35.840        27
35.860        20
35.880        33
35.900        47
35.920        30
35.940        27
35.960        37
35.980        23
36.000        33
36.020        13
36.040        27
36.060        23
36.080        17
36.100        40
36.120        47
36.140        30
36.160        43
36.180        33
36.200        20
36.220        30
36.240        43
36.260        27
36.280        33
36.300        13
36.320        20
36.340        33
36.360        40
36.380        37
36.400        23
36.420        23
36.440        37
36.460        27
36.480        37
36.500         7
36.520        30
36.540        30
36.560        37
36.580        17
36.600        30
36.620        30
36.640        30
36.660        17
36.680        40
36.700        23
36.720        13
36.740        43
36.760        30
36.780        37
36.800        17
36.820        17
36.840        17
36.860        27
36.880        30
36.900        33
36.920        27
36.940        30
36.960        20
36.980        40
37.000        23
37.020        20
37.040        27
37.060        23
37.080        27
37.100        30
37.120        53
37.140        17
37.160        30
37.180        23
37.200        20
37.220        40
37.240        23
37.260        33
37.280        30
37.300        20
37.320        30
37.340        17
37.360        13
37.380        40
37.400        17
37.420        30
37.440        17
37.460        30
37.480        23
37.500        17
37.520        30
37.540        30
37.560        20
37.580        20
37.600        27
37.620        33
37.640        40
37.660        43
37.680        37
37.700        37
37.720        57
37.740        40
37.760        40
37.780        17
37.800        70
37.820        53
37.840        57
37.860        90
37.880        40
37.900        43
37.920        53
37.940        30
37.960        37
37.980        40
38.000        40
38.020        30
38.040        27
38.060        33
38.080        33
38.100        10
38.120        60
38.140        17
38.160        17
38.180        37
38.200        23
38.220         3
38.240        33
38.260        20
38.280        23
38.300        30
38.320        33
38.340        33
38.360        17
38.380        30
38.400        33
38.420        23
38.440        17
38.460        17
38.480        33
38.500        30
38.520        17
38.540        47
38.560        20
38.580        10
38.600        27
38.620        13
38.640        17
38.660        17
38.680        20
38.700        30
38.720        20
38.740        23
38.760        43
38.780        43
38.800        23
38.820        30
38.840        30
38.860        40
38.880        20
38.900        10
38.920        40
38.940        33
38.960        40
38.980        10
39.000        23
39.020        70
39.040        30
39.060        43
39.080        30
39.100        20
39.120        37
39.140        67
39.160        53
39.180        33
39.200        30
39.220        27
39.240        47
39.260        57
39.280        37
39.300        73
39.320        37
39.340        40
39.360        43
39.380        47
39.400        43
39.420        53
39.440        37
39.460        47
39.480        27
39.500        43
39.520        47
39.540        53
39.560        47
39.580        53
39.600        37
39.620        50
39.640        53
39.660        17
39.680        23
39.700        50
39.720        20
39.740        37
39.760        33
39.780        43
39.800        50
39.820        53
39.840        43
39.860        30
39.880        17
39.900        27
39.920        30
39.940        30
39.960        23
39.980        30
40.000        53
40.020        37
40.040        37
40.060        53
40.080        47
40.100        37
40.120        23
40.140        27
40.160        37
40.180        30
40.200        43
40.220        33
40.240        40
40.260        30
40.280        20
40.300        33
40.320        33
40.340        27
40.360        40
40.380        40
40.400        20
40.420        23
40.440        40
40.460        20
40.480        30
40.500        23
40.520        43
40.540        23
40.560        10
40.580        27
40.600        20
40.620        10
40.640        30
40.660        23
40.680        27
40.700        23
40.720        17
40.740        20
40.760        17
40.780        20
40.800        20
40.820        20
40.840        23
40.860        40
40.880        37
40.900        40
40.920        27
40.940        33
40.960        10
40.980        23
41.000        27
41.020        27
41.040        33
41.060        27
41.080        37
41.100        27
41.120        20
41.140        27
41.160        27
41.180        17
41.200        13
41.220        23
41.240        43
41.260        20
41.280        13
41.300        17
41.320        37
41.340        27
41.360        27
41.380        27
41.400        40
41.420        30
41.440        37
41.460        40
41.480        37
41.500        27
41.520        43
41.540        30
41.560        40
41.580        37
41.600        17
41.620        40
41.640        70
41.660        37
41.680       110
41.700        67
41.720        63
41.740        80
41.760        70
41.780        67
41.800        67
41.820        67
41.840        50
41.860        37
41.880        20
41.900        33
41.920        43
41.940        27
41.960        30
41.980        17
42.000        37
42.020        37
42.040        40
42.060        40
42.080        27
42.100         7
42.120        43
42.140        13
42.160        23
42.180        27
42.200        20
42.220        30
42.240        40
42.260        13
42.280        27
42.300        30
42.320        20
42.340        30
42.360        30
42.380        23
42.400        33
42.420        23
42.440        30
42.460        20
42.480        23
42.500        17
42.520        27
42.540        23
42.560        47
42.580        27
42.600        30
42.620        20
42.640        47
42.660        37
42.680        27
42.700        30
42.720        13
42.740        40
42.760        27
42.780        17
42.800        20
42.820        23
42.840        20
42.860        17
42.880        40
42.900        30
42.920        27
42.940        30
42.960        37
42.980        30
43.000        23
43.020        37
43.040        30
43.060        23
43.080        37
43.100        33
43.120        27
43.140        23
43.160        47
43.180        43
43.200        57
43.220        37
43.240        50
43.260        57
43.280        53
43.300        83
43.320        77
43.340       130
43.360       153
43.380       193
43.400       247
43.420       180
43.440       143
43.460       110
43.480       103
43.500       130
43.520       120
43.540       113
43.560        63
43.580        77
43.600        60
43.620        27
43.640        43
43.660        50
43.680        53
43.700        23
43.720        43
43.740        47
43.760        37
43.780        30
43.800        37
43.820        40
43.840        50
43.860        47
43.880        50
43.900        30
43.920        23
43.940        50
43.960        43
43.980        50
44.000        37
44.020        77
44.040        40
44.060        43
44.080        27
44.100        67
44.120        60
44.140        50
44.160        37
44.180        73
44.200        57
44.220        40
44.240        47
44.260        47
44.280        67
44.300        53
44.320        90
44.340        70
44.360        87
44.380        57
44.400        47
44.420       100
44.440        67
44.460        80
44.480        63
44.500        70
44.520        80
44.540       140
44.560        80
44.580        63
44.600        83
44.620       113
44.640       100
44.660        60
44.680       110
44.700       113
44.720       107
44.740       127
44.760       147
44.780       177
44.800       113
44.820       127
44.840       187
44.860       157
44.880       197
44.900       173
44.920       197
44.940       207
44.960       213
44.980       190
45.000       247
45.020       223
45.040       300
45.060       277
45.080       223
45.100       297
45.120       317
45.140       287
45.160       300
45.180       287
45.200       313
45.220       433
45.240       436
45.260       403
45.280       383
45.300       397
45.320       423
45.340       410
45.360       493
45.380       363
45.400       423
45.420       353
45.440       566
45.460       470
45.480       446
45.500       476
45.520       493
45.540       523
45.560       450
45.580       460
45.600       503
45.620       470
45.640       426
45.660       397
45.680       460
45.700       453
45.720       530
45.740       397
45.760       506
45.780       363
45.800       397
45.820       400
45.840       407
45.860       387
45.880       353
45.900       357
45.920       333
45.940       343
45.960       313
45.980       303
46.000       283
46.020       227
46.040       280
46.060       243
46.080       267
46.100       250
46.120       240
46.140       247
46.160       180
46.180       217
46.200       213
46.220       203
46.240       173
46.260       167
46.280       190
46.300       147
46.320       157
46.340       187
46.360       160
46.380       107
46.400       120
46.420       123
46.440       113
46.460       130
46.480        97
46.500       140
46.520       103
46.540       120
46.560        67
46.580        87
46.600        97
46.620        73
46.640        87
46.660       100
46.680        97
46.700        87
46.720        83
46.740        47
46.760        70
46.780        90
46.800        40
46.820        57
46.840        57
46.860        80
46.880        80
46.900        63
46.920        73
46.940        60
46.960        30
46.980        43
47.000        40
47.020        60
47.040        43
47.060        33
47.080        50
47.100        40
47.120        33
47.140        47
47.160        57
47.180        43
47.200        47
47.220        33
47.240        53
47.260        77
47.280        33
47.300        50
47.320        33
47.340        37
47.360        37
47.380        67
47.400        40
47.420        33
47.440        50
47.460        13
47.480        37
47.500        57
47.520        53
47.540        57
47.560        50
47.580        30
47.600        40
47.620        47
47.640        70
47.660        30
47.680        50
47.700        23
47.720        33
47.740        20
47.760        30
47.780        27
47.800        27
47.820        37
47.840        23
47.860        33
47.880        27
47.900        30
47.920        20
47.940        30
47.960        47
47.980        23
48.000        40
48.020        33
48.040        53
48.060        17
48.080        37
48.100        30
48.120        23
48.140        27
48.160        20
48.180        33
48.200        20
48.220        27
48.240        37
48.260        30
48.280        33
48.300        27
48.320        30
48.340        23
48.360        27
48.380        37
48.400        30
48.420        23
48.440        17
48.460        43
48.480        30
48.500        43
48.520        33
48.540        27
48.560        33
48.580        20
48.600        20
48.620        23
48.640        33
48.660        30
48.680        17
48.700        30
48.720        20
48.740        40
48.760        20
48.780        33
48.800        17
48.820        30
48.840        37
48.860        20
48.880        30
48.900        30
48.920        17
48.940        23
48.960        17
48.980        10
49.000        17
49.020        20
49.040        10
49.060        20
49.080        20
49.100        37
49.120        17
49.140        27
49.160        27
49.180        60
49.200        27
49.220        13
49.240        23
49.260        23
49.280        17
49.300        27
49.320       107
49.340        20
49.360        20
49.380        17
49.400        17
49.420        20
49.440        17
49.460        23
49.480        27
49.500        40
49.520        20
49.540        30
49.560        27
49.580        17
49.600        27
49.620        27
49.640        33
49.660        27
49.680        33
49.700        27
49.720         3
49.740        37
49.760        17
49.780        20
49.800        17
49.820        20
49.840        10
49.860        23
49.880         7
49.900        13
49.920        23
49.940        17
49.960        13
49.980        17
50.000        27
50.020         7
50.040        17
50.060        13
50.080        27
50.100        23
50.120         7
50.140        17
50.160        10
50.180        23
50.200        10
50.220        23
50.240        17
50.260        20
50.280        17
50.300        20
50.320        20
50.340        27
50.360        10
50.380        17
50.400        13
50.420         3
50.440        17
50.460        43
50.480        13
50.500        13
50.520        20
50.540        23
50.560        30
50.580        23
50.600        20
50.620        13
50.640        20
50.660        23
50.680        33
50.700        20
50.720        30
50.740        20
50.760        23
50.780        27
50.800        20
50.820        23
50.840        20
50.860        30
50.880        23
50.900        30
50.920        27
50.940        27
50.960        17
50.980        20
51.000        20
51.020        20
51.040        27
51.060        10
51.080        33
51.100        33
51.120        30
51.140        27
51.160        13
51.180        30
51.200        30
51.220        17
51.240        20
51.260        20
51.280        17
51.300        27
51.320        30
51.340        10
51.360        27
51.380        60
51.400        23
51.420        27
51.440        10
51.460        17
51.480        23
51.500        23
51.520        37
51.540        13
51.560        27
51.580        30
51.600        23
51.620        40
51.640        37
51.660        23
51.680        33
51.700        20
51.720        37
51.740        27
51.760        17
51.780        30
51.800        27
51.820        23
51.840        27
51.860        27
51.880        20
51.900        20
51.920        20
51.940         7
51.960        23
51.980        13
52.000        33
52.020        23
52.040        37
52.060        17
52.080        13
52.100        17
52.120        10
52.140        23
52.160        10
52.180        27
52.200        20
52.220        17
52.240        23
52.260        40
52.280        23
52.300        20
52.320        27
52.340        33
52.360        20
52.380        27
52.400        50
52.420        30
52.440        33
52.460        40
52.480        43
52.500        43
52.520        53
52.540        80
52.560       143
52.580       213
52.600       433
52.620       436
52.640       360
52.660       250
52.680       137
52.700        80
52.720       133
52.740       227
52.760       193
52.780       163
52.800       140
52.820        90
52.840        40
52.860        40
52.880        20
52.900        30
52.920        30
52.940         7
52.960        13
52.980        27
53.000        13
53.020        17
53.040        20
53.060        30
53.080        27
53.100        13
53.120        37
53.140        23
53.160        13
53.180        10
53.200        13
53.220        23
53.240         7
53.260         7
53.280        23
53.300         7
53.320        10
53.340        23
53.360        10
53.380        20
53.400        20
53.420        20
53.440         7
53.460         3
53.480        10
53.500        17
53.520        10
53.540        13
53.560        23
53.580        13
53.600        20
53.620        13
53.640        10
53.660        17
53.680        10
53.700        27
53.720        10
53.740        10
53.760        37
53.780        10
53.800        13
53.820        17
53.840        20
53.860        23
53.880        10
53.900        30
53.920         0
53.940        17
53.960        23
53.980        23
54.000        10
54.020         7
54.040        20
54.060        10
54.080         7
54.100        13
54.120        13
54.140        17
54.160        27
54.180        13
54.200         7
54.220         3
54.240         7
54.260         7
54.280         7
54.300        23
54.320        13
54.340        17
54.360        17
54.380        13
54.400        20
54.420        20
54.440        27
54.460         7
54.480        13
54.500        10
54.520         7
54.540        17
54.560        27
54.580        17
54.600        27
54.620        13
54.640        10
54.660        13
54.680         7
54.700        20
54.720        17
54.740        13
54.760        17
54.780         7
54.800        13
54.820        27
54.840        20
54.860        27
54.880        30
54.900        30
54.920        13
54.940        13
54.960        20
54.980        23
55.000        13
55.020        20
55.040        20
55.060        13
55.080        13
55.100        13
55.120        20
55.140        17
55.160        27
55.180        10
55.200        17
55.220        13
55.240        13
55.260         7
55.280        17
55.300        30
55.320        17
55.340        23
55.360        13
55.380         3
55.400         7
55.420        10
55.440        27
55.460        30
55.480        20
55.500        20
55.520        17
55.540        13
55.560        13
55.580        30
55.600        13
55.620        17
55.640        10
55.660        23
55.680        13
55.700        27
55.720        17
55.740        23
55.760        13
55.780        10
55.800        13
55.820        13
55.840        20
55.860        13
55.880        20
55.900         7
55.920        17
55.940        23
55.960        20
55.980        27
56.000        30
56.020        17
56.040        13
56.060        40
56.080        13
56.100        23
56.120        27
56.140        23
56.160        20
56.180        37
56.200        23
56.220        13
56.240        20
56.260        10
56.280        10
56.300        27
56.320        30
56.340        10
56.360        30
56.380        17
56.400        10
56.420        40
56.440        27
56.460        20
56.480        20
56.500        20
56.520         7
56.540        27
56.560        10
56.580        13
56.600        27
56.620        20
56.640        43
56.660        27
56.680        30
56.700        43
56.720        37
56.740        40
56.760        17
56.780        20
56.800        23
56.820        40
56.840        17
56.860        23
56.880        33
56.900        33
56.920        33
56.940        20
56.960        27
56.980        40
57.000        40
57.020        20
57.040        40
57.060        23
57.080        23
57.100        27
57.120        23
57.140        23
57.160        40
57.180        27
57.200        40
57.220        47
57.240        43
57.260        40
57.280        37
57.300        33
57.320        37
57.340        40
57.360        43
57.380        57
57.400       100
57.420       100
57.440       143
57.460       267
57.480       436
57.500       433
57.520       420
57.540       453
57.560       433
57.580       430
57.600       300
57.620       287
57.640       253
57.660       300
57.680       287
57.700       253
57.720       190
57.740       213
57.760       147
57.780        37
57.800        63
57.820        10
57.840        27
57.860        27
57.880        27
57.900        27
57.920        10
57.940        20
57.960        23
57.980         7
58.000        13
58.020        30
58.040        17
58.060        23
58.080        30
58.100        23
58.120        17
58.140        10
58.160         7
58.180         3
58.200        37
58.220        20
58.240        20
58.260        13
58.280        23
58.300        27
58.320        20
58.340        23
58.360        17
58.380        23
58.400        10
58.420        23
58.440        13
58.460        13
58.480        27
58.500        20
58.520        33
58.540        17
58.560        17
58.580        10
58.600        13
58.620        17
58.640        17
58.660        23
58.680        23
58.700        13
58.720         3
58.740        17
58.760        33
58.780        10
58.800        23
58.820        20
58.840        20
58.860        13
58.880        33
58.900        13
58.920        17
58.940        10
58.960         7
58.980        23
59.000        20
59.020         7
59.040        10
59.060        17
59.080         3
59.100         7
59.120        17
59.140        27
59.160        10
59.180        13
59.200        17
59.220        27
59.240        30
59.260        23
59.280        30
59.300        17
59.320        20
59.340        17
59.360        20
59.380        23
59.400        23
59.420        13
59.440        10
59.460        20
59.480        23
59.500        13
59.520        17
59.540         7
59.560         7
59.580        17
59.600        30
59.620        20
59.640        13
59.660         3
59.680        10
59.700        20
59.720        23
59.740        20
59.760        20
59.780        30
59.800        27
59.820        20
59.840        33
59.860        17
59.880        17
59.900         7
59.920        13
59.940        30
59.960        20
59.980         7
60.000        27
