20.000        43
20.020        43
20.040        67
20.060        47
20.080        57
20.100        43
20.120        57
20.140        27
20.160        37
20.180        40
20.200        43
20.220        67
20.240        53
20.260        43
20.280        27
20.300        40
20.320        47
20.340        53
20.360        43
20.380        37
20.400        40
20.420        50
20.440        40
20.460        43
20.480        40
20.500        63
20.520        53
20.540        53
20.560        33
20.580        67
20.600        27
20.620        43
20.640        20
20.660        30
20.680        80
20.700        50
20.720        40
20.740        57
20.760        67
20.780        50
20.800        47
20.820        53
20.840        23
20.860        57
20.880        27
20.900        67
20.920        53
20.940        40
20.960        50
20.980        57
21.000        57
21.020        50
21.040        50
21.060        57
21.080        33
21.100        60
21.120        43
21.140        33
21.160        63
21.180        40
21.200        53
21.220        90
21.240        50
21.260        27
21.280        47
21.300        80
21.320        50
21.340        67
21.360        73
21.380        60
21.400        53
21.420        43
21.440        60
21.460        57
21.480        77
21.500        60
21.520        83
21.540        60
21.560        90
21.580       107
21.600        77
21.620       133
21.640       167
21.660       177
21.680       247
21.700       240
21.720       297
21.740       373
21.760       470
21.780       630
21.800       763
21.820      1023
21.840      1100
21.860      1150
21.880      1230
21.900      1100
21.920       766
21.940       590
21.960       480
21.980       360
22.000       187
22.020       197
22.040       123
22.060        97
22.080        97
22.100        87
22.120        40
22.140        83
22.160        70
22.180        77
22.200        57
22.220        73
22.240        63
22.260        43
22.280        80
22.300        53
22.320        60
22.340       100
22.360        47
22.380        67
22.400        53
22.420        37
22.440        47
22.460        47
22.480        60
22.500        67
22.520        57
22.540        40
22.560        80
22.580        57
22.600        57
22.620        50
22.640        47
22.660        57
22.680        67
22.700        57
22.720        40
22.740        43
22.760        40
22.780        30
22.800        50
22.820        37
22.840        47
22.860        73
22.880        47
22.900        30
22.920        53
22.940        33
22.960        80
22.980        63
23.000        57
23.020        63
23.040        57
23.060        43
23.080        60
23.100        47
23.120        60
23.140        43
23.160        67
23.180        53
23.200        33
23.220        80
23.240        33
23.260        50
23.280        40
23.300        53
23.320        33
23.340        60
23.360        43
23.380        40
23.400        53
23.420        37
23.440        57
23.460        43
23.480        27
23.500        40
23.520        37
23.540        57
23.560        70
23.580        40
23.600        63
23.620        57
23.640        33
23.660        50
23.680        50
23.700        53
23.720        67
23.740        43
23.760        63
23.780        57
23.800        60
23.820        57
23.840        53
23.860        47
23.880        57
23.900        27
23.920        50
23.940        57
23.960        40
23.980        33
24.000        57
24.020        60
24.040        40
24.060        53
24.080        67
24.100        60
24.120        50
24.140        37
24.160        33
24.180        43
24.200        50
24.220        43
24.240        27
24.260        43
24.280        53
24.300        70
24.320        43
24.340        60
24.360        43
24.380        37
24.400        40
24.420        30
24.440        37
24.460        30
24.480        40
24.500        47
24.520        37
24.540        47
24.560        27
24.580        53
24.600        57
24.620        47
24.640        40
24.660        43
24.680        43
24.700        53
24.720        53
24.740        47
24.760        47
24.780        30
24.800        33
24.820        43
24.840        23
24.860        30
24.880        47
24.900        60
24.920        40
24.940        43
24.960        53
24.980        60
25.000        37
25.020        47
25.040        50
25.060        47
25.080        50
25.100        37
25.120        37
25.140        30
25.160        40
25.180        47
25.200        20
25.220        47
25.240        50
25.260        50
25.280        57
25.300        27
25.320        53
25.340        40
25.360        57
25.380        60
25.400        43
25.420        67
25.440        37
25.460        83
25.480        43
25.500        53
25.520        37
25.540        40
25.560        47
25.580        50
25.600        30
25.620        63
25.640        47
25.660        50
25.680        40
25.700        40
25.720        60
25.740        33
25.760        43
25.780        30
25.800        30
25.820        57
25.840        37
25.860        57
25.880        23
25.900        40
25.920        30
25.940        50
25.960        40
25.980        47
26.000        50
26.020        30
26.040        43
26.060        37
26.080        63
26.100        43
26.120        43
26.140        63
26.160        33
26.180        57
26.200        30
26.220        53
26.240        43
26.260        20
26.280        30
26.300        43
26.320        27
26.340        33
26.360        40
26.380        40
26.400        33
26.420        33
26.440        37
26.460        33
26.480        43
26.500        50
26.520        33
26.540        33
26.560        20
26.580        50
26.600        47
26.620        40
26.640        27
26.660        40
26.680        40
26.700        30
26.720        23
26.740        60
26.760        47
26.780        37
26.800        23
26.820        30
26.840        47
26.860        50
26.880        30
26.900        43
26.920        23
26.940        47
26.960        20
26.980        43
27.000        43
27.020        40
27.040        47
27.060        40
27.080        37
27.100        47
27.120        40
27.140        30
27.160        47
27.180        47
27.200        40
27.220        33
27.240        30
27.260        17
27.280        37
27.300        47
27.320        50
27.340        50
27.360        60
27.380        37
27.400        40
27.420        37
27.440        53
27.460        43
27.480        40
27.500        50
27.520        37
27.540        10
27.560        63
27.580        37
27.600        53
27.620        37
27.640        43
27.660        60
27.680        50
27.700        40
27.720        20
27.740        37
27.760        37
27.780        40
27.800        43
27.820        27
27.840        33
27.860        30
27.880        33
27.900        27
27.920        40
27.940        13
27.960        27
27.980        27
28.000        57
28.020        30
28.040        30
28.060        50
28.080        43
28.100        13
28.120        57
28.140        40
28.160        47
28.180        37
28.200        47
28.220        33
28.240        43
28.260        67
28.280        37
28.300        30
28.320        50
28.340        23
28.360        30
28.380        50
28.400        30
28.420        20
28.440        47
28.460        50
28.480        50
28.500        60
28.520        37
28.540        40
28.560        47
28.580        47
28.600        33
28.620        20
28.640        23
28.660        23
28.680        30
28.700        47
28.720        20
28.740        43
28.760        30
28.780        37
28.800        33
28.820        17
28.840        57
28.860        23
28.880        50
28.900        30
28.920        33
28.940        37
28.960        27
28.980        23
29.000        37
29.020        37
29.040        47
29.060        30
29.080        37
29.100        30
29.120        33
29.140        50
29.160        43
29.180        30
29.200        20
29.220        33
29.240        30
29.260        27
29.280        37
29.300        37
29.320        33
29.340        30
29.360        27
29.380        30
29.400        33
29.420        57
29.440        40
29.460        43
29.480        23
29.500        17
29.520        33
29.540        17
29.560        37
29.580        37
29.600        33
29.620        37
29.640        33
29.660        53
29.680        27
29.700        30
29.720        43
29.740        23
29.760        33
29.780        27
29.800        23
29.820        40
29.840        23
29.860        43
29.880        33
29.900        23
29.920        27
29.940        30
29.960        20
29.980        53
30.000        40
30.020        23
30.040        23
30.060        93
30.080        33
30.100        23
30.120        37
30.140        47
30.160        37
30.180        27
30.200        30
30.220        50
30.240        30
30.260        67
30.280        20
30.300        37
30.320        50
30.340        50
30.360        27
30.380        53
30.400        37
30.420        30
30.440        20
30.460        37
30.480        37
30.500        27
30.520        37
30.540        27
30.560        37
30.580        17
30.600        43
30.620        40
30.640        67
30.660        30
30.680        47
30.700        43
30.720        43
30.740        33
30.760        63
30.780        30
30.800        50
30.820        47
30.840        60
30.860        60
30.880        70
30.900        73
30.920        83
30.940        93
30.960        77
30.980        83
31.000        97
31.020       137
31.040       140
31.060       157
31.080       157
31.100       197
31.120       197
31.140       177
31.160       127
31.180       140
31.200        83
31.220        87
31.240        67
31.260        67
31.280        57
31.300        60
31.320        43
31.340        40
31.360        20
31.380        70
31.400        43
31.420        47
31.440        47
31.460        40
31.480        43
31.500        30
31.520        50
31.540        37
31.560        47
31.580        27
31.600        20
31.620        30
31.640        30
31.660        40
31.680        63
31.700        50
31.720        30
31.740        40
31.760        33
31.780        23
31.800        23
31.820        47
31.840        50
31.860        40
31.880        37
31.900        40
31.920        17
31.940        33
31.960        20
31.980        27
32.000        43
32.020        27
32.040        17
32.060        23
32.080        43
32.100        33
32.120        30
32.140        37
32.160        37
32.180        17
32.200        30
32.220        33
32.240        27
32.260        33
32.280        20
32.300        27
32.320        33
32.340        33
32.360        20
32.380        30
32.400        30
32.420        30
32.440        33
32.460        20
32.480        43
32.500        40
32.520        40
32.540        10
32.560        17
32.580        30
32.600        40
32.620        43
32.640        33
32.660        30
32.680        40
32.700        37
32.720        60
32.740        37
32.760        27
32.780        20
32.800        30
32.820        20
32.840        30
32.860        40
32.880        33
32.900        27
32.920        20
32.940        43
32.960        30
32.980        27
33.000        37
33.020        20
33.040        27
33.060         3
33.080        20
33.100        13
33.120        20
33.140        33
33.160        30
33.180        37
33.200        43
33.220        30
33.240        30
33.260        33
33.280        30
33.300        30
33.320        23
33.340        20
33.360        50
33.380        13
33.400        37
33.420        27
33.440        30
33.460        20
33.480        23
33.500        27
33.520        23
33.540        20
33.560        17
33.580         7
33.600        27
33.620        27
33.640        33
33.660        20
33.680        27
33.700        27
33.720        23
33.740        40
33.760        20
33.780        20
33.800        20
33.820         7
33.840        40
33.860        13
33.880        27
33.900        27
33.920        23
33.940        33
33.960        17
33.980        43
34.000        37
34.020        37
34.040        27
34.060        17
34.080        40
34.100        10
34.120        33
34.140        27
34.160        30
34.180        37
34.200        37
34.220        30
34.240        33
34.260        27
34.280        37
34.300        23
34.320        23
34.340        13
34.360        43
34.380        20
34.400        30
34.420        30
34.440        40
34.460        47
34.480        30
34.500        43
34.520        23
34.540        37
34.560        23
34.580        27
34.600        13
34.620        20
34.640        33
34.660        50
34.680        30
34.700        17
34.720        23
34.740        47
34.760        20
34.780        23
34.800        27
34.820        30
34.840        40
34.860        33
34.880        47
34.900        43
34.920        17
34.940        40
34.960        17
34.980        40
35.000        57
35.020        33
35.040        37
35.060        53
35.080        73
35.100        70
35.120        73
35.140       103
35.160       113
35.180       133
35.200       100
35.220        87
35.240        87
35.260        80
35.280        77
35.300        60
35.320        40
35.340        73
35.360        23
35.380        33
35.400        17
35.420        27
35.440        37
35.460        33
35.480        50
35.500        43
35.520        30
35.540        17
35.560        27
35.580         7
35.600        23
35.620        10
35.640        13
35.660        30
35.680        37
35.700        23
35.720        30
35.740        30
35.760        33
35.780        27
35.800        43
35.820        43
35.840        27
35.860        17
35.880        17
35.900        37
35.920        33
35.940        30
35.960        27
35.980        17
36.000        17
36.020        47
36.040        20
36.060        33
36.080        20
36.100        20
36.120        30
36.140        10
36.160        13
36.180        33
36.200        33
36.220        17
36.240        27
36.260        23
36.280        30
36.300        10
36.320        27
36.340        23
36.360        37
36.380        10
36.400        23
36.420        23
36.440        30
36.460        33
36.480        23
36.500        10
36.520        33
36.540        27
36.560         7
36.580        23
36.600        37
36.620        17
36.640        27
36.660        17
36.680        17
36.700        20
36.720        23
36.740        27
36.760        40
36.780         7
36.800        40
36.820        33
36.840        30
36.860        17
36.880        40
36.900        20
36.920        47
36.940        33
36.960        30
36.980        17
37.000        43
37.020        37
37.040        27
37.060        30
37.080        53
37.100        43
37.120        50
37.140        30
37.160        30
37.180        27
37.200        27
37.220        47
37.240        50
37.260        47
37.280        40
37.300        40
37.320        47
37.340        53
37.360        30
37.380        53
37.400        37
37.420        37
37.440        40
37.460        63
37.480        40
37.500        53
37.520        53
37.540        50
37.560        53
37.580        53
37.600        97
37.620        57
37.640        90
37.660        73
37.680        73
37.700        67
37.720        67
37.740       107
37.760       157
37.780       143
37.800       157
37.820       200
37.840       193
37.860       217
37.880       267
37.900       287
37.920       243
37.940       320
37.960       343
37.980       353
38.000       440
38.020       443
38.040       530
38.060       583
38.080       600
38.100       623
38.120       660
38.140       723
38.160       873
38.180       796
38.200      1000
38.220      1123
38.240      1220
38.260      1446
38.280      1599
38.300      1616
38.320      1679
38.340      1596
38.360      1389
38.380      1313
38.400      1073
38.420       996
38.440       766
38.460       573
38.480       456
38.500       343
38.520       250
38.540       207
38.560       133
38.580       120
38.600       133
38.620       130
38.640       110
38.660       113
38.680        70
38.700       103
38.720        83
38.740        70
38.760        77
38.780        97
38.800        57
38.820        77
38.840        43
38.860        63
38.880        50
38.900        53
38.920        43
38.940        70
38.960        70
38.980        50
39.000        73
39.020        50
39.040        63
39.060        53
39.080        37
39.100        50
39.120        30
39.140        27
39.160        30
39.180        50
39.200        67
39.220        53
39.240        37
39.260        40
39.280        33
39.300        37
39.320        40
39.340        53
39.360        27
39.380        23
39.400        53
39.420        27
39.440        23
39.460        20
39.480        37
39.500        23
39.520        30
39.540        20
39.560        33
39.580        50
39.600        33
39.620        37
39.640        50
39.660        47
39.680        47
39.700        33
39.720        40
39.740        27
39.760        27
39.780        33
39.800        30
39.820        23
39.840        50
39.860        33
39.880        33
39.900        43
39.920        60
39.940        63
39.960        73
39.980        57
40.000        77
40.020        50
40.040        83
40.060        80
40.080        47
40.100        60
40.120        40
40.140        40
40.160        63
40.180        50
40.200        37
40.220        20
40.240        57
40.260        33
40.280        27
40.300        33
40.320        27
40.340        20
40.360        37
40.380        23
40.400        20
40.420        20
40.440        30
40.460        30
40.480        27
40.500        20
40.520        33
40.540        23
40.560        23
40.580        27
40.600        33
40.620        30
40.640        50
40.660        20
40.680        53
40.700        33
40.720        20
40.740        27
40.760        20
40.780        27
40.800        27
40.820        27
40.840        27
40.860        33
40.880        30
40.900        20
40.920        23
40.940        33
40.960         7
40.980        20
41.000        27
41.020        30
41.040        20
41.060        13
41.080        43
41.100        23
41.120        27
41.140        20
41.160        47
41.180        27
41.200        23
41.220        20
41.240        23
41.260        33
41.280        37
41.300        23
41.320        37
41.340        37
41.360        50
41.380        27
41.400        30
41.420        20
41.440        23
41.460        17
41.480        13
41.500        43
41.520        37
41.540        20
41.560        43
41.580        47
41.600        27
41.620        43
41.640        37
41.660        57
41.680        70
41.700        47
41.720        53
41.740        50
41.760        47
41.780        43
41.800        73
41.820        50
41.840        43
41.860        10
41.880        37
41.900        50
41.920        33
41.940        23
41.960        17
41.980        37
42.000        20
42.020        13
42.040        40
42.060        23
42.080        40
42.100        47
42.120        23
42.140        37
42.160        17
42.180        23
42.200        20
42.220        20
42.240        33
42.260        10
42.280        20
42.300        27
42.320        30
42.340        27
42.360        27
42.380        43
42.400        27
42.420        33
42.440        23
42.460        17
42.480        33
42.500        17
42.520        20
42.540        27
42.560        33
42.580        20
42.600        27
42.620        37
42.640        20
42.660        27
42.680        30
42.700        60
42.720        17
42.740        33
42.760        30
42.780        13
42.800        27
42.820        27
42.840        53
42.860        33
42.880        43
42.900        33
42.920        40
42.940        57
42.960        37
42.980        53
43.000        37
43.020        63
43.040        37
43.060        40
43.080        47
43.100        47
43.120        60
43.140        57
43.160        50
43.180        67
43.200        47
43.220        47
43.240        63
43.260        80
43.280        50
43.300        53
43.320        60
43.340        70
43.360        83
43.380       113
43.400        90
43.420        80
43.440        90
43.460        63
43.480        60
43.500        77
43.520        67
43.540        83
43.560        70
43.580        53
43.600        90
43.620        70
43.640        77
43.660        77
43.680        73
43.700        70
43.720        87
43.740        77
43.760        57
43.780        73
43.800        80
43.820        87
43.840        80
43.860        83
43.880        87
43.900        87
43.920       153
43.940       107
43.960       107
43.980       127
44.000       133
44.020       203
44.040       203
44.060       197
44.080       210
44.100       250
44.120       290
44.140       287
44.160       320
44.180       363
44.200       397
44.220       456
44.240       500
44.260       653
44.280       650
44.300       776
44.320      1070
44.340      1103
44.360      1366
44.380      1559
44.400      2016
44.420      2499
44.440      3045
44.460      3832
44.480      4255
44.500      4705
44.520      5221
44.540      4975
44.560      4955
44.580      4315
44.600      4278
44.620      3928
44.640      3449
44.660      3002
44.680      2406
44.700      2019
44.720      1546
44.740      1226
44.760       863
44.780       676
44.800       570
44.820       450
44.840       353
44.860       263
44.880       267
44.900       200
44.920       197
44.940       190
44.960       100
44.980       180
45.000       133
45.020        90
45.040        83
45.060        80
45.080        93
45.100       103
45.120        93
45.140        97
45.160        93
45.180       123
45.200        67
45.220        73
45.240        63
45.260        67
45.280        60
45.300        47
45.320        60
45.340        83
45.360        67
45.380        87
45.400        47
45.420        70
45.440        57
45.460        63
45.480        53
45.500        43
45.520        50
45.540        37
45.560        53
45.580        47
45.600        30
45.620        40
45.640        37
45.660        50
45.680        53
45.700        30
45.720        37
45.740        43
45.760        33
45.780        50
45.800        13
45.820        37
45.840        40
45.860        33
45.880        37
45.900        53
45.920        43
45.940        33
45.960        50
45.980        40
46.000        43
46.020        37
46.040        47
46.060        23
46.080        27
46.100        37
46.120        37
46.140        43
46.160        23
46.180        43
46.200        27
46.220        37
46.240        43
46.260        30
46.280        23
46.300        40
46.320        20
46.340        30
46.360        23
46.380        47
46.400        30
46.420        33
46.440        30
46.460        20
46.480        27
46.500        40
46.520        33
46.540        27
46.560        47
46.580        47
46.600        27
46.620        53
46.640        47
46.660        20
46.680        20
46.700        43
46.720        43
46.740        17
46.760        47
46.780        37
46.800        33
46.820        23
46.840        40
46.860        30
46.880        40
46.900        23
46.920        37
46.940        37
46.960        40
46.980        50
47.000        23
47.020        40
47.040        17
47.060        30
47.080        30
47.100        57
47.120        37
47.140        23
47.160        30
47.180        27
47.200        27
47.220        33
47.240        30
47.260        23
47.280        23
47.300        13
47.320        23
47.340        23
47.360        10
47.380        30
47.400        23
47.420        23
47.440        13
47.460        27
47.480        30
47.500        27
47.520        13
47.540        23
47.560        27
47.580        23
47.600        37
47.620        40
47.640        23
47.660        13
47.680        17
47.700        30
47.720        47
47.740        27
47.760        30
47.780        10
47.800        30
47.820        17
47.840        20
47.860        20
47.880        13
47.900        30
47.920        27
47.940        30
47.960        40
47.980        23
48.000        23
48.020        13
48.040        13
48.060        33
48.080        30
48.100        43
48.120        40
48.140        40
48.160        30
48.180        17
48.200        40
48.220        20
48.240        20
48.260        13
48.280        23
48.300        27
48.320        27
48.340        30
48.360        43
48.380        37
48.400        20
48.420        37
48.440        23
48.460        20
48.480        23
48.500        17
48.520        27
48.540        30
48.560        20
48.580        20
48.600        37
48.620        20
48.640        27
48.660        13
48.680        27
48.700        30
48.720        33
48.740        37
48.760        20
48.780        30
48.800        20
48.820        20
48.840        20
48.860        30
48.880        40
48.900        43
48.920        30
48.940        30
48.960        30
48.980        20
49.000        30
49.020        20
49.040        10
49.060        17
49.080        27
49.100        33
49.120        27
49.140        33
49.160        17
49.180        33
49.200         7
49.220        17
49.240        17
49.260        17
49.280        17
49.300        23
49.320        23
49.340        27
49.360        23
49.380        20
49.400        23
49.420        17
49.440        13
49.460        10
49.480        20
49.500        17
49.520        30
49.540        27
49.560        20
49.580        13
49.600        27
49.620        20
49.640        13
49.660        17
49.680        13
49.700        27
49.720        37
49.740        30
49.760        30
49.780        13
49.800        27
49.820         7
49.840        37
49.860        17
49.880        13
49.900        20
49.920        30
49.940        10
49.960        20
49.980        43
50.000        17
50.020         7
50.040        20
50.060        17
50.080         7
50.100        27
50.120        20
50.140        23
50.160        20
50.180        37
50.200        17
50.220        27
50.240        13
50.260        17
50.280        23
50.300        13
50.320        37
50.340        30
50.360        10
50.380        30
50.400        23
50.420        33
50.440        27
50.460        40
50.480        17
50.500        30
50.520        20
50.540        33
50.560        17
50.580        10
50.600        27
50.620        10
50.640        20
50.660        23
50.680        27
50.700        17
50.720        23
50.740        13
50.760        27
50.780        10
50.800        37
50.820        13
50.840        20
50.860        33
50.880        23
50.900        20
50.920        47
50.940        10
50.960        27
50.980        17
51.000        40
51.020         7
51.040        53
51.060        27
51.080        33
51.100        20
51.120         7
51.140        33
51.160        33
51.180        33
51.200        23
51.220        30
51.240        13
51.260        13
51.280        17
51.300        20
51.320        10
51.340        27
51.360        13
51.380        13
51.400        20
51.420        23
51.440         3
51.460        27
51.480        27
51.500        33
51.520        20
51.540        37
51.560        13
51.580        20
51.600        13
51.620        10
51.640        33
51.660        13
51.680        23
51.700        27
51.720        13
51.740        27
51.760        23
51.780        20
51.800        17
51.820        23
51.840        23
51.860        27
51.880        13
51.900        27
51.920        13
51.940        13
51.960        23
51.980        20
52.000        17
52.020        23
52.040        10
52.060        17
52.080        17
52.100        10
52.120        23
52.140        30
52.160        23
52.180         7
52.200        20
52.220         3
52.240        13
52.260        17
52.280        10
52.300        10
52.320        13
52.340        30
52.360        13
52.380        17
52.400        23
52.420        17
52.440        23
52.460        27
52.480        40
52.500        17
52.520        33
52.540        63
52.560        47
52.580        33
52.600        27
52.620        50
52.640        43
52.660        27
52.680        10
52.700        33
52.720        30
52.740        30
52.760        20
52.780        23
52.800        23
52.820        10
52.840        17
52.860        10
52.880        13
52.900        20
52.920        37
52.940        13
52.960        13
52.980        27
53.000        13
53.020        17
53.040        33
53.060        20
53.080        23
53.100        23
53.120         7
53.140        10
53.160        17
53.180        10
53.200        17
53.220         7
53.240        17
53.260         7
53.280        23
53.300        27
53.320        17
53.340        13
53.360        20
53.380        20
53.400        17
53.420        17
53.440        20
53.460        23
53.480         7
53.500        27
53.520        13
53.540         7
53.560        23
53.580        13
53.600        30
53.620        13
53.640        17
53.660        23
53.680        10
53.700        20
53.720        27
53.740        20
53.760        20
53.780        13
53.800        20
53.820        17
53.840        13
53.860        20
53.880        20
53.900        27
53.920        10
53.940         3
53.960        13
53.980         3
54.000         7
54.020        13
54.040         3
54.060        13
54.080        20
54.100         0
54.120        23
54.140        20
54.160        20
54.180        10
54.200        20
54.220         7
54.240        30
54.260        10
54.280        13
54.300        23
54.320        17
54.340        17
54.360         7
54.380        20
54.400         7
54.420        17
54.440         7
54.460        27
54.480        17
54.500        13
54.520        20
54.540        33
54.560        20
54.580        13
54.600        33
54.620         7
54.640        23
54.660        23
54.680        20
54.700        20
54.720        20
54.740        23
54.760        13
54.780        13
54.800        13
54.820        10
54.840        30
54.860        30
54.880        27
54.900        30
54.920        33
54.940        17
54.960        20
54.980        27
55.000        23
55.020        13
55.040        27
55.060        20
55.080        23
55.100        27
55.120        23
55.140        43
55.160        60
55.180        43
55.200        63
55.220        63
55.240        57
55.260        73
55.280        73
55.300        93
55.320        70
55.340        67
55.360        50
55.380        70
55.400        50
55.420        67
55.440        63
55.460        67
55.480        47
55.500        43
55.520        57
55.540        37
55.560        20
55.580        17
55.600        20
55.620        20
55.640         7
55.660        17
55.680        13
55.700        17
55.720         7
55.740         3
55.760        13
55.780        13
55.800        20
55.820        33
55.840        30
55.860        27
55.880        17
55.900        13
55.920        23
55.940        27
55.960         7
55.980        10
56.000         7
56.020         7
56.040        30
56.060        27
56.080        20
56.100        13
56.120        13
56.140        17
56.160        10
56.180         7
56.200         7
56.220        10
56.240        13
56.260        13
56.280        13
56.300        10
56.320        17
56.340        20
56.360        23
56.380        10
56.400        17
56.420         3
56.440        13
56.460        30
56.480         7
56.500        13
56.520        23
56.540        13
56.560        17
56.580        20
56.600         7
56.620        17
56.640        10
56.660        13
56.680        17
56.700        20
56.720         7
56.740        17
56.760        13
56.780        10
56.800        17
56.820        20
56.840        13
56.860        10
56.880        20
56.900         3
56.920        13
56.940        23
56.960        17
56.980        13
57.000        17
57.020        13
57.040         3
57.060         0
57.080        33
57.100        30
57.120        20
57.140        17
57.160         7
57.180        23
57.200        17
57.220        13
57.240        13
57.260        10
57.280        20
57.300        20
57.320        13
57.340        20
57.360        27
57.380        17
57.400        43
57.420        60
57.440        40
57.460        30
57.480        63
57.500        77
57.520        77
57.540        97
57.560        97
57.580       127
57.600       107
57.620        37
57.640        40
57.660        53
57.680        63
57.700        67
57.720        67
57.740        50
57.760        23
57.780        30
57.800        33
57.820        17
57.840        20
57.860        27
57.880         7
57.900         7
57.920        20
57.940        17
57.960        10
57.980         7
58.000        17
58.020        20
58.040        10
58.060        13
58.080        13
58.100        20
58.120        10
58.140        23
58.160         7
58.180        17
58.200        13
58.220        13
58.240        17
58.260        20
58.280        17
58.300         7
58.320         7
58.340        10
58.360        13
58.380         3
58.400        13
58.420        10
58.440        27
58.460        27
58.480        17
58.500        10
58.520        17
58.540        20
58.560         0
58.580        20
58.600        20
58.620        10
58.640        10
58.660        10
58.680         3
58.700        13
58.720         7
58.740         7
58.760        10
58.780        20
58.800        17
58.820        20
58.840         7
58.860        13
58.880        23
58.900         7
58.920        13
58.940        13
58.960        10
58.980        10
59.000        13
59.020        13
59.040         3
59.060        13
59.080        10
59.100        10
59.120        10
59.140        20
59.160        10
59.180        10
59.200        13
59.220        13
59.240         7
59.260        13
59.280        17
59.300        13
59.320        23
59.340        17
59.360        27
59.380        13
59.400         7
59.420        20
59.440        13
59.460        13
59.480         3
59.500         7
59.520        10
59.540        23
59.560        23
59.580        10
59.600        20
59.620         7
59.640        10
59.660        13
59.680        20
59.700        10
59.720         3
59.740        20
59.760        17
59.780        13
59.800        10
59.820        20
59.840        10
59.860        13
59.880        13
59.900        27
59.920        13
59.940         0
59.960        20
59.980        10
60.000         7
