20.000         0
20.010         0
20.020        67
20.030        53
20.040        67
20.050        13
20.060        53
20.070       120
20.080        40
20.090        53
20.100        27
20.110        40
20.120        53
20.130        13
20.140        67
20.150        40
20.160        13
20.170        13
20.180        27
20.190        67
20.200        67
20.210        40
20.220        53
20.230        27
20.240        53
20.250        80
20.260        40
20.270        80
20.280        27
20.290        67
20.300        80
20.310        40
20.320        13
20.330        53
20.340        53
20.350        40
20.360       107
20.370        27
20.380        40
20.390        80
20.400        13
20.410        27
20.420        53
20.430        53
20.440        93
20.450        53
20.460        27
20.470        53
20.480        93
20.490        13
20.500        13
20.510        80
20.520        53
20.530        13
20.540        80
20.550        27
20.560        40
20.570        27
20.580        80
20.590        67
20.600        13
20.610        53
20.620        67
20.630        40
20.640        53
20.650        40
20.660        53
20.670        40
20.680        80
20.690        13
20.700        13
20.710        13
20.720        40
20.730        53
20.740        27
20.750        27
20.760        53
20.770        13
20.780        53
20.790        67
20.800        40
20.810       120
20.820        40
20.830        27
20.840        27
20.850        53
20.860        53
20.870        40
20.880        13
20.890        13
20.900        53
20.910        40
20.920        40
20.930        67
20.940        40
20.950        27
20.960        40
20.970        27
20.980        53
20.990        40
21.000        67
21.010        53
21.020        27
21.030       107
21.040        13
21.050        13
21.060        40
21.070        27
21.080        93
21.090        93
21.100        40
21.110        27
21.120        13
21.130        13
21.140        53
21.150        27
21.160         0
21.170        93
21.180        27
21.190        40
21.200        27
21.210        13
21.220        40
21.230        93
21.240        27
21.250        53
21.260        27
21.270        80
21.280        67
21.290        40
21.300       120
21.310        40
21.320        67
21.330        53
21.340        40
21.350        53
21.360        67
21.370        40
21.380        53
21.390        40
21.400        53
21.410        27
21.420        13
21.430        67
21.440        53
21.450        40
21.460         0
21.470         0
21.480        67
21.490        67
21.500        27
21.510        67
21.520        27
21.530        40
21.540        67
21.550        40
21.560        13
21.570        13
21.580        13
21.590        40
21.600        53
21.610        27
21.620        27
21.630        40
21.640        80
21.650        40
21.660        53
21.670        67
21.680        67
21.690        53
21.700        27
21.710        27
21.720        40
21.730        93
21.740        67
21.750        80
21.760        53
21.770        53
21.780        67
21.790        40
21.800       107
21.810        53
21.820        53
21.830        80
21.840        67
21.850       133
21.860        27
21.870        27
21.880       107
21.890        67
21.900       107
21.910        93
21.920        40
21.930       107
21.940        93
21.950        40
21.960        40
21.970       133
21.980       160
21.990       107
22.000        53
22.010        80
22.020        27
22.030        80
22.040        80
22.050        80
22.060        53
22.070        80
22.080       120
22.090        93
22.100        93
22.110        13
22.120        13
22.130        67
22.140        93
22.150        40
22.160        27
22.170        80
22.180        67
22.190        53
22.200        67
22.210        40
22.220        40
22.230        53
22.240       107
22.250        53
22.260        67
22.270        67
22.280        80
22.290        27
22.300        40
22.310        40
22.320        53
22.330        40
22.340        27
22.350        40
22.360        27
22.370        40
22.380        67
22.390        27
22.400        40
22.410        27
22.420        53
22.430        53
22.440        27
22.450        13
22.460        13
22.470         0
22.480        40
22.490        53
22.500        27
22.510        27
22.520        40
22.530        40
22.540        13
22.550        27
22.560        40
22.570       107
22.580        27
22.590        13
22.600        27
22.610        80
22.620        40
22.630        53
22.640        27
22.650        40
22.660        80
22.670        27
22.680        40
22.690        27
22.700        27
22.710        40
22.720        53
22.730        27
22.740        13
22.750        53
22.760        27
22.770        27
22.780        40
22.790        40
22.800        80
22.810        40
22.820       120
22.830        53
22.840         0
22.850        53
22.860        93
22.870        13
22.880        27
22.890        40
22.900        40
22.910        27
22.920        53
22.930        53
22.940        27
22.950        67
22.960        40
22.970        27
22.980        67
22.990        53
23.000        27
23.010        40
23.020        40
23.030        40
23.040        27
23.050        53
23.060        27
23.070        27
23.080        40
23.090        13
23.100        53
23.110        67
23.120        93
23.130       120
23.140        27
23.150        27
23.160        40
23.170        27
23.180        27
23.190        13
23.200        27
23.210        27
23.220        40
23.230        53
23.240        93
23.250        13
23.260        40
23.270        40
23.280        67
23.290        13
23.300        53
23.310        13
23.320        53
23.330        53
23.340        40
23.350        67
23.360        53
23.370        53
23.380        53
23.390        27
23.400        40
23.410        27
23.420        67
23.430        40
23.440        13
23.450        53
23.460        27
23.470        53
23.480        27
23.490        53
23.500        53
23.510        40
23.520        27
23.530        80
23.540         0
23.550        13
23.560        67
23.570        27
23.580        27
23.590        40
23.600        40
23.610        27
23.620         0
23.630        53
23.640        67
23.650        53
23.660        53
23.670        27
23.680        53
23.690         0
23.700        53
23.710        13
23.720        67
23.730        27
23.740        27
23.750        13
23.760        40
23.770        13
23.780        67
23.790        67
23.800        40
23.810        40
23.820        27
23.830        40
23.840        27
23.850        80
23.860        27
23.870        27
23.880        40
23.890        53
23.900        27
23.910        40
23.920        67
23.930        27
23.940        40
23.950        13
23.960        27
23.970         0
23.980        53
23.990         0
24.000        13
24.010         0
24.020        27
24.030        27
24.040        40
24.050         0
24.060        27
24.070        67
24.080        27
24.090        67
24.100        13
24.110        40
24.120        27
24.130        27
24.140        53
24.150        93
24.160        40
24.170        40
24.180        40
24.190        13
24.200        13
24.210        27
24.220        13
24.230        67
24.240        80
24.250        27
24.260        67
24.270        27
24.280         0
24.290        53
24.300        53
24.310        27
24.320        27
24.330        13
24.340        13
24.350        13
24.360        27
24.370        40
24.380        13
24.390        67
24.400        13
24.410        13
24.420        40
24.430        53
24.440        13
24.450        93
24.460        27
24.470        13
24.480        40
24.490        53
24.500        27
24.510        27
24.520        13
24.530        67
24.540        27
24.550         0
24.560        13
24.570        13
24.580         0
24.590        13
24.600         0
24.610         0
24.620        27
24.630        27
24.640        13
24.650        27
24.660        27
24.670        40
24.680        27
24.690        40
24.700        40
24.710        27
24.720        13
24.730        27
24.740        40
24.750        13
24.760         0
24.770        80
24.780        27
24.790        53
24.800        40
24.810        40
24.820        40
24.830        27
24.840        27
24.850        27
24.860        40
24.870        27
24.880        40
24.890        53
24.900        13
24.910        27
24.920        67
24.930        13
24.940        13
24.950        93
24.960        27
24.970        40
24.980        27
24.990        27
25.000        53
25.010        27
25.020        80
25.030        27
25.040        67
25.050        13
25.060        80
25.070        13
25.080        40
25.090        40
25.100        40
25.110        67
25.120        53
25.130        53
25.140        13
25.150        67
25.160        13
25.170        53
25.180        40
25.190        80
25.200         0
25.210        67
25.220        40
25.230        13
25.240        27
25.250        40
25.260        13
25.270        13
25.280        40
25.290        27
25.300        13
25.310        13
25.320        40
25.330        27
25.340        27
25.350        40
25.360        13
25.370        93
25.380        53
25.390        27
25.400        40
25.410        80
25.420        40
25.430        53
25.440        40
25.450        67
25.460        67
25.470        93
25.480        67
25.490        80
25.500        93
25.510        67
25.520        93
25.530        53
25.540        67
25.550       107
25.560        53
25.570       133
25.580       107
25.590        27
25.600        40
25.610        40
25.620       107
25.630        53
25.640        53
25.650        53
25.660        27
25.670        40
25.680        67
25.690        40
25.700        27
25.710        13
25.720        27
25.730         0
25.740        40
25.750        27
25.760        13
25.770        40
25.780        53
25.790        40
25.800        67
25.810        13
25.820        13
25.830        40
25.840        13
25.850        13
25.860        27
25.870        40
25.880        13
25.890        67
25.900        67
25.910        40
25.920        67
25.930        40
25.940        13
25.950        27
25.960        27
25.970        53
25.980        27
25.990        80
26.000        13
26.010        13
26.020         0
26.030        27
26.040        40
26.050        67
26.060        13
26.070        40
26.080        27
26.090        13
26.100        53
26.110        13
26.120        27
26.130        13
26.140        80
26.150        80
26.160        27
26.170        40
26.180        40
26.190        67
26.200        13
26.210        53
26.220        40
26.230        40
26.240        40
26.250        13
26.260        27
26.270        40
26.280        27
26.290        53
26.300        40
26.310         0
26.320        27
26.330        27
26.340        40
26.350        40
26.360        27
26.370        40
26.380         0
26.390        40
26.400        27
26.410        27
26.420        27
26.430        27
26.440        53
26.450        53
26.460        40
26.470        53
26.480        13
26.490        67
26.500       107
26.510        40
26.520        67
26.530        53
26.540       120
26.550        93
26.560        80
26.570        67
26.580        53
26.590        80
26.600        13
26.610       107
26.620        80
26.630        40
26.640        80
26.650       107
26.660        80
26.670        80
26.680       120
26.690        67
26.700        53
26.710        53
26.720        67
26.730        80
26.740        67
26.750        67
26.760        40
26.770         0
26.780        80
26.790        67
26.800        40
26.810        53
26.820        80
26.830        40
26.840        67
26.850        53
26.860        40
26.870        53
26.880        53
26.890        80
26.900        13
26.910        53
26.920        13
26.930        67
26.940        80
26.950        40
26.960        40
26.970       107
26.980        13
26.990        13
27.000        13
27.010        40
27.020        27
27.030        13
27.040        13
27.050        13
27.060        27
27.070        53
27.080        53
27.090         0
27.100        67
27.110         0
27.120         0
27.130        40
27.140        40
27.150        80
27.160        27
27.170        53
27.180        53
27.190        13
27.200         0
27.210         0
27.220        13
27.230        13
27.240        40
27.250        67
27.260        40
27.270        13
27.280        40
27.290        27
27.300        27
27.310        40
27.320        27
27.330        27
27.340        27
27.350        13
27.360        53
27.370       107
27.380        13
27.390        80
27.400        40
27.410        13
27.420        80
27.430        13
27.440        27
27.450        27
27.460        13
27.470        13
27.480        40
27.490        40
27.500        40
27.510        40
27.520        13
27.530        13
27.540        40
27.550        13
27.560        27
27.570        40
27.580        67
27.590        67
27.600        53
27.610        27
27.620        67
27.630         0
27.640        40
27.650        40
27.660        53
27.670        27
27.680         0
27.690         0
27.700        27
27.710        40
27.720        67
27.730        93
27.740        67
27.750        13
27.760        67
27.770        40
27.780        27
27.790        53
27.800        53
27.810        27
27.820        67
27.830        13
27.840        27
27.850        40
27.860        13
27.870        53
27.880        13
27.890        27
27.900        40
27.910        13
27.920        27
27.930        27
27.940        40
27.950        27
27.960        27
27.970        27
27.980        27
27.990         0
28.000        40
28.010        13
28.020        53
28.030        67
28.040        13
28.050        40
28.060        27
28.070        53
28.080        80
28.090        27
28.100        13
28.110        13
28.120        27
28.130        40
28.140        67
28.150        53
28.160         0
28.170        53
28.180        27
28.190        13
28.200        53
28.210        27
28.220        27
28.230         0
28.240        13
28.250        53
28.260        27
28.270        40
28.280        13
28.290        13
28.300        27
28.310        40
28.320        13
28.330        13
28.340        40
28.350        27
28.360         0
28.370        27
28.380        40
28.390        53
28.400        13
28.410        27
28.420        40
28.430        40
28.440        27
28.450        13
28.460        13
28.470        67
28.480        27
28.490        27
28.500        27
28.510        13
28.520        27
28.530        40
28.540        27
28.550        40
28.560        13
28.570        13
28.580        27
28.590        40
28.600        53
28.610        67
28.620        40
28.630        67
28.640        13
28.650        40
28.660         0
28.670        53
28.680        27
28.690        53
28.700        40
28.710        40
28.720        80
28.730         0
28.740        40
28.750        27
28.760        13
28.770        13
28.780        27
28.790        53
28.800        13
28.810        67
28.820        27
28.830        40
28.840        13
28.850        40
28.860        27
28.870         0
28.880        53
28.890         0
28.900        40
28.910        13
28.920        27
28.930        53
28.940        13
28.950        13
28.960        13
28.970        13
28.980        27
28.990         0
29.000        40
29.010        27
29.020        27
29.030         0
29.040        40
29.050         0
29.060        53
29.070        40
29.080        67
29.090        13
29.100        40
29.110        27
29.120        27
29.130        67
29.140        40
29.150        13
29.160        27
29.170        40
29.180        27
29.190        53
29.200        13
29.210        53
29.220        13
29.230        53
29.240        40
29.250        27
29.260        40
29.270        53
29.280        27
29.290        53
29.300        27
29.310        27
29.320        67
29.330        13
29.340        53
29.350        27
29.360        53
29.370        27
29.380        13
29.390        40
29.400        27
29.410        27
29.420        67
29.430         0
29.440        40
29.450        13
29.460        27
29.470         0
29.480        13
29.490        27
29.500         0
29.510        27
29.520        27
29.530        13
29.540        13
29.550        53
29.560        40
29.570        27
29.580        13
29.590        13
29.600        27
29.610        27
29.620        40
29.630         0
29.640        53
29.650        27
29.660        40
29.670        27
29.680        27
29.690        40
29.700        40
29.710        40
29.720        53
29.730        27
29.740        27
29.750        27
29.760        67
29.770        27
29.780        13
29.790        53
29.800        53
29.810        53
29.820        13
29.830        13
29.840        53
29.850        40
29.860        27
29.870        27
29.880         0
29.890        13
29.900        27
29.910        27
29.920        53
29.930         0
29.940        80
29.950        27
29.960        13
29.970        53
29.980        40
29.990         0
30.000        67
30.010        13
30.020        40
30.030        40
30.040        40
30.050        27
30.060        27
30.070         0
30.080        13
30.090        27
30.100        27
30.110        27
30.120        13
30.130        13
30.140        13
30.150         0
30.160        13
30.170        80
30.180        27
30.190         0
30.200         0
30.210        80
30.220        40
30.230        13
30.240        27
30.250        13
30.260        53
30.270        13
30.280         0
30.290        13
30.300        93
30.310        27
30.320        27
30.330         0
30.340        40
30.350        13
30.360        27
30.370        53
30.380        27
30.390        40
30.400        13
30.410        27
30.420        27
30.430        40
30.440        13
30.450        40
30.460        40
30.470        13
30.480        40
30.490        53
30.500        13
30.510        40
30.520        40
30.530        40
30.540        13
30.550        40
30.560        13
30.570        27
30.580        40
30.590        40
30.600        40
30.610        27
30.620        27
30.630        27
30.640        13
30.650        13
30.660        40
30.670         0
30.680        53
30.690        40
30.700        40
30.710        27
30.720         0
30.730       107
30.740        53
30.750        40
30.760        27
30.770        13
30.780        40
30.790        93
30.800        27
30.810        40
30.820        67
30.830        27
30.840        93
30.850        53
30.860        53
30.870        80
30.880        67
30.890        67
30.900        40
30.910        53
30.920        53
30.930        80
30.940        67
30.950       120
30.960        53
30.970       107
30.980        53
30.990       107
31.000        53
31.010       133
31.020        80
31.030        27
31.040        93
31.050        93
31.060       133
31.070       133
31.080       147
31.090       187
31.100       200
31.110       133
31.120       173
31.130       280
31.140       240
31.150       213
31.160       307
31.170       253
31.180       240
31.190       293
31.200       387
31.210       213
31.220       400
31.230       333
31.240       387
31.250       347
31.260       307
31.270       440
31.280       347
31.290       253
31.300       267
31.310       320
31.320       267
31.330       400
31.340       253
31.350       160
31.360       320
31.370       213
31.380       213
31.390       267
31.400       160
31.410       187
31.420       147
31.430       120
31.440       133
31.450        80
31.460       120
31.470       120
31.480       107
31.490        80
31.500        80
31.510        27
31.520        80
31.530        80
31.540        53
31.550        67
31.560        67
31.570        53
31.580        13
31.590        67
31.600        53
31.610        53
31.620        27
31.630       107
31.640        40
31.650        27
31.660        27
31.670        80
31.680        27
31.690        53
31.700        67
31.710        40
31.720        53
31.730        40
31.740        53
31.750        40
31.760         0
31.770        53
31.780        53
31.790        67
31.800        40
31.810        53
31.820        80
31.830        40
31.840        93
31.850        53
31.860        53
31.870        40
31.880        13
31.890        40
31.900        40
31.910        40
31.920        93
31.930        40
31.940        53
31.950        40
31.960        40
31.970        40
31.980        40
31.990        13
32.000        13
32.010        13
32.020        13
32.030        27
32.040        13
32.050        13
32.060        53
32.070         0
32.080        67
32.090        27
32.100        40
32.110        13
32.120        13
32.130        13
32.140        13
32.150        27
32.160        13
32.170        27
32.180        40
32.190        27
32.200        27
32.210        53
32.220        13
32.230        27
32.240        27
32.250         0
32.260        13
32.270        40
32.280        13
32.290         0
32.300         0
32.310        13
32.320        27
32.330        13
32.340        53
32.350        93
32.360        40
32.370        27
32.380        53
32.390        13
32.400        27
32.410       107
32.420        13
32.430        27
32.440        40
32.450        53
32.460        27
32.470        40
32.480        27
32.490        80
32.500        80
32.510        13
32.520        27
32.530        53
32.540        27
32.550        53
32.560        40
32.570        13
32.580         0
32.590        13
32.600        27
32.610        27
32.620        13
32.630        40
32.640        27
32.650        53
32.660        40
32.670        13
32.680        40
32.690        13
32.700        27
32.710        27
32.720        13
32.730        27
32.740        40
32.750        40
32.760        40
32.770        13
32.780         0
32.790        27
32.800        13
32.810        27
32.820         0
32.830        13
32.840         0
32.850         0
32.860         0
32.870        27
32.880        27
32.890        40
32.900        27
32.910         0
32.920        27
32.930        53
32.940        53
32.950        13
32.960        27
32.970        40
32.980        40
32.990        27
33.000        27
33.010        67
33.020        13
33.030        13
33.040        53
33.050        13
33.060         0
33.070        13
33.080        40
33.090        13
33.100        13
33.110        27
33.120        13
33.130        27
33.140        13
33.150        53
33.160         0
33.170        27
33.180        13
33.190         0
33.200        13
33.210        13
33.220        13
33.230        40
33.240        27
33.250        40
33.260        27
33.270        40
33.280         0
33.290        27
33.300        67
33.310        27
33.320        67
33.330         0
33.340        13
33.350        13
33.360        13
33.370        67
33.380        27
33.390        13
33.400         0
33.410         0
33.420        13
33.430        13
33.440        27
33.450        27
33.460        13
33.470         0
33.480        13
33.490         0
33.500        53
33.510         0
33.520        27
33.530        53
33.540        13
33.550        27
33.560         0
33.570        13
33.580        40
33.590        67
33.600        27
33.610        27
33.620        40
33.630        13
33.640        27
33.650        27
33.660        53
33.670        27
33.680        40
33.690        13
33.700        27
33.710        53
33.720        40
33.730         0
33.740        13
33.750        27
33.760        40
33.770        53
33.780        40
33.790        40
33.800        27
33.810         0
33.820        53
33.830        27
33.840        13
33.850        53
33.860         0
33.870        53
33.880        93
33.890        40
33.900        40
33.910        67
33.920        27
33.930        13
33.940        13
33.950        40
33.960        40
33.970        27
33.980        40
33.990        53
34.000        80
34.010        40
34.020        53
34.030        67
34.040       107
34.050        80
34.060        67
34.070        27
34.080        40
34.090        27
34.100        40
34.110        40
34.120        80
34.130        80
34.140         0
34.150        67
34.160        67
34.170        80
34.180        67
34.190        80
34.200        27
34.210        40
34.220        53
34.230        53
34.240        40
34.250        53
34.260        13
34.270        40
34.280        53
34.290        27
34.300        53
34.310        67
34.320        53
34.330        40
34.340        40
34.350        27
34.360        27
34.370        53
34.380        13
34.390        53
34.400        40
34.410         0
34.420        13
34.430        27
34.440        93
34.450        40
34.460        13
34.470        13
34.480        27
34.490        40
34.500        13
34.510        27
34.520        27
34.530         0
34.540        67
34.550        27
34.560        40
34.570        13
34.580        40
34.590        53
34.600        40
34.610        40
34.620        27
34.630        53
34.640        13
34.650        13
34.660        13
34.670        67
34.680        27
34.690        27
34.700        40
34.710        27
34.720         0
34.730        13
34.740        27
34.750        13
34.760        40
34.770        40
34.780        40
34.790        40
34.800        27
34.810        27
34.820        27
34.830        40
34.840        13
34.850        53
34.860        13
34.870        13
34.880        40
34.890        40
34.900        27
34.910        13
34.920         0
34.930        13
34.940        13
34.950        40
34.960        27
34.970        53
34.980        40
34.990        53
35.000        27
35.010        53
35.020        67
35.030        93
35.040        80
35.050        67
35.060        13
35.070        53
35.080        93
35.090        40
35.100        67
35.110        40
35.120        40
35.130       147
35.140       107
35.150       200
35.160       107
35.170       160
35.180       160
35.190       187
35.200       187
35.210       213
35.220       187
35.230       173
35.240       147
35.250       120
35.260        93
35.270       107
35.280       200
35.290        93
35.300        53
35.310       133
35.320        67
35.330        67
35.340        53
35.350        53
35.360         0
35.370        80
35.380        53
35.390        13
35.400        40
35.410        27
35.420        40
35.430        13
35.440         0
35.450        13
35.460        67
35.470         0
35.480        27
35.490        13
35.500        27
35.510        27
35.520        13
35.530        27
35.540        27
35.550         0
35.560        40
35.570         0
35.580        53
35.590        40
35.600         0
35.610        40
35.620        40
35.630         0
35.640        40
35.650        13
35.660        53
35.670        13
35.680        27
35.690         0
35.700        13
35.710        67
35.720        40
35.730        40
35.740        40
35.750         0
35.760        13
35.770        27
35.780        27
35.790         0
35.800        13
35.810        27
35.820        40
35.830        40
35.840        13
35.850         0
35.860        53
35.870        40
35.880        13
35.890        13
35.900        13
35.910        40
35.920         0
35.930        27
35.940        53
35.950        27
35.960         0
35.970        27
35.980        40
35.990         0
36.000         0
36.010         0
36.020         0
36.030         0
36.040        27
36.050        27
36.060        40
36.070        53
36.080         0
36.090        13
36.100        27
36.110         0
36.120        27
36.130        13
36.140        13
36.150        27
36.160        27
36.170         0
36.180        27
36.190        13
36.200        13
36.210         0
36.220        13
36.230        13
36.240        13
36.250         0
36.260        27
36.270         0
36.280        27
36.290        40
36.300        27
36.310        27
36.320        27
36.330        13
36.340        53
36.350        40
36.360        40
36.370        40
36.380        27
36.390        27
36.400        13
36.410        27
36.420         0
36.430        13
36.440        13
36.450        13
36.460        13
36.470        40
36.480        40
36.490        13
36.500        40
36.510        27
36.520        13
36.530        13
36.540        27
36.550        27
36.560        27
36.570        67
36.580        27
36.590         0
36.600        40
36.610        13
36.620        27
36.630         0
36.640        27
36.650        40
36.660        13
36.670        27
36.680        13
36.690        27
36.700        40
36.710         0
36.720        27
36.730        27
36.740        27
36.750         0
36.760        27
36.770         0
36.780         0
36.790        13
36.800        13
36.810        40
36.820        27
36.830         0
36.840        27
36.850        40
36.860        53
36.870        13
36.880        27
36.890        40
36.900         0
36.910         0
36.920        53
36.930        13
36.940        27
36.950        27
36.960        13
36.970        13
36.980        27
36.990        13
37.000        13
37.010        27
37.020        53
37.030        13
37.040        27
37.050         0
37.060         0
37.070        40
37.080        27
37.090        13
37.100        53
37.110        40
37.120         0
37.130        53
37.140        40
37.150        13
37.160        40
37.170        13
37.180        27
37.190        13
37.200        27
37.210        53
37.220        27
37.230         0
37.240        27
37.250        13
37.260        13
37.270        67
37.280        40
37.290        27
37.300        27
37.310        67
37.320         0
37.330        53
37.340         0
37.350        27
37.360        27
37.370        27
37.380        13
37.390        27
37.400        40
37.410        27
37.420        13
37.430        27
37.440        13
37.450        13
37.460        27
37.470        27
37.480        53
37.490         0
37.500        27
37.510        13
37.520        53
37.530        27
37.540        53
37.550        27
37.560        93
37.570         0
37.580        40
37.590        27
37.600        27
37.610        13
37.620        27
37.630        40
37.640        40
37.650        40
37.660         0
37.670        27
37.680        40
37.690        67
37.700        53
37.710        27
37.720        53
37.730        27
37.740         0
37.750        67
37.760        53
37.770        40
37.780        13
37.790        80
37.800        27
37.810        67
37.820        40
37.830        93
37.840        80
37.850        67
37.860       133
37.870        53
37.880        67
37.890       120
37.900       107
37.910        53
37.920        53
37.930        40
37.940       120
37.950        53
37.960        67
37.970         0
37.980        67
37.990        40
38.000        53
38.010        40
38.020        53
38.030        13
38.040        67
38.050       147
38.060        67
38.070       107
38.080        80
38.090        80
38.100       147
38.110       107
38.120       107
38.130        80
38.140       187
38.150       173
38.160       120
38.170       200
38.180       147
38.190       133
38.200       187
38.210       240
38.220        53
38.230       213
38.240       240
38.250       200
38.260       147
38.270       253
38.280       227
38.290       280
38.300       267
38.310       293
38.320       307
38.330       240
38.340       293
38.350       440
38.360       333
38.370       400
38.380       320
38.390       373
38.400       360
38.410       307
38.420       320
38.430       307
38.440       360
38.450       227
38.460       360
38.470       293
38.480       147
38.490       373
38.500       347
38.510       173
38.520       267
38.530       320
38.540       253
38.550       160
38.560       173
38.570       133
38.580       213
38.590       240
38.600       133
38.610       213
38.620       160
38.630        93
38.640       133
38.650       160
38.660       173
38.670       173
38.680       147
38.690        93
38.700        80
38.710        67
38.720       160
38.730        40
38.740        27
38.750        40
38.760        27
38.770        40
38.780        67
38.790        80
38.800        53
38.810        93
38.820        53
38.830        53
38.840        40
38.850       107
38.860        67
38.870        80
38.880        13
38.890        80
38.900        53
38.910        67
38.920        67
38.930        67
38.940        27
38.950        27
38.960        67
38.970        40
38.980        40
38.990         0
39.000        40
39.010        40
39.020        27
39.030        27
39.040        67
39.050        27
39.060        27
39.070         0
39.080        53
39.090        53
39.100        53
39.110        40
39.120        27
39.130        13
39.140        13
39.150        40
39.160        80
39.170        13
39.180        13
39.190        27
39.200        67
39.210        27
39.220        40
39.230        13
39.240        80
39.250        13
39.260        40
39.270        13
39.280        27
39.290        13
39.300        27
39.310        40
39.320        13
39.330        13
39.340        53
39.350        40
39.360        27
39.370        40
39.380        13
39.390        27
39.400        13
39.410        27
39.420        13
39.430        27
39.440        13
39.450         0
39.460        27
39.470        53
39.480        27
39.490        53
39.500        53
39.510        13
39.520        13
39.530        40
39.540        40
39.550        93
39.560        80
39.570        53
39.580        27
39.590        40
39.600        40
39.610        27
39.620        27
39.630        40
39.640        27
39.650        27
39.660         0
39.670        40
39.680        13
39.690        13
39.700        27
39.710         0
39.720        53
39.730        13
39.740        27
39.750        40
39.760        13
39.770        27
39.780        53
39.790        40
39.800        13
39.810        40
39.820        13
39.830        80
39.840        40
39.850        27
39.860        13
39.870        40
39.880        27
39.890        67
39.900        40
39.910        27
39.920        27
39.930        27
39.940         0
39.950        13
39.960        27
39.970         0
39.980        53
39.990         0
40.000        13
40.010        40
40.020        27
40.030        53
40.040         0
40.050        53
40.060        40
40.070        13
40.080        13
40.090        27
40.100        40
40.110        27
40.120        27
40.130        13
40.140        53
40.150        13
40.160        13
40.170        27
40.180        27
40.190         0
40.200        13
40.210         0
40.220        27
40.230        27
40.240        27
40.250        13
40.260         0
40.270        67
40.280        13
40.290        67
40.300        40
40.310        40
40.320        13
40.330        40
40.340        13
40.350        27
40.360        13
40.370         0
40.380        40
40.390        27
40.400        53
40.410        40
40.420        13
40.430        27
40.440        13
40.450        27
40.460        13
40.470        13
40.480        40
40.490        40
40.500        40
40.510        13
40.520        27
40.530        27
40.540        13
40.550        13
40.560         0
40.570        27
40.580        13
40.590         0
40.600        13
40.610        27
40.620        40
40.630        67
40.640        13
40.650         0
40.660        53
40.670        27
40.680        13
40.690        40
40.700        13
40.710        13
40.720        27
40.730        27
40.740        13
40.750         0
40.760        13
40.770        40
40.780        27
40.790        40
40.800        27
40.810        40
40.820        13
40.830        27
40.840        13
40.850        13
40.860        80
40.870        13
40.880        13
40.890        27
40.900        40
40.910        13
40.920         0
40.930        53
40.940         0
40.950        40
40.960        13
40.970        13
40.980         0
40.990         0
41.000        13
41.010         0
41.020        27
41.030        27
41.040         0
41.050         0
41.060         0
41.070        27
41.080        13
41.090        27
41.100        53
41.110        13
41.120        13
41.130        67
41.140        13
41.150        40
41.160        40
41.170        13
41.180        27
41.190        40
41.200        40
41.210        27
41.220        53
41.230        40
41.240         0
41.250        13
41.260        13
41.270        27
41.280        27
41.290        13
41.300        40
41.310        13
41.320        27
41.330        27
41.340         0
41.350        40
41.360        13
41.370        13
41.380         0
41.390        13
41.400        13
41.410        27
41.420        27
41.430        53
41.440        13
41.450         0
41.460        27
41.470         0
41.480         0
41.490        40
41.500        13
41.510        13
41.520        13
41.530         0
41.540        40
41.550        67
41.560        13
41.570        80
41.580        53
41.590        13
41.600        13
41.610         0
41.620        40
41.630        27
41.640        40
41.650        27
41.660        40
41.670        40
41.680        13
41.690        13
41.700        53
41.710        53
41.720        40
41.730        27
41.740        40
41.750        53
41.760        40
41.770        40
41.780        40
41.790        13
41.800        40
41.810        27
41.820        27
41.830        40
41.840        67
41.850        40
41.860         0
41.870        53
41.880        27
41.890        53
41.900        13
41.910        13
41.920        13
41.930        13
41.940        40
41.950        27
41.960        27
41.970         0
41.980        13
41.990         0
42.000        13
42.010        67
42.020        40
42.030        40
42.040        13
42.050        40
42.060        27
42.070        13
42.080        27
42.090         0
42.100        13
42.110         0
42.120        40
42.130        13
42.140         0
42.150        13
42.160         0
42.170        27
42.180         0
42.190        13
42.200        13
42.210         0
42.220        27
42.230        13
42.240        27
42.250         0
42.260        13
42.270         0
42.280         0
42.290        13
42.300         0
42.310        27
42.320        13
42.330        13
42.340        27
42.350        27
42.360         0
42.370        40
42.380        27
42.390        13
42.400        27
42.410         0
42.420        13
42.430         0
42.440        53
42.450        27
42.460         0
42.470        13
42.480        13
42.490        27
42.500        13
42.510        40
42.520         0
42.530         0
42.540        13
42.550        13
42.560        40
42.570        13
42.580         0
42.590         0
42.600        53
42.610         0
42.620        27
42.630        67
42.640        53
42.650        80
42.660         0
42.670        27
42.680        13
42.690         0
42.700         0
42.710         0
42.720        27
42.730        53
42.740        13
42.750        13
42.760        67
42.770         0
42.780        13
42.790        13
42.800        13
42.810        27
42.820         0
42.830        40
42.840         0
42.850        40
42.860        53
42.870         0
42.880        40
42.890        27
42.900        13
42.910        13
42.920        13
42.930        27
42.940        13
42.950         0
42.960        27
42.970         0
42.980        13
42.990        27
43.000        13
43.010        40
43.020        13
43.030        13
43.040        13
43.050         0
43.060        40
43.070        53
43.080        27
43.090        27
43.100        27
43.110        13
43.120        13
43.130         0
43.140        27
43.150        27
43.160        27
43.170        13
43.180         0
43.190        13
43.200        40
43.210         0
43.220        13
43.230        13
43.240        27
43.250        27
43.260        40
43.270        67
43.280        27
43.290        27
43.300        40
43.310        40
43.320        53
43.330        40
43.340        67
43.350        40
43.360        80
43.370        93
43.380       173
43.390        67
43.400       147
43.410       133
43.420       120
43.430        67
43.440        80
43.450        93
43.460       120
43.470       120
43.480        67
43.490        93
43.500       187
43.510       107
43.520        80
43.530        93
43.540        13
43.550        13
43.560        40
43.570        67
43.580        67
43.590        53
43.600        40
43.610        13
43.620         0
43.630        40
43.640        67
43.650        13
43.660        13
43.670        67
43.680        27
43.690        13
43.700        40
43.710        40
43.720        13
43.730        13
43.740        53
43.750        27
43.760        27
43.770        27
43.780        40
43.790        27
43.800        13
43.810         0
43.820        13
43.830         0
43.840        13
43.850        40
43.860        13
43.870        13
43.880         0
43.890        27
43.900        13
43.910        27
43.920        27
43.930        13
43.940        13
43.950        13
43.960        27
43.970         0
43.980        53
43.990        27
44.000         0
44.010       107
44.020         0
44.030        40
44.040        40
44.050        53
44.060        40
44.070        13
44.080        40
44.090        27
44.100        40
44.110         0
44.120        13
44.130        40
44.140        27
44.150        13
44.160        13
44.170        27
44.180        27
44.190        13
44.200        40
44.210        40
44.220        40
44.230        27
44.240        67
44.250        27
44.260        40
44.270         0
44.280        53
44.290        27
44.300        40
44.310        40
44.320        67
44.330        27
44.340        53
44.350       107
44.360        80
44.370        40
44.380       107
44.390        53
44.400        40
44.410       107
44.420        67
44.430       107
44.440        80
44.450       120
44.460       107
44.470        93
44.480        53
44.490       120
44.500        80
44.510       133
44.520        80
44.530        80
44.540       120
44.550       107
44.560       107
44.570        93
44.580        93
44.590       173
44.600       133
44.610       227
44.620       200
44.630       120
44.640        93
44.650       227
44.660       147
44.670       147
44.680       133
44.690       107
44.700       240
44.710       280
44.720       200
44.730       187
44.740       280
44.750       213
44.760       320
44.770       373
44.780       280
44.790       320
44.800       253
44.810       267
44.820       213
44.830       293
44.840       333
44.850       293
44.860       240
44.870       227
44.880       267
44.890       240
44.900       293
44.910       227
44.920       173
44.930       253
44.940       280
44.950       253
44.960       173
44.970       267
44.980       240
44.990       133
45.000       227
45.010       173
45.020       187
45.030       133
45.040       187
45.050        80
45.060        53
45.070       147
45.080       147
45.090        80
45.100        80
45.110        27
45.120        93
45.130        80
45.140        40
45.150        40
45.160        40
45.170        27
45.180        80
45.190        80
45.200        93
45.210        67
45.220        67
45.230        67
45.240        13
45.250        53
45.260        80
45.270        27
45.280        27
45.290        40
45.300         0
45.310        13
45.320        13
45.330        13
45.340        53
45.350        40
45.360        13
45.370        13
45.380        40
45.390         0
45.400        13
45.410        27
45.420        27
45.430        27
45.440        13
45.450        40
45.460        13
45.470        13
45.480        27
45.490        53
45.500        13
45.510        13
45.520        80
45.530        40
45.540        27
45.550        13
45.560         0
45.570        27
45.580        13
45.590        13
45.600        13
45.610        13
45.620        40
45.630        13
45.640         0
45.650        40
45.660        13
45.670        13
45.680        13
45.690         0
45.700        27
45.710        40
45.720        40
45.730        40
45.740         0
45.750        27
45.760        13
45.770        27
45.780        40
45.790        13
45.800        13
45.810        40
45.820        27
45.830        13
45.840        27
45.850        13
45.860        40
45.870        13
45.880        27
45.890        13
45.900        13
45.910        40
45.920        13
45.930         0
45.940        13
45.950        40
45.960        40
45.970        40
45.980        27
45.990        27
46.000        27
46.010        27
46.020        27
46.030        13
46.040        27
46.050        27
46.060        13
46.070        27
46.080        27
46.090        13
46.100        40
46.110        27
46.120        13
46.130        13
46.140        40
46.150         0
46.160        13
46.170        13
46.180         0
46.190        13
46.200        13
46.210         0
46.220        13
46.230         0
46.240        40
46.250        13
46.260        13
46.270        27
46.280        27
46.290        27
46.300        13
46.310        13
46.320        13
46.330         0
46.340         0
46.350         0
46.360        40
46.370        13
46.380        13
46.390         0
46.400        13
46.410         0
46.420         0
46.430         0
46.440        13
46.450        27
46.460         0
46.470        27
46.480        13
46.490        53
46.500        13
46.510         0
46.520        13
46.530         0
46.540         0
46.550        27
46.560        13
46.570         0
46.580        53
46.590        53
46.600         0
46.610        67
46.620         0
46.630        27
46.640         0
46.650        13
46.660        67
46.670         0
46.680         0
46.690        40
46.700         0
46.710        13
46.720         0
46.730        40
46.740        53
46.750        27
46.760         0
46.770        13
46.780        40
46.790        27
46.800        13
46.810         0
46.820        27
46.830        13
46.840        27
46.850         0
46.860         0
46.870         0
46.880         0
46.890        27
46.900        13
46.910        13
46.920        13
46.930        27
46.940        53
46.950        53
46.960        27
46.970        40
46.980        13
46.990        13
47.000         0
47.010        13
47.020         0
47.030        40
47.040        67
47.050         0
47.060        13
47.070        27
47.080        27
47.090        13
47.100        13
47.110        13
47.120        40
47.130        13
47.140        13
47.150        40
47.160        13
47.170        27
47.180        13
47.190        67
47.200        27
47.210        13
47.220         0
47.230        27
47.240        27
47.250        40
47.260         0
47.270        13
47.280         0
47.290         0
47.300        13
47.310        13
47.320        13
47.330        13
47.340         0
47.350        27
47.360        27
47.370        13
47.380        13
47.390         0
47.400         0
47.410        27
47.420         0
47.430         0
47.440        27
47.450        53
47.460        13
47.470         0
47.480        93
47.490        13
47.500        13
47.510        27
47.520        27
47.530         0
47.540        40
47.550        13
47.560        40
47.570         0
47.580         0
47.590        13
47.600        27
47.610         0
47.620        13
47.630        53
47.640         0
47.650         0
47.660        13
47.670        13
47.680        13
47.690        27
47.700        27
47.710        27
47.720         0
47.730        27
47.740        13
47.750        53
47.760        13
47.770        27
47.780        40
47.790         0
47.800         0
47.810        13
47.820        13
47.830        27
47.840        53
47.850        13
47.860         0
47.870        27
47.880        40
47.890        27
47.900        13
47.910        27
47.920        13
47.930         0
47.940         0
47.950         0
47.960         0
47.970         0
47.980        27
47.990         0
48.000        27
48.010         0
48.020        13
48.030        13
48.040        13
48.050         0
48.060        13
48.070         0
48.080        53
48.090        13
48.100        13
48.110        27
48.120         0
48.130        27
48.140        13
48.150         0
48.160        13
48.170        40
48.180         0
48.190        27
48.200        27
48.210        13
48.220         0
48.230         0
48.240        27
48.250         0
48.260        27
48.270        40
48.280         0
48.290        27
48.300         0
48.310        27
48.320         0
48.330        13
48.340        13
48.350         0
48.360        13
48.370         0
48.380        40
48.390        13
48.400         0
48.410        13
48.420        13
48.430        13
48.440         0
48.450        13
48.460         0
48.470         0
48.480        27
48.490         0
48.500        53
48.510        27
48.520        13
48.530        13
48.540        13
48.550        13
48.560        27
48.570        27
48.580        13
48.590         0
48.600        27
48.610         0
48.620         0
48.630        27
48.640         0
48.650        13
48.660        13
48.670         0
48.680        13
48.690         0
48.700         0
48.710        13
48.720        13
48.730        13
48.740        27
48.750        53
48.760         0
48.770        40
48.780        53
48.790        27
48.800        13
48.810        40
48.820         0
48.830        27
48.840        13
48.850        40
48.860        13
48.870         0
48.880        13
48.890        13
48.900        13
48.910        27
48.920        13
48.930        27
48.940        27
48.950        13
48.960        13
48.970        13
48.980        13
48.990        13
49.000        13
49.010         0
49.020        27
49.030        13
49.040        40
49.050        13
49.060        27
49.070        40
49.080        40
49.090        67
49.100        27
49.110         0
49.120        13
49.130         0
49.140        13
49.150        13
49.160        13
49.170        27
49.180        13
49.190        13
49.200        13
49.210        13
49.220         0
49.230        13
49.240         0
49.250        27
49.260        40
49.270        53
49.280        27
49.290        13
49.300        13
49.310        40
49.320        13
49.330        13
49.340        13
49.350         0
49.360        40
49.370        13
49.380         0
49.390        13
49.400        13
49.410        13
49.420         0
49.430        27
49.440        40
49.450         0
49.460         0
49.470         0
49.480        13
49.490         0
49.500         0
49.510        40
49.520        13
49.530         0
49.540         0
49.550        53
49.560        40
49.570        13
49.580         0
49.590        13
49.600         0
49.610         0
49.620         0
49.630         0
49.640         0
49.650        13
49.660         0
49.670        13
49.680         0
49.690        13
49.700         0
49.710        27
49.720         0
49.730         0
49.740        40
49.750         0
49.760        13
49.770         0
49.780        13
49.790        13
49.800        13
49.810        13
49.820         0
49.830        40
49.840         0
49.850         0
49.860        13
49.870         0
49.880        13
49.890         0
49.900        27
49.910        27
49.920        27
49.930        27
49.940         0
49.950         0
49.960        27
49.970        27
49.980        27
49.990        40
50.000         0
50.010        40
50.020        27
50.030        27
50.040        67
50.050        27
50.060        13
50.070        13
50.080        13
50.090        40
50.100         0
50.110        40
50.120        13
50.130         0
50.140        13
50.150         0
50.160        13
50.170        53
50.180        40
50.190        27
50.200        13
50.210        13
50.220        27
50.230         0
50.240         0
50.250        27
50.260        13
50.270        27
50.280        27
50.290         0
50.300        13
50.310        27
50.320         0
50.330         0
50.340         0
50.350         0
50.360         0
50.370         0
50.380        13
50.390        13
50.400        40
50.410        27
50.420        13
50.430        27
50.440         0
50.450        13
50.460        13
50.470        13
50.480         0
50.490        27
50.500        40
50.510        27
50.520        13
50.530        27
50.540        13
50.550        13
50.560        27
50.570         0
50.580        27
50.590        27
50.600         0
50.610        13
50.620        40
50.630        53
50.640        13
50.650        13
50.660        27
50.670        27
50.680         0
50.690        13
50.700         0
50.710        27
50.720        13
50.730        27
50.740        13
50.750        27
50.760         0
50.770         0
50.780         0
50.790        13
50.800        27
50.810        27
50.820        40
50.830        40
50.840        13
50.850        13
50.860         0
50.870         0
50.880         0
50.890        13
50.900        13
50.910        27
50.920         0
50.930        27
50.940         0
50.950        13
50.960        27
50.970        13
50.980         0
50.990        13
51.000        27
51.010        40
51.020        40
51.030        13
51.040        13
51.050         0
51.060        40
51.070        40
51.080        27
51.090        27
51.100         0
51.110        13
51.120        13
51.130        13
51.140         0
51.150        13
51.160        67
51.170         0
51.180        27
51.190        13
51.200        13
51.210        13
51.220         0
51.230         0
51.240        13
51.250         0
51.260         0
51.270        27
51.280         0
51.290        13
51.300         0
51.310         0
51.320        40
51.330         0
51.340        27
51.350        27
51.360        13
51.370        40
51.380         0
51.390        13
51.400         0
51.410        13
51.420        13
51.430         0
51.440        27
51.450         0
51.460        53
51.470        27
51.480         0
51.490         0
51.500         0
51.510        27
51.520        13
51.530        27
51.540        13
51.550        13
51.560         0
51.570        40
51.580        13
51.590        27
51.600        27
51.610        27
51.620        27
51.630        13
51.640         0
51.650        13
51.660        27
51.670        40
51.680        27
51.690        27
51.700        13
51.710         0
51.720        27
51.730        27
51.740        13
51.750         0
51.760         0
51.770         0
51.780        27
51.790         0
51.800        13
51.810        40
51.820        13
51.830         0
51.840        13
51.850        13
51.860        27
51.870        13
51.880        13
51.890        27
51.900        40
51.910        40
51.920        27
51.930        27
51.940        93
51.950         0
51.960         0
51.970        27
51.980        27
51.990        80
52.000        40
52.010        13
52.020        27
52.030        40
52.040        40
52.050        27
52.060        80
52.070        40
52.080        27
52.090        13
52.100        27
52.110        13
52.120        53
52.130         0
52.140        40
52.150         0
52.160        40
52.170        13
52.180        40
52.190        27
52.200        53
52.210        27
52.220        13
52.230        13
52.240        80
52.250         0
52.260        27
52.270        13
52.280        40
52.290        40
52.300        13
52.310         0
52.320        13
52.330         0
52.340         0
52.350         0
52.360        40
52.370        27
52.380        13
52.390        13
52.400         0
52.410        27
52.420         0
52.430        53
52.440        13
52.450        13
52.460        13
52.470        40
52.480        53
52.490         0
52.500        27
52.510        13
52.520        40
52.530        13
52.540         0
52.550        53
52.560        13
52.570        13
52.580        53
52.590        27
52.600        27
52.610        53
52.620        27
52.630        27
52.640        27
52.650        67
52.660        80
52.670        67
52.680        27
52.690        53
52.700        53
52.710        13
52.720        80
52.730        40
52.740        13
52.750        40
52.760        40
52.770        53
52.780        13
52.790        53
52.800         0
52.810        27
52.820        53
52.830        13
52.840        13
52.850        53
52.860        27
52.870        40
52.880        53
52.890        27
52.900         0
52.910         0
52.920        27
52.930        27
52.940        13
52.950        13
52.960         0
52.970         0
52.980        13
52.990        53
53.000         0
53.010        27
53.020        40
53.030         0
53.040        13
53.050        13
53.060         0
53.070        13
53.080         0
53.090        27
53.100         0
53.110        13
53.120         0
53.130        13
53.140        13
53.150        27
53.160         0
53.170        27
53.180        27
53.190         0
53.200        27
53.210        13
53.220         0
53.230        40
53.240        13
53.250         0
53.260        40
53.270        27
53.280        27
53.290         0
53.300         0
53.310         0
53.320         0
53.330         0
53.340         0
53.350        40
53.360         0
53.370        13
53.380        27
53.390         0
53.400        27
53.410         0
53.420        27
53.430        40
53.440        27
53.450         0
53.460        13
53.470        27
53.480        27
53.490        13
53.500         0
53.510        13
53.520        13
53.530        13
53.540         0
53.550         0
53.560        13
53.570         0
53.580        13
53.590        13
53.600        13
53.610         0
53.620         0
53.630        40
53.640        27
53.650         0
53.660        13
53.670        13
53.680         0
53.690        13
53.700        13
53.710        27
53.720         0
53.730        13
53.740         0
53.750        13
53.760         0
53.770        27
53.780        53
53.790         0
53.800        13
53.810         0
53.820         0
53.830         0
53.840         0
53.850        27
53.860         0
53.870        13
53.880        13
53.890         0
53.900         0
53.910        13
53.920        13
53.930         0
53.940         0
53.950         0
53.960         0
53.970        40
53.980        27
53.990        67
54.000        40
54.010        13
54.020        27
54.030        13
54.040        27
54.050        27
54.060        13
54.070        27
54.080        13
54.090        13
54.100        13
54.110        13
54.120        13
54.130         0
54.140         0
54.150         0
54.160        13
54.170         0
54.180         0
54.190        13
54.200         0
54.210        13
54.220        53
54.230        13
54.240        13
54.250         0
54.260        13
54.270        27
54.280         0
54.290        13
54.300        27
54.310        13
54.320        27
54.330        13
54.340         0
54.350        13
54.360        27
54.370         0
54.380        13
54.390        27
54.400        13
54.410        40
54.420        13
54.430         0
54.440        13
54.450        13
54.460        13
54.470         0
54.480         0
54.490        13
54.500         0
54.510         0
54.520        27
54.530        27
54.540        13
54.550         0
54.560        13
54.570         0
54.580        13
54.590         0
54.600        27
54.610         0
54.620        27
54.630         0
54.640        13
54.650        27
54.660        13
54.670        13
54.680        13
54.690        40
54.700        13
54.710        13
54.720         0
54.730        13
54.740         0
54.750        27
54.760        27
54.770         0
54.780        13
54.790        13
54.800         0
54.810        27
54.820        13
54.830        40
54.840        40
54.850        13
54.860         0
54.870        80
54.880        13
54.890        13
54.900         0
54.910        13
54.920        27
54.930        13
54.940        13
54.950         0
54.960        27
54.970        13
54.980        40
54.990        40
55.000        53
55.010        13
55.020        40
55.030        13
55.040        27
55.050        13
55.060        13
55.070        40
55.080        13
55.090        67
55.100        27
55.110        53
55.120        13
55.130        13
55.140        40
55.150        40
55.160        53
55.170        40
55.180        40
55.190        40
55.200        40
55.210        67
55.220        40
55.230        53
55.240         0
55.250        13
55.260        27
55.270        40
55.280        67
55.290        53
55.300        40
55.310        27
55.320        13
55.330        80
55.340        53
55.350        40
55.360        80
55.370        80
55.380        93
55.390        67
55.400        40
55.410        80
55.420       120
55.430        80
55.440       107
55.450       120
55.460        67
55.470       133
55.480       107
55.490        53
55.500       133
55.510        67
55.520       147
55.530        80
55.540        80
55.550        67
55.560        93
55.570        67
55.580        80
55.590       107
55.600       147
55.610        67
55.620       133
55.630       133
55.640        67
55.650       120
55.660       173
55.670        80
55.680       133
55.690        67
55.700        53
55.710        67
55.720       107
55.730       133
55.740        40
55.750        53
55.760        80
55.770        93
55.780        53
55.790       133
55.800        67
55.810        27
55.820        40
55.830       133
55.840        93
55.850       107
55.860        53
55.870        40
55.880        40
55.890        40
55.900        53
55.910        67
55.920        40
55.930        67
55.940        40
55.950        40
55.960        67
55.970        13
55.980        93
55.990        53
56.000        27
56.010        40
56.020        27
56.030        40
56.040        27
56.050        80
56.060        27
56.070        40
56.080        13
56.090        40
56.100        13
56.110        67
56.120        27
56.130        27
56.140        13
56.150        13
56.160        13
56.170        13
56.180        13
56.190        13
56.200         0
56.210         0
56.220         0
56.230         0
56.240        13
56.250         0
56.260        13
56.270        27
56.280        40
56.290        40
56.300        40
56.310        13
56.320         0
56.330        27
56.340         0
56.350         0
56.360        13
56.370        13
56.380        27
56.390        27
56.400        27
56.410        13
56.420        27
56.430        40
56.440        13
56.450         0
56.460        27
56.470         0
56.480        13
56.490        13
56.500        13
56.510         0
56.520        13
56.530         0
56.540         0
56.550        40
56.560         0
56.570         0
56.580        27
56.590        27
56.600         0
56.610        27
56.620         0
56.630         0
56.640         0
56.650         0
56.660         0
56.670         0
56.680        53
56.690         0
56.700        27
56.710        40
56.720        13
56.730        27
56.740        13
56.750        13
56.760        13
56.770         0
56.780        13
56.790         0
56.800        13
56.810        40
56.820        13
56.830        40
56.840        27
56.850        13
56.860        27
56.870        27
56.880        13
56.890        40
56.900        67
56.910         0
56.920         0
56.930         0
56.940         0
56.950        13
56.960        13
56.970         0
56.980        13
56.990        27
57.000        27
57.010        40
57.020        13
57.030        13
57.040         0
57.050        40
57.060         0
57.070         0
57.080        13
57.090        13
57.100        13
57.110         0
57.120        13
57.130        13
57.140        27
57.150         0
57.160        13
57.170        40
57.180         0
57.190        13
57.200         0
57.210         0
57.220         0
57.230         0
57.240         0
57.250         0
57.260        40
57.270        13
57.280        40
57.290        13
57.300         0
57.310        13
57.320         0
57.330        27
57.340         0
57.350        40
57.360        13
57.370        27
57.380        27
57.390         0
57.400        13
57.410        13
57.420        27
57.430         0
57.440        13
57.450        40
57.460        27
57.470        53
57.480        53
57.490        13
57.500        13
57.510        13
57.520        27
57.530        40
57.540        13
57.550        13
57.560       107
57.570       120
57.580        67
57.590        80
57.600       173
57.610       173
57.620       147
57.630       213
57.640       107
57.650       200
57.660        67
57.670        93
57.680        93
57.690        53
57.700        53
57.710        40
57.720        27
57.730        80
57.740        27
57.750        67
57.760       120
57.770        40
57.780        93
57.790        80
57.800        80
57.810        67
57.820        93
57.830        80
57.840        53
57.850        13
57.860        27
57.870        27
57.880        27
57.890        13
57.900        13
57.910        13
57.920         0
57.930         0
57.940         0
57.950        27
57.960        40
57.970        27
57.980        27
57.990        27
58.000        27
58.010        27
58.020        13
58.030         0
58.040        53
58.050        13
58.060        27
58.070         0
58.080         0
58.090         0
58.100         0
58.110         0
58.120         0
58.130         0
58.140         0
58.150         0
58.160         0
58.170         0
58.180        13
58.190        13
58.200         0
58.210         0
58.220         0
58.230         0
58.240         0
58.250        27
58.260         0
58.270         0
58.280        27
58.290        27
58.300        13
58.310        13
58.320        27
58.330        27
58.340         0
58.350        13
58.360        13
58.370         0
58.380        13
58.390         0
58.400        27
58.410         0
58.420        13
58.430         0
58.440        27
58.450        27
58.460        40
58.470        27
58.480         0
58.490        27
58.500        27
58.510         0
58.520        40
58.530        13
58.540        13
58.550        27
58.560         0
58.570        13
58.580        40
58.590         0
58.600         0
58.610        13
58.620         0
58.630         0
58.640        13
58.650        13
58.660         0
58.670        13
58.680         0
58.690        27
58.700         0
58.710         0
58.720         0
58.730         0
58.740        13
58.750        27
58.760         0
58.770        27
58.780         0
58.790        27
58.800         0
58.810         0
58.820        27
58.830        27
58.840         0
58.850         0
58.860        27
58.870        13
58.880         0
58.890        27
58.900         0
58.910         0
58.920        13
58.930        13
58.940        13
58.950        27
58.960         0
58.970         0
58.980        27
58.990        13
59.000        13
59.010        27
59.020         0
59.030        13
59.040        13
59.050        13
59.060        13
59.070         0
59.080         0
59.090         0
59.100        27
59.110         0
59.120         0
59.130         0
59.140        13
59.150         0
59.160        40
59.170         0
59.180        27
59.190        13
59.200        27
59.210         0
59.220        27
59.230        13
59.240         0
59.250        27
59.260         0
59.270        40
59.280         0
59.290        13
59.300        40
59.310         0
59.320        13
59.330        53
59.340         0
59.350        13
59.360         0
59.370        13
59.380        27
59.390         0
59.400        27
59.410        13
59.420        27
59.430         0
59.440         0
59.450        13
59.460        13
59.470        13
59.480        27
59.490        27
59.500         0
59.510        27
59.520        13
59.530        13
59.540        13
59.550        27
59.560         0
59.570        13
59.580        27
59.590        27
59.600         0
59.610        27
59.620         0
59.630         0
59.640         0
59.650        27
59.660        40
59.670        13
59.680        13
59.690        13
59.700        27
59.710        13
59.720        13
59.730        13
59.740         0
59.750        13
59.760        13
59.770        27
59.780        13
59.790        40
59.800         0
59.810        27
59.820        40
59.830        13
59.840        27
59.850        13
59.860        13
59.870        27
59.880        13
59.890        27
59.900         0
59.910        13
59.920         0
59.930        13
59.940         0
59.950        27
59.960        13
59.970         0
59.980        27
59.990         0
60.000        13
