20.000        53
20.020        37
20.040        63
20.060        70
20.080        53
20.100        60
20.120        63
20.140        73
20.160        47
20.180        37
20.200        63
20.220        63
20.240        43
20.260        40
20.280        77
20.300        77
20.320        83
20.340        77
20.360        40
20.380        50
20.400        50
20.420        73
20.440        77
20.460        43
20.480        50
20.500        33
20.520        33
20.540        50
20.560        63
20.580        57
20.600        30
20.620        37
20.640        37
20.660        63
20.680        40
20.700        30
20.720        37
20.740        43
20.760        47
20.780        50
20.800        50
20.820        37
20.840        53
20.860        60
20.880        47
20.900        67
20.920        40
20.940        60
20.960        40
20.980        63
21.000        53
21.020        57
21.040        47
21.060        43
21.080        73
21.100        60
21.120        50
21.140        60
21.160        33
21.180        40
21.200        83
21.220        47
21.240        60
21.260        43
21.280        53
21.300        73
21.320        30
21.340        60
21.360        43
21.380        53
21.400        63
21.420        53
21.440        30
21.460        43
21.480        37
21.500        67
21.520        47
21.540        57
21.560        37
21.580        77
21.600        30
21.620        63
21.640        70
21.660        53
21.680        63
21.700        63
21.720        67
21.740        90
21.760        47
21.780        77
21.800        70
21.820        70
21.840        83
21.860       103
21.880        70
21.900        47
21.920        70
21.940        63
21.960        47
21.980        37
22.000        37
22.020        70
22.040        33
22.060        47
22.080        20
22.100        53
22.120        60
22.140        47
22.160        17
22.180        33
22.200        50
22.220        40
22.240        40
22.260        47
22.280        57
22.300        43
22.320        43
22.340        57
22.360        40
22.380        40
22.400        43
22.420        40
22.440        40
22.460        57
22.480        33
22.500        47
22.520        43
22.540        47
22.560        43
22.580        40
22.600        40
22.620        37
22.640        60
22.660        23
22.680        30
22.700        50
22.720        43
22.740        70
22.760        57
22.780        57
22.800        37
22.820        33
22.840        63
22.860        47
22.880        27
22.900        43
22.920        33
22.940        40
22.960        37
22.980        57
23.000        37
23.020        43
23.040        47
23.060        53
23.080        43
23.100        33
23.120        27
23.140        40
23.160        27
23.180        63
23.200        40
23.220        37
23.240        43
23.260        30
23.280        40
23.300        43
23.320        47
23.340        70
23.360        33
23.380        27
23.400        47
23.420        47
23.440        47
23.460        47
23.480        27
23.500        43
23.520        30
23.540        30
23.560        33
23.580        27
23.600        40
23.620        53
23.640        23
23.660        40
23.680        50
23.700        20
23.720        17
23.740        37
23.760        57
23.780        27
23.800        53
23.820        50
23.840        60
23.860        43
23.880        73
23.900        37
23.920        27
23.940        37
23.960        37
23.980        33
24.000        53
24.020        60
24.040        40
24.060        30
24.080        43
24.100        27
24.120        37
24.140        50
24.160        33
24.180        60
24.200        50
24.220        40
24.240        37
24.260        40
24.280        53
24.300        53
24.320        47
24.340        30
24.360        53
24.380        57
24.400        40
24.420        30
24.440        23
24.460        53
24.480        33
24.500        33
24.520        20
24.540        43
24.560        37
24.580        37
24.600        43
24.620        33
24.640        47
24.660        37
24.680        40
24.700        40
24.720        37
24.740        40
24.760        27
24.780        57
24.800        27
24.820        47
24.840        57
24.860        40
24.880        37
24.900        27
24.920        37
24.940        17
24.960        40
24.980        47
25.000        53
25.020        40
25.040        37
25.060        33
25.080        40
25.100        60
25.120        33
25.140        43
25.160        40
25.180        27
25.200        57
25.220        53
25.240        57
25.260        23
25.280        20
25.300        27
25.320        47
25.340        40
25.360        43
25.380        27
25.400        30
25.420        63
25.440        40
25.460        47
25.480        43
25.500        50
25.520        43
25.540        43
25.560        40
25.580        37
25.600        47
25.620        40
25.640        33
25.660        40
25.680        23
25.700        40
25.720        47
25.740        27
25.760        17
25.780        33
25.800        27
25.820        50
25.840        27
25.860        43
25.880        33
25.900        27
25.920        50
25.940        40
25.960        47
25.980        50
26.000        40
26.020        57
26.040        33
26.060        43
26.080        30
26.100        57
26.120        33
26.140        53
26.160        47
26.180        40
26.200        27
26.220        47
26.240        33
26.260        43
26.280        33
26.300        23
26.320        43
26.340        37
26.360        27
26.380        30
26.400        57
26.420        37
26.440        33
26.460        27
26.480        33
26.500        23
26.520        20
26.540        23
26.560        30
26.580        47
26.600        40
26.620        37
26.640        40
26.660        27
26.680        57
26.700        20
26.720        57
26.740        37
26.760        40
26.780        50
26.800        33
26.820        37
26.840        33
26.860        37
26.880        27
26.900        40
26.920        67
26.940        33
26.960        43
26.980        37
27.000        40
27.020        37
27.040        30
27.060        53
27.080        27
27.100        33
27.120        33
27.140        33
27.160        40
27.180        33
27.200        30
27.220        23
27.240        23
27.260        40
27.280        50
27.300        27
27.320        30
27.340        43
27.360        27
27.380        37
27.400        30
27.420        33
27.440        43
27.460        57
27.480        43
27.500        53
27.520        37
27.540        37
27.560        13
27.580        27
27.600        27
27.620        27
27.640        20
27.660        40
27.680        43
27.700        37
27.720        37
27.740        53
27.760        33
27.780        30
27.800        40
27.820        43
27.840        63
27.860        73
27.880        90
27.900        70
27.920       103
27.940       117
27.960        97
27.980       113
28.000        93
28.020        40
28.040        43
28.060        33
28.080        37
28.100        53
28.120        53
28.140        53
28.160        33
28.180        40
28.200        57
28.220        47
28.240        40
28.260        27
28.280        40
28.300        37
28.320        60
28.340        30
28.360        37
28.380        27
28.400        43
28.420        50
28.440        40
28.460        53
28.480        43
28.500        37
28.520        37
28.540        27
28.560        43
28.580        33
28.600        30
28.620        53
28.640        20
28.660        30
28.680        43
28.700        30
28.720        47
28.740        27
28.760        33
28.780        33
28.800        40
28.820        47
28.840        57
28.860        50
28.880        67
28.900        80
28.920        43
28.940        30
28.960        37
28.980        47
29.000        50
29.020        23
29.040        43
29.060        23
29.080        47
29.100        40
29.120        37
29.140        43
29.160        57
29.180        53
29.200        33
29.220        50
29.240        37
29.260        33
29.280        20
29.300        47
29.320        43
29.340        40
29.360        43
29.380        63
29.400        40
29.420        37
29.440        23
29.460        37
29.480        50
29.500        37
29.520        50
29.540        33
29.560        37
29.580        43
29.600        40
29.620        30
29.640        47
29.660        50
29.680        60
29.700        30
29.720        63
29.740        83
29.760        50
29.780        63
29.800        30
29.820        70
29.840        87
29.860        67
29.880        90
29.900        73
29.920        67
29.940        63
29.960        63
29.980        60
30.000        77
30.020        87
30.040       107
30.060        70
30.080        77
30.100        60
30.120        70
30.140       100
30.160        93
30.180       100
30.200       110
30.220       100
30.240        80
30.260       113
30.280        73
30.300        67
30.320       100
30.340        77
30.360        40
30.380        83
30.400        93
30.420       117
30.440        97
30.460       117
30.480       100
30.500       107
30.520       130
30.540       130
30.560       133
30.580       147
30.600       177
30.620       117
30.640       200
30.660       277
30.680       293
30.700       367
30.720       393
30.740       586
30.760       716
30.780       776
30.800      1036
30.820      1289
30.840      1876
30.860      2226
30.880      3159
30.900      4002
30.920      5091
30.940      6824
30.960      8093
30.980      9563
31.000     10049
31.020      9226
31.040      8043
31.060      6441
31.080      5135
31.100      4098
31.120      2872
31.140      1589
31.160       973
31.180       630
31.200       363
31.220       350
31.240       240
31.260       200
31.280       193
31.300       150
31.320       190
31.340       143
31.360       103
31.380       113
31.400        97
31.420       113
31.440       123
31.460       147
31.480       100
31.500       103
31.520       107
31.540       117
31.560       100
31.580       103
31.600        77
31.620       100
31.640        73
31.660        73
31.680        87
31.700        90
31.720        93
31.740        60
31.760        97
31.780        80
31.800        63
31.820        57
31.840        73
31.860        77
31.880        53
31.900        63
31.920        57
31.940        70
31.960        87
31.980        80
32.000        93
32.020        73
32.040        87
32.060        87
32.080        70
32.100        57
32.120        53
32.140        70
32.160        67
32.180        57
32.200        73
32.220        73
32.240        80
32.260        83
32.280        60
32.300        83
32.320        40
32.340        50
32.360        80
32.380        53
32.400        70
32.420        43
32.440        63
32.460        53
32.480        80
32.500        47
32.520        57
32.540        60
32.560        70
32.580        63
32.600        47
32.620        60
32.640        40
32.660        63
32.680        90
32.700        53
32.720        63
32.740        47
32.760        47
32.780        57
32.800        70
32.820        87
32.840        60
32.860        33
32.880        60
32.900        40
32.920        60
32.940        47
32.960        53
32.980        47
33.000        27
33.020        37
33.040        60
33.060        53
33.080        70
33.100        40
33.120        50
33.140        47
33.160        53
33.180        47
33.200        77
33.220        43
33.240        53
33.260        53
33.280        40
33.300        33
33.320        30
33.340        63
33.360        47
33.380        70
33.400        67
33.420        63
33.440        50
33.460        77
33.480        27
33.500        27
33.520        20
33.540        50
33.560        30
33.580        53
33.600        60
33.620        43
33.640        53
33.660        47
33.680        57
33.700        53
33.720        53
33.740        47
33.760        43
33.780        53
33.800        53
33.820        43
33.840        53
33.860        50
33.880        30
33.900        27
33.920        40
33.940        57
33.960        60
33.980        47
34.000        30
34.020        40
34.040        43
34.060        33
34.080        77
34.100        40
34.120        57
34.140        37
34.160        40
34.180        50
34.200        43
34.220        33
34.240        40
34.260        40
34.280        60
34.300        40
34.320        43
34.340        20
34.360        47
34.380        33
34.400        37
34.420        50
34.440        53
34.460        63
34.480        30
34.500        47
34.520        23
34.540        43
34.560        43
34.580        30
34.600        40
34.620        47
34.640        33
34.660        43
34.680        40
34.700        23
34.720        47
34.740        40
34.760        23
34.780        40
34.800        30
34.820        33
34.840        23
34.860        63
34.880        43
34.900        37
34.920        37
34.940        33
34.960        43
34.980        43
35.000        40
35.020        50
35.040        67
35.060        40
35.080        63
35.100        43
35.120        53
35.140        53
35.160        90
35.180        67
35.200        47
35.220        37
35.240        50
35.260        67
35.280        23
35.300        53
35.320        37
35.340        37
35.360        40
35.380        37
35.400        40
35.420        33
35.440        23
35.460        27
35.480        33
35.500        43
35.520        33
35.540        23
35.560        33
35.580        37
35.600        30
35.620        60
35.640        37
35.660        33
35.680        43
35.700        33
35.720        43
35.740        50
35.760        63
35.780        17
35.800        23
35.820        37
35.840        27
35.860        27
35.880        40
35.900        27
35.920        17
35.940        67
35.960        43
35.980        37
36.000        17
36.020        47
36.040        60
36.060        40
36.080        30
36.100        37
36.120        50
36.140        30
36.160        37
36.180        27
36.200        33
36.220        30
36.240        30
36.260        20
36.280        43
36.300        47
36.320        50
36.340        30
36.360        47
36.380        27
36.400        33
36.420        23
36.440        37
36.460        30
36.480        53
36.500        23
36.520        33
36.540        23
36.560        20
36.580        57
36.600        13
36.620        43
36.640        30
36.660        40
36.680        20
36.700        27
36.720        43
36.740        40
36.760        50
36.780        27
36.800        37
36.820        27
36.840        43
36.860        57
36.880        30
36.900        27
36.920        23
36.940        50
36.960        43
36.980        23
37.000        23
37.020        37
37.040        33
37.060        17
37.080        57
37.100         7
37.120        37
37.140        37
37.160        23
37.180        57
37.200        17
37.220        47
37.240        47
37.260        17
37.280        37
37.300        17
37.320        27
37.340        30
37.360        23
37.380        20
37.400        23
37.420        40
37.440        20
37.460        27
37.480        20
37.500        23
37.520        13
37.540        37
37.560        27
37.580        27
37.600        33
37.620        33
37.640        33
37.660        33
37.680        40
37.700        30
37.720        33
37.740        27
37.760        40
37.780        33
37.800        33
37.820        23
37.840        27
37.860        17
37.880        50
37.900        30
37.920        17
37.940        13
37.960        30
37.980        33
38.000        13
38.020        33
38.040        57
38.060        23
38.080        23
38.100        50
38.120        50
38.140        30
38.160        20
38.180        50
38.200        43
38.220        63
38.240        60
38.260        40
38.280        37
38.300        33
38.320        40
38.340        37
38.360        23
38.380        27
38.400        40
38.420        43
38.440        30
38.460        40
38.480        33
38.500        20
38.520        27
38.540        30
38.560        20
38.580        33
38.600        20
38.620        37
38.640        27
38.660        23
38.680        17
38.700        20
38.720        20
38.740        33
38.760        20
38.780        43
38.800        17
38.820        17
38.840        33
38.860        33
38.880        43
38.900        27
38.920        40
38.940        27
38.960        23
38.980        23
39.000        13
39.020        23
39.040        27
39.060        27
39.080        40
39.100        37
39.120         7
39.140        20
39.160        33
39.180        10
39.200        30
39.220        23
39.240        23
39.260        30
39.280        17
39.300        30
39.320        40
39.340        17
39.360        30
39.380        40
39.400        17
39.420        17
39.440        20
39.460        20
39.480        20
39.500        20
39.520        20
39.540        30
39.560        20
39.580        33
39.600        37
39.620        20
39.640        30
39.660        33
39.680        30
39.700        33
39.720        10
39.740        17
39.760        20
39.780        27
39.800        10
39.820        13
39.840        43
39.860         3
39.880        20
39.900         7
39.920        23
39.940        33
39.960        47
39.980        27
40.000        20
40.020        27
40.040        23
40.060        27
40.080        30
40.100        33
40.120        27
40.140        37
40.160        20
40.180        20
40.200        17
40.220        23
40.240        20
40.260        27
40.280        37
40.300        20
40.320        27
40.340        37
40.360        23
40.380        27
40.400        10
40.420        23
40.440        20
40.460        30
40.480        23
40.500        23
40.520        33
40.540         7
40.560        27
40.580        47
40.600        33
40.620        20
40.640        23
40.660        20
40.680        27
40.700        23
40.720        23
40.740        20
40.760        23
40.780        13
40.800        17
40.820        13
40.840        23
40.860        17
40.880        20
40.900        10
40.920        17
40.940        13
40.960        13
40.980        40
41.000        20
41.020        23
41.040        33
41.060        40
41.080        40
41.100        13
41.120         7
41.140        10
41.160        27
41.180        40
41.200        23
41.220        37
41.240        13
41.260        13
41.280        23
41.300        13
41.320        13
41.340        27
41.360        17
41.380        37
41.400        17
41.420        27
41.440        10
41.460        37
41.480         7
41.500        33
41.520        30
41.540        30
41.560        17
41.580        17
41.600        30
41.620        33
41.640        33
41.660        50
41.680        47
41.700        30
41.720        30
41.740        70
41.760        27
41.780        17
41.800        40
41.820        27
41.840        40
41.860        37
41.880        40
41.900        27
41.920        13
41.940        13
41.960        17
41.980        13
42.000        40
42.020        20
42.040        27
42.060        20
42.080        20
42.100        33
42.120        27
42.140        27
42.160        20
42.180        23
42.200        37
42.220        27
42.240        40
42.260        23
42.280        27
42.300        13
42.320        17
42.340        20
42.360        20
42.380        23
42.400        17
42.420        23
42.440        23
42.460        30
42.480        30
42.500        27
42.520        27
42.540        23
42.560        20
42.580        17
42.600        20
42.620        23
42.640        13
42.660        17
42.680        13
42.700        30
42.720        27
42.740        23
42.760        13
42.780        17
42.800         3
42.820        27
42.840        10
42.860        30
42.880        27
42.900        13
42.920        20
42.940        27
42.960        27
42.980        20
43.000        27
43.020        20
43.040        17
43.060        13
43.080        23
43.100        17
43.120        23
43.140        23
43.160        20
43.180        30
43.200        23
43.220        20
43.240        23
43.260        30
43.280        13
43.300        23
43.320        30
43.340        47
43.360        47
43.380        57
43.400        60
43.420        37
43.440        43
43.460        50
43.480        40
43.500        33
43.520        33
43.540        47
43.560        13
43.580        27
43.600        23
43.620        23
43.640        43
43.660        17
43.680        30
43.700        30
43.720        23
43.740        20
43.760        20
43.780        27
43.800        13
43.820         3
43.840        23
43.860        17
43.880        13
43.900        33
43.920         3
43.940        13
43.960        17
43.980        23
44.000        10
44.020        23
44.040        30
44.060        20
44.080        27
44.100        20
44.120        30
44.140        27
44.160        23
44.180        37
44.200        27
44.220        43
44.240        43
44.260        30
44.280        33
44.300        57
44.320        73
44.340        77
44.360        80
44.380        70
44.400       150
44.420       117
44.440        97
44.460       153
44.480       123
44.500       123
44.520       123
44.540        83
44.560       113
44.580        63
44.600        87
44.620        57
44.640        87
44.660        40
44.680        57
44.700        33
44.720        17
44.740        17
44.760        30
44.780        13
44.800        43
44.820        40
44.840        37
44.860        20
44.880        20
44.900        17
44.920        50
44.940        20
44.960        13
44.980        13
45.000        20
45.020        10
45.040        13
45.060        23
45.080        20
45.100        23
45.120        33
45.140        20
45.160        37
45.180        20
45.200        17
45.220        27
45.240         7
45.260        20
45.280        33
45.300        20
45.320        33
45.340        13
45.360        17
45.380        10
45.400        20
45.420        27
45.440        27
45.460        17
45.480        13
45.500         7
45.520        13
45.540        17
45.560        23
45.580        20
45.600        10
45.620         3
45.640        13
45.660        17
45.680        30
45.700        10
45.720        10
45.740        17
45.760        13
45.780        23
45.800        13
45.820        23
45.840        20
45.860        13
45.880        10
45.900        23
45.920        13
45.940        23
45.960         3
45.980        27
46.000        10
46.020        17
46.040        10
46.060        27
46.080        27
46.100        17
46.120        23
46.140        23
46.160        33
46.180        17
46.200        13
46.220        27
46.240        33
46.260         7
46.280        10
46.300        37
46.320        17
46.340        20
46.360        13
46.380        37
46.400        33
46.420        17
46.440         7
46.460        37
46.480        13
46.500        13
46.520         7
46.540        20
46.560        23
46.580        20
46.600        23
46.620        17
46.640        13
46.660        20
46.680        20
46.700        17
46.720        20
46.740        23
46.760        20
46.780         7
46.800        13
46.820        27
46.840        20
46.860        27
46.880        17
46.900        27
46.920         7
46.940        33
46.960        23
46.980        30
47.000        20
47.020        43
47.040        10
47.060        20
47.080        33
47.100        17
47.120        33
47.140        13
47.160        23
47.180         7
47.200        27
47.220        20
47.240        20
47.260        17
47.280        17
47.300        17
47.320        27
47.340        30
47.360        20
47.380        10
47.400        17
47.420         7
47.440        13
47.460        17
47.480        27
47.500        30
47.520        23
47.540        30
47.560         3
47.580        13
47.600        10
47.620         7
47.640         7
47.660         7
47.680        20
47.700        17
47.720        13
47.740        13
47.760        23
47.780         7
47.800        23
47.820         7
47.840        13
47.860        13
47.880        23
47.900        17
47.920        13
47.940        10
47.960        13
47.980         7
48.000        27
48.020        13
48.040        40
48.060        20
48.080        17
48.100        20
48.120        10
48.140        20
48.160         7
48.180         7
48.200        13
48.220        20
48.240        13
48.260        23
48.280        17
48.300        30
48.320        17
48.340        10
48.360        17
48.380        33
48.400        20
48.420        10
48.440         7
48.460         7
48.480         7
48.500        17
48.520         7
48.540         7
48.560        27
48.580        17
48.600        17
48.620        13
48.640        13
48.660        13
48.680         7
48.700        13
48.720        13
48.740        17
48.760        10
48.780        20
48.800        10
48.820        23
48.840        23
48.860        20
48.880        13
48.900        23
48.920        20
48.940         3
48.960         7
48.980        17
49.000        10
49.020        27
49.040        20
49.060        27
49.080        10
49.100         7
49.120        23
49.140         7
49.160        17
49.180        17
49.200         3
49.220        17
49.240        20
49.260        13
49.280        10
49.300        23
49.320        17
49.340        20
49.360        17
49.380        13
49.400        27
49.420        10
49.440         7
49.460        20
49.480         7
49.500        27
49.520        23
49.540        30
49.560         7
49.580        17
49.600        23
49.620        10
49.640        17
49.660        10
49.680        10
49.700         7
49.720        17
49.740        17
49.760         3
49.780        13
49.800        27
49.820        10
49.840        30
49.860         3
49.880        10
49.900         7
49.920        30
49.940        17
49.960        13
49.980        13
50.000        17
50.020        13
50.040        10
50.060        17
50.080         7
50.100        13
50.120        13
50.140        23
50.160        13
50.180        10
50.200         7
50.220        13
50.240         3
50.260        13
50.280        10
50.300         7
50.320        23
50.340        20
50.360        10
50.380         7
50.400        10
50.420        27
50.440        27
50.460        13
50.480        13
50.500         7
50.520        10
50.540        23
50.560         7
50.580        17
50.600        23
50.620        17
50.640        23
50.660         3
50.680        20
50.700        13
50.720        30
50.740        27
50.760        23
50.780        10
50.800         0
50.820        23
50.840        10
50.860        20
50.880        20
50.900         7
50.920        13
50.940        13
50.960        13
50.980        17
51.000        13
51.020        17
51.040        10
51.060        20
51.080        17
51.100        20
51.120        20
51.140         3
51.160        13
51.180         7
51.200        20
51.220        13
51.240        23
51.260        13
51.280         7
51.300        17
51.320        20
51.340         7
51.360         3
51.380        17
51.400        13
51.420        30
51.440        23
51.460        23
51.480        13
51.500        13
51.520        20
51.540        10
51.560        17
51.580        13
51.600        40
51.620        17
51.640         7
51.660        17
51.680        17
51.700        20
51.720        13
51.740        37
51.760        20
51.780        20
51.800        13
51.820        23
51.840        23
51.860        20
51.880        13
51.900        17
51.920        10
51.940         7
51.960        13
51.980        23
52.000         7
52.020        17
52.040        23
52.060        23
52.080        20
52.100         7
52.120        10
52.140        13
52.160        23
52.180        17
52.200        17
52.220        13
52.240         3
52.260        23
52.280        17
52.300        10
52.320        20
52.340        30
52.360        23
52.380        17
52.400         7
52.420        23
52.440        20
52.460        20
52.480        33
52.500        17
52.520        30
52.540        20
52.560         7
52.580        47
52.600        17
52.620        30
52.640        13
52.660        20
52.680        10
52.700        20
52.720        23
52.740        13
52.760        23
52.780        17
52.800        10
52.820        20
52.840        10
52.860        27
52.880        27
52.900        17
52.920        30
52.940        17
52.960        27
52.980        10
53.000        23
53.020        13
53.040         7
53.060        17
53.080         3
53.100        23
53.120        23
53.140        13
53.160        10
53.180        23
53.200        33
53.220        13
53.240        13
53.260        20
53.280        23
53.300        20
53.320        37
53.340        10
53.360        20
53.380        17
53.400        13
53.420        20
53.440        30
53.460        17
53.480        20
53.500        33
53.520        17
53.540        27
53.560        13
53.580        20
53.600        10
53.620        37
53.640        27
53.660        27
53.680        20
53.700        13
53.720        10
53.740        27
53.760        23
53.780         3
53.800        17
53.820         3
53.840        17
53.860         7
53.880        17
53.900        13
53.920        17
53.940        23
53.960        47
53.980        27
54.000        13
54.020         3
54.040        20
54.060        20
54.080        23
54.100        13
54.120        10
54.140        17
54.160        17
54.180        10
54.200        23
54.220        27
54.240        10
54.260        13
54.280        27
54.300        27
54.320        27
54.340        37
54.360         7
54.380        17
54.400        13
54.420        13
54.440        17
54.460        17
54.480        17
54.500        23
54.520        10
54.540        17
54.560        10
54.580        17
54.600         7
54.620        23
54.640        23
54.660        23
54.680        27
54.700        27
54.720        30
54.740        20
54.760        27
54.780        20
54.800        50
54.820        40
54.840        50
54.860        70
54.880        83
54.900       113
54.920       103
54.940        90
54.960       153
54.980       170
55.000       273
55.020       420
55.040       413
55.060       526
55.080       593
55.100       596
55.120       650
55.140       683
55.160       630
55.180       573
55.200       453
55.220       453
55.240       443
55.260       350
55.280       317
55.300       277
55.320       213
55.340       150
55.360       107
55.380        93
55.400        83
55.420        53
55.440        50
55.460        50
55.480        37
55.500        43
55.520        50
55.540        43
55.560        13
55.580        20
55.600        33
55.620        17
55.640        33
55.660        40
55.680        20
55.700        23
55.720        23
55.740        10
55.760        23
55.780        10
55.800        13
55.820        17
55.840         3
55.860        17
55.880        10
55.900        10
55.920        30
55.940         7
55.960        23
55.980        23
56.000        13
56.020        20
56.040        27
56.060        13
56.080        37
56.100        30
56.120        17
56.140        23
56.160        13
56.180        17
56.200        17
56.220        13
56.240        37
56.260        33
56.280         7
56.300        27
56.320        17
56.340        17
56.360        17
56.380        10
56.400        13
56.420        10
56.440        17
56.460        10
56.480         3
56.500        30
56.520        20
56.540        30
56.560        23
56.580        17
56.600        37
56.620        10
56.640        10
56.660         7
56.680        13
56.700        17
56.720        13
56.740        10
56.760         7
56.780         3
56.800        13
56.820        13
56.840        27
56.860         7
56.880        17
56.900        20
56.920        10
56.940        17
56.960         7
56.980        23
57.000        23
57.020        10
57.040        20
57.060        13
57.080        13
57.100        17
57.120        20
57.140        30
57.160        27
57.180        10
57.200        30
57.220         7
57.240        20
57.260        13
57.280        10
57.300        13
57.320        13
57.340        20
57.360        23
57.380        13
57.400        13
57.420        17
57.440        10
57.460        43
57.480        43
57.500        50
57.520       120
57.540        67
57.560        47
57.580        47
57.600        43
57.620        43
57.640        37
57.660        43
57.680        40
57.700        47
57.720        37
57.740        13
57.760        27
57.780        27
57.800        30
57.820        10
57.840        13
57.860        20
57.880        27
57.900         7
57.920        23
57.940        23
57.960        23
57.980        10
58.000         7
58.020        10
58.040        27
58.060        17
58.080        23
58.100         7
58.120        27
58.140         3
58.160        23
58.180         7
58.200        17
58.220        17
58.240        17
58.260        17
58.280         7
58.300        17
58.320        13
58.340        17
58.360        20
58.380        20
58.400        13
58.420        13
58.440         7
58.460         7
58.480        10
58.500        17
58.520        13
58.540        23
58.560        17
58.580         7
58.600         7
58.620        20
58.640        13
58.660        27
58.680         0
58.700        17
58.720        10
58.740        17
58.760        13
58.780        13
58.800        10
58.820        10
58.840        27
58.860        20
58.880        10
58.900        10
58.920         3
58.940        17
58.960        13
58.980        23
59.000        10
59.020        10
59.040        17
59.060         7
59.080        10
59.100        17
59.120        17
59.140        23
59.160        13
59.180        27
59.200        17
59.220        10
59.240        27
59.260        13
59.280        17
59.300        10
59.320        17
59.340        23
59.360         7
59.380        17
59.400        13
59.420        20
59.440        20
59.460        13
59.480        17
59.500         7
59.520        17
59.540        23
59.560        13
59.580        27
59.600        23
59.620        13
59.640        30
59.660        13
59.680        17
59.700         3
59.720        13
59.740        10
59.760        17
59.780        17
59.800         7
59.820        20
59.840        17
59.860        13
59.880        30
59.900        20
59.920        33
59.940        10
59.960        10
59.980         3
60.000         3
