20.000        53
20.020        37
20.040        37
20.060        50
20.080        40
20.100        50
20.120        57
20.140        47
20.160        23
20.180        40
20.200        33
20.220        47
20.240        70
20.260        47
20.280        30
20.300        30
20.320        30
20.340        37
20.360        40
20.380        23
20.400        43
20.420        67
20.440        57
20.460        40
20.480        37
20.500        47
20.520        33
20.540        47
20.560        37
20.580        47
20.600        40
20.620        40
20.640        33
20.660        30
20.680        27
20.700        50
20.720        43
20.740        23
20.760        43
20.780        33
20.800        37
20.820        37
20.840        50
20.860        47
20.880        50
20.900        40
20.920        50
20.940        43
20.960        53
20.980        43
21.000        40
21.020        30
21.040        43
21.060        33
21.080        37
21.100        73
21.120        63
21.140        47
21.160        40
21.180        40
21.200        53
21.220        40
21.240        53
21.260        70
21.280        47
21.300        50
21.320        23
21.340        47
21.360        33
21.380        57
21.400        47
21.420        33
21.440        47
21.460        53
21.480        60
21.500        30
21.520        50
21.540        47
21.560        33
21.580        33
21.600        43
21.620        50
21.640        40
21.660        20
21.680        60
21.700        33
21.720        60
21.740        57
21.760        43
21.780        53
21.800        53
21.820        60
21.840        40
21.860        80
21.880        93
21.900        73
21.920        77
21.940        87
21.960        60
21.980        83
22.000        83
22.020        67
22.040        83
22.060        43
22.080        40
22.100        33
22.120        53
22.140        47
22.160        40
22.180        33
22.200        37
22.220        30
22.240        43
22.260        47
22.280        47
22.300        57
22.320        23
22.340        60
22.360        43
22.380        50
22.400        50
22.420        60
22.440        50
22.460        47
22.480        40
22.500        60
22.520        33
22.540        47
22.560        70
22.580        57
22.600        63
22.620        37
22.640        40
22.660        50
22.680        57
22.700        33
22.720        47
22.740        20
22.760        50
22.780        23
22.800        47
22.820        57
22.840        57
22.860        57
22.880        40
22.900        47
22.920        70
22.940        50
22.960        40
22.980        47
23.000        57
23.020        57
23.040        47
23.060        43
23.080        40
23.100        43
23.120        57
23.140        47
23.160        40
23.180        50
23.200        43
23.220        33
23.240        67
23.260        57
23.280        47
23.300        43
23.320        43
23.340        37
23.360        43
23.380        57
23.400        47
23.420        47
23.440        57
23.460        30
23.480        40
23.500        47
23.520        60
23.540        47
23.560        53
23.580        37
23.600        30
23.620        33
23.640        30
23.660        53
23.680        47
23.700        47
23.720        53
23.740        47
23.760        73
23.780        37
23.800        73
23.820        37
23.840        73
23.860        37
23.880        50
23.900        47
23.920        67
23.940        43
23.960        43
23.980        20
24.000        50
24.020        47
24.040        43
24.060        50
24.080        43
24.100        70
24.120        37
24.140        73
24.160        63
24.180        60
24.200        47
24.220        57
24.240        37
24.260        23
24.280        63
24.300        47
24.320        60
24.340        30
24.360        27
24.380        43
24.400        40
24.420        40
24.440        40
24.460        43
24.480        30
24.500        57
24.520        47
24.540        40
24.560        67
24.580        60
24.600        40
24.620        87
24.640        40
24.660        73
24.680        73
24.700        60
24.720        63
24.740        90
24.760        73
24.780        40
24.800        80
24.820        67
24.840        77
24.860        67
24.880        60
24.900        53
24.920        73
24.940        47
24.960        43
24.980        53
25.000        67
25.020        67
25.040        87
25.060        60
25.080        57
25.100        43
25.120        40
25.140        53
25.160        40
25.180        57
25.200        60
25.220        60
25.240       100
25.260       160
25.280       243
25.300       466
25.320       756
25.340       950
25.360       956
25.380      1250
25.400      1523
25.420      1423
25.440      1336
25.460      1050
25.480       850
25.500       626
25.520       553
25.540       586
25.560       603
25.580       816
25.600      1013
25.620       750
25.640       536
25.660       516
25.680       370
25.700       153
25.720       140
25.740       120
25.760        80
25.780        53
25.800        57
25.820        77
25.840        77
25.860        63
25.880        93
25.900        60
25.920        53
25.940        77
25.960        53
25.980        53
26.000        77
26.020        87
26.040        50
26.060        60
26.080        77
26.100        80
26.120        57
26.140        70
26.160        83
26.180        67
26.200        60
26.220        60
26.240        87
26.260        70
26.280        53
26.300        53
26.320        77
26.340        60
26.360        40
26.380        53
26.400        50
26.420        73
26.440        73
26.460        57
26.480        73
26.500        80
26.520        80
26.540        90
26.560        80
26.580        63
26.600        67
26.620       103
26.640        87
26.660        43
26.680        73
26.700        53
26.720        67
26.740        73
26.760        60
26.780        50
26.800        57
26.820        73
26.840        63
26.860        50
26.880        67
26.900       110
26.920        60
26.940        57
26.960        70
26.980        47
27.000        83
27.020        60
27.040        50
27.060        57
27.080        87
27.100        60
27.120        57
27.140        73
27.160        53
27.180        53
27.200        60
27.220        50
27.240        73
27.260        63
27.280        53
27.300        57
27.320        70
27.340        80
27.360        90
27.380        43
27.400        50
27.420        63
27.440        57
27.460        77
27.480        33
27.500        83
27.520        47
27.540        90
27.560        50
27.580        53
27.600        90
27.620        70
27.640        53
27.660        57
27.680        67
27.700        77
27.720       100
27.740        33
27.760        73
27.780        83
27.800        70
27.820        57
27.840        73
27.860        70
27.880        63
27.900        47
27.920        67
27.940        73
27.960        40
27.980        63
28.000        70
28.020        73
28.040        70
28.060        70
28.080        43
28.100        97
28.120        67
28.140        87
28.160        73
28.180        87
28.200       103
28.220        57
28.240        43
28.260        93
28.280        53
28.300        53
28.320        83
28.340        83
28.360       113
28.380        83
28.400        87
28.420        53
28.440        60
28.460        60
28.480       113
28.500        63
28.520        57
28.540        57
28.560        87
28.580        63
28.600        50
28.620        77
28.640        33
28.660        67
28.680        30
28.700        57
28.720        47
28.740        47
28.760        57
28.780        77
28.800        67
28.820        60
28.840       113
28.860        73
28.880        80
28.900        50
28.920        63
28.940        67
28.960        77
28.980        60
29.000        60
29.020        57
29.040        63
29.060        50
29.080        73
29.100        70
29.120        63
29.140        83
29.160        90
29.180        53
29.200        97
29.220       113
29.240        77
29.260        70
29.280       113
29.300       120
29.320       117
29.340        93
29.360       103
29.380        67
29.400        70
29.420        90
29.440        67
29.460        70
29.480        67
29.500        67
29.520        87
29.540        57
29.560        67
29.580        60
29.600        63
29.620        87
29.640        57
29.660        70
29.680        70
29.700        50
29.720        57
29.740        53
29.760        70
29.780        93
29.800        60
29.820        47
29.840        60
29.860        53
29.880        40
29.900        80
29.920        43
29.940        67
29.960        50
29.980        60
30.000        57
30.020       103
30.040        67
30.060        70
30.080        67
30.100        60
30.120        47
30.140        73
30.160        67
30.180        63
30.200        67
30.220        60
30.240        80
30.260        67
30.280        47
30.300        90
30.320        57
30.340        50
30.360        77
30.380        33
30.400        73
30.420        57
30.440        37
30.460        67
30.480        50
30.500        67
30.520        50
30.540        53
30.560        60
30.580        57
30.600        53
30.620        53
30.640        70
30.660        67
30.680        70
30.700        83
30.720        37
30.740        77
30.760        30
30.780        53
30.800        53
30.820        50
30.840        90
30.860        70
30.880        83
30.900        77
30.920        80
30.940        97
30.960       103
30.980       100
31.000       127
31.020        93
31.040       153
31.060       157
31.080       173
31.100       170
31.120       240
31.140       290
31.160       333
31.180       387
31.200       373
31.220       463
31.240       333
31.260       310
31.280       340
31.300       220
31.320       203
31.340       190
31.360       133
31.380       120
31.400        93
31.420       113
31.440       100
31.460       113
31.480        90
31.500        77
31.520        90
31.540        63
31.560        57
31.580        80
31.600        70
31.620        53
31.640        77
31.660        67
31.680        67
31.700        90
31.720        70
31.740        63
31.760        67
31.780        43
31.800        77
31.820        40
31.840        57
31.860        77
31.880        53
31.900        77
31.920        47
31.940        70
31.960        60
31.980       107
32.000        67
32.020        70
32.040        67
32.060        73
32.080        50
32.100        67
32.120        87
32.140        60
32.160       103
32.180        57
32.200        63
32.220        70
32.240        67
32.260        43
32.280        80
32.300        77
32.320        87
32.340        87
32.360        50
32.380        77
32.400        70
32.420        70
32.440        47
32.460        77
32.480        83
32.500        70
32.520        77
32.540        73
32.560        57
32.580        67
32.600        70
32.620        77
32.640        90
32.660        53
32.680        87
32.700        77
32.720        57
32.740        50
32.760        63
32.780        60
32.800        73
32.820        53
32.840        73
32.860        63
32.880        50
32.900        40
32.920        47
32.940        67
32.960        87
32.980        67
33.000        73
33.020        47
33.040        67
33.060        63
33.080        80
33.100        73
33.120        90
33.140        83
33.160        77
33.180        33
33.200        70
33.220        73
33.240        20
33.260        53
33.280        83
33.300       103
33.320        43
33.340        50
33.360        53
33.380        93
33.400        80
33.420        87
33.440        63
33.460        93
33.480        63
33.500        73
33.520        57
33.540        83
33.560        60
33.580        73
33.600        67
33.620        67
33.640        50
33.660        57
33.680        63
33.700        63
33.720        73
33.740        77
33.760        70
33.780        63
33.800        53
33.820        67
33.840        50
33.860        60
33.880        73
33.900        70
33.920        53
33.940        40
33.960        53
33.980        60
34.000        67
34.020        47
34.040        77
34.060        63
34.080        70
34.100        80
34.120        57
34.140        63
34.160       113
34.180        67
34.200       107
34.220        57
34.240        70
34.260        83
34.280        53
34.300        50
34.320        47
34.340        70
34.360        97
34.380        77
34.400        60
34.420        63
34.440        70
34.460        50
34.480        87
34.500        83
34.520        70
34.540        70
34.560        50
34.580        80
34.600        50
34.620        33
34.640        90
34.660        63
34.680        77
34.700        70
34.720        70
34.740        67
34.760        47
34.780        50
34.800        77
34.820        50
34.840        70
34.860        30
34.880        47
34.900        57
34.920        40
34.940        53
34.960        63
34.980        60
35.000        60
35.020        53
35.040        57
35.060        87
35.080        60
35.100        83
35.120        77
35.140        70
35.160        63
35.180        53
35.200        40
35.220        50
35.240        70
35.260        63
35.280        87
35.300        73
35.320        43
35.340        67
35.360        77
35.380        50
35.400        43
35.420        67
35.440        60
35.460        70
35.480        57
35.500        50
35.520        80
35.540        50
35.560        60
35.580        67
35.600        73
35.620        53
35.640        83
35.660        47
35.680        63
35.700        50
35.720       113
35.740        73
35.760        70
35.780        83
35.800        63
35.820        73
35.840        70
35.860        70
35.880        77
35.900        53
35.920        73
35.940        53
35.960        63
35.980        57
36.000        50
36.020        67
36.040        50
36.060        50
36.080        40
36.100        63
36.120        47
36.140        47
36.160        80
36.180        57
36.200        40
36.220        37
36.240        57
36.260        50
36.280        60
36.300        43
36.320        60
36.340        60
36.360        47
36.380        50
36.400        57
36.420        43
36.440        43
36.460        47
36.480        53
36.500        43
36.520        47
36.540        37
36.560        50
36.580        97
36.600        43
36.620        47
36.640        53
36.660        43
36.680        57
36.700        43
36.720        63
36.740        60
36.760        47
36.780        60
36.800        57
36.820        30
36.840        47
36.860        60
36.880        43
36.900        57
36.920        47
36.940        50
36.960        50
36.980        53
37.000        30
37.020        20
37.040        70
37.060        63
37.080        30
37.100        40
37.120        50
37.140        50
37.160        50
37.180        50
37.200       103
37.220        60
37.240        67
37.260        40
37.280        37
37.300        67
37.320        40
37.340        70
37.360        27
37.380        53
37.400        27
37.420        53
37.440        33
37.460        50
37.480        47
37.500        43
37.520        20
37.540        37
37.560        47
37.580        40
37.600        63
37.620        30
37.640        57
37.660        57
37.680        47
37.700        43
37.720        40
37.740        43
37.760        33
37.780        40
37.800        27
37.820        53
37.840        40
37.860        33
37.880        33
37.900        33
37.920        40
37.940        50
37.960        60
37.980        60
38.000        33
38.020        27
38.040        80
38.060        67
38.080        53
38.100        67
38.120        50
38.140        80
38.160        30
38.180        30
38.200        70
38.220        60
38.240        80
38.260        70
38.280        80
38.300       100
38.320       133
38.340       127
38.360       160
38.380       243
38.400       297
38.420       303
38.440       353
38.460       323
38.480       287
38.500       283
38.520       290
38.540       190
38.560       193
38.580       183
38.600       137
38.620       103
38.640        80
38.660        67
38.680        70
38.700        77
38.720        43
38.740        40
38.760        50
38.780        33
38.800        33
38.820        53
38.840        70
38.860        37
38.880        27
38.900        23
38.920        50
38.940        43
38.960        50
38.980        50
39.000        60
39.020        70
39.040        57
39.060        40
39.080        57
39.100        70
39.120        27
39.140        40
39.160        50
39.180        33
39.200        73
39.220        43
39.240        53
39.260        63
39.280        47
39.300        73
39.320        53
39.340        53
39.360        57
39.380        73
39.400        37
39.420        70
39.440        47
39.460        37
39.480        60
39.500        30
39.520        60
39.540        53
39.560        53
39.580        87
39.600        50
39.620        30
39.640        43
39.660        50
39.680        30
39.700        47
39.720        37
39.740        53
39.760        33
39.780        57
39.800        33
39.820        57
39.840        43
39.860        53
39.880        60
39.900        43
39.920        27
39.940        27
39.960        40
39.980        63
40.000        23
40.020        43
40.040        23
40.060        50
40.080        33
40.100        43
40.120        57
40.140        53
40.160        40
40.180        50
40.200        40
40.220        40
40.240        43
40.260        50
40.280        33
40.300        17
40.320        30
40.340        33
40.360        43
40.380        77
40.400        37
40.420        37
40.440        63
40.460        50
40.480        33
40.500        40
40.520        43
40.540        17
40.560        33
40.580        27
40.600        37
40.620        37
40.640        43
40.660        27
40.680        50
40.700        17
40.720        47
40.740        37
40.760        53
40.780        27
40.800        20
40.820        40
40.840        23
40.860        40
40.880        40
40.900        33
40.920        47
40.940        37
40.960        27
40.980        37
41.000        53
41.020        33
41.040        30
41.060        30
41.080        27
41.100        47
41.120        20
41.140        40
41.160        60
41.180        33
41.200        37
41.220        37
41.240        40
41.260        30
41.280        53
41.300        30
41.320        23
41.340        37
41.360        33
41.380        37
41.400        33
41.420        37
41.440        43
41.460        23
41.480        43
41.500        23
41.520        30
41.540        27
41.560        37
41.580        37
41.600        27
41.620        33
41.640        40
41.660        43
41.680        10
41.700        37
41.720        20
41.740        27
41.760        47
41.780        33
41.800        27
41.820        37
41.840        40
41.860        23
41.880        40
41.900        47
41.920        27
41.940        37
41.960        17
41.980        30
42.000        60
42.020        27
42.040        20
42.060        23
42.080        27
42.100        40
42.120        40
42.140        37
42.160        33
42.180        53
42.200        33
42.220        30
42.240        40
42.260        27
42.280        30
42.300        33
42.320        37
42.340        30
42.360        53
42.380        43
42.400        40
42.420        33
42.440        43
42.460        33
42.480        40
42.500        27
42.520        23
42.540        33
42.560        40
42.580        37
42.600        37
42.620        47
42.640        57
42.660        43
42.680        37
42.700        30
42.720        53
42.740        33
42.760        27
42.780        33
42.800        17
42.820        43
42.840        47
42.860        53
42.880        57
42.900        43
42.920        30
42.940        63
42.960        47
42.980        50
43.000        30
43.020        47
43.040        80
43.060        30
43.080        43
43.100        57
43.120        40
43.140        50
43.160        47
43.180        20
43.200        30
43.220        50
43.240        50
43.260        43
43.280        27
43.300        40
43.320        33
43.340        23
43.360        30
43.380        40
43.400        47
43.420        43
43.440        30
43.460        40
43.480        17
43.500        37
43.520        30
43.540        57
43.560        23
43.580        40
43.600        43
43.620        33
43.640        23
43.660        40
43.680        23
43.700        47
43.720        37
43.740        27
43.760        27
43.780        20
43.800        40
43.820        33
43.840        27
43.860        20
43.880        53
43.900        30
43.920        50
43.940        23
43.960        33
43.980        37
44.000        27
44.020        27
44.040        10
44.060        40
44.080        30
44.100        40
44.120        47
44.140        27
44.160        57
44.180        37
44.200        33
44.220        30
44.240        40
44.260        33
44.280        27
44.300        40
44.320        43
44.340        43
44.360        20
44.380        60
44.400        53
44.420        53
44.440        57
44.460        37
44.480        67
44.500        47
44.520        50
44.540        50
44.560        87
44.580        93
44.600       110
44.620       133
44.640       133
44.660       160
44.680       147
44.700       137
44.720       193
44.740       207
44.760       170
44.780       157
44.800       163
44.820       167
44.840       147
44.860       143
44.880        83
44.900       123
44.920       103
44.940        57
44.960        80
44.980        50
45.000        60
45.020        53
45.040        37
45.060        40
45.080        50
45.100        60
45.120        30
45.140        50
45.160        60
45.180        50
45.200        43
45.220        33
45.240        23
45.260        37
45.280        40
45.300        37
45.320        53
45.340        37
45.360        23
45.380        33
45.400        20
45.420        30
45.440        27
45.460        27
45.480        20
45.500        33
45.520        43
45.540        30
45.560        30
45.580        63
45.600        43
45.620        27
45.640        37
45.660        40
45.680        33
45.700        20
45.720        23
45.740        33
45.760        47
45.780        33
45.800        27
45.820        30
45.840         7
45.860        37
45.880        33
45.900        40
45.920        37
45.940        40
45.960        13
45.980        10
46.000        30
46.020        13
46.040        47
46.060        37
46.080        43
46.100        30
46.120        33
46.140        37
46.160        40
46.180        27
46.200        20
46.220        23
46.240        33
46.260        27
46.280        23
46.300        27
46.320        47
46.340        20
46.360        50
46.380        30
46.400        33
46.420        30
46.440        47
46.460        47
46.480        20
46.500        33
46.520        60
46.540        27
46.560        50
46.580        13
46.600        20
46.620        40
46.640        30
46.660        50
46.680        23
46.700        60
46.720        23
46.740        70
46.760        37
46.780        57
46.800        40
46.820        87
46.840        43
46.860        33
46.880        50
46.900        40
46.920        23
46.940        80
46.960        63
46.980        50
47.000        73
47.020        60
47.040        90
47.060        70
47.080       100
47.100        97
47.120       153
47.140       227
47.160       347
47.180       576
47.200       706
47.220       770
47.240       506
47.260       207
47.280       137
47.300        90
47.320        93
47.340        97
47.360        70
47.380        77
47.400        60
47.420        80
47.440        60
47.460        77
47.480        57
47.500        37
47.520        83
47.540        63
47.560        50
47.580        63
47.600        43
47.620        50
47.640        23
47.660        53
47.680        50
47.700        57
47.720        40
47.740        43
47.760        43
47.780        30
47.800        40
47.820        37
47.840        53
47.860        53
47.880        27
47.900        37
47.920        30
47.940        33
47.960        60
47.980        33
48.000        40
48.020        37
48.040        23
48.060        37
48.080        40
48.100        53
48.120        47
48.140        30
48.160        50
48.180        37
48.200        37
48.220        43
48.240        30
48.260        37
48.280        60
48.300        57
48.320        30
48.340        77
48.360        53
48.380        70
48.400        43
48.420        60
48.440        70
48.460        70
48.480        27
48.500        63
48.520        27
48.540        50
48.560        57
48.580        33
48.600        33
48.620        40
48.640        40
48.660        43
48.680        63
48.700        37
48.720        33
48.740        50
48.760        33
48.780        50
48.800        37
48.820        30
48.840        53
48.860        27
48.880        40
48.900        33
48.920        33
48.940        33
48.960        33
48.980        30
49.000        30
49.020        23
49.040        27
49.060        23
49.080        40
49.100        27
49.120        23
49.140        40
49.160        37
49.180        57
49.200        13
49.220        37
49.240        33
49.260        37
49.280        43
49.300        33
49.320        33
49.340        40
49.360        40
49.380        20
49.400        33
49.420        40
49.440        50
49.460        23
49.480        50
49.500        27
49.520        37
49.540        20
49.560        33
49.580        23
49.600        27
49.620        23
49.640        37
49.660        20
49.680        13
49.700        23
49.720        30
49.740        30
49.760        13
49.780        23
49.800        27
49.820        57
49.840        27
49.860        20
49.880        33
49.900        47
49.920        60
49.940        37
49.960        47
49.980        23
50.000        27
50.020        30
50.040        20
50.060        30
50.080        43
50.100        17
50.120        43
50.140        53
50.160        33
50.180        27
50.200        30
50.220        40
50.240        27
50.260        50
50.280        43
50.300        37
50.320        23
50.340        37
50.360        53
50.380        47
50.400        17
50.420        37
50.440        33
50.460        27
50.480        33
50.500        47
50.520        57
50.540        27
50.560        50
50.580        37
50.600        30
50.620        57
50.640        77
50.660       107
50.680       133
50.700       160
50.720       183
50.740       180
50.760       223
50.780       217
50.800       177
50.820       207
50.840       210
50.860       153
50.880       247
50.900       177
50.920       233
50.940       217
50.960       260
50.980       207
51.000       170
51.020       200
51.040       220
51.060       240
51.080       177
51.100       187
51.120       167
51.140       190
51.160       257
51.180       180
51.200       147
51.220       207
51.240       167
51.260       227
51.280       190
51.300       150
51.320       173
51.340       187
51.360       243
51.380       217
51.400       160
51.420       230
51.440       157
51.460       193
51.480       230
51.500       210
51.520       253
51.540       217
51.560       220
51.580       193
51.600       200
51.620       200
51.640       273
51.660       193
51.680       237
51.700       220
51.720       243
51.740       190
51.760       223
51.780       240
51.800       230
51.820       240
51.840       257
51.860       240
51.880       303
51.900       277
51.920       283
51.940       277
51.960       267
51.980       390
52.000       280
52.020       313
52.040       363
52.060       373
52.080       373
52.100       390
52.120       367
52.140       390
52.160       433
52.180       530
52.200       586
52.220       540
52.240       713
52.260       890
52.280      1339
52.300      1909
52.320      2272
52.340      3419
52.360      4008
52.380      4611
52.400      5568
52.420      5881
52.440      6034
52.460      6697
52.480      7587
52.500      8766
52.520     12618
52.540     24160
52.560     52712
52.580     80861
52.600     97468
52.620     92853
52.640     56018
52.660     24270
52.680     17953
52.700     29115
52.720     43339
52.740     52502
52.760     46941
52.780     28928
52.800     11066
52.820      4628
52.840      2776
52.860      1996
52.880      1513
52.900      1276
52.920      1173
52.940       970
52.960       850
52.980       710
53.000       570
53.020       503
53.040       536
53.060       480
53.080       486
53.100       463
53.120       480
53.140       410
53.160       387
53.180       373
53.200       373
53.220       340
53.240       293
53.260       343
53.280       283
53.300       327
53.320       373
53.340       283
53.360       263
53.380       283
53.400       287
53.420       280
53.440       237
53.460       233
53.480       260
53.500       307
53.520       260
53.540       253
53.560       253
53.580       187
53.600       227
53.620       243
53.640       217
53.660       217
53.680       207
53.700       203
53.720       223
53.740       177
53.760       197
53.780       200
53.800       167
53.820       227
53.840       210
53.860       160
53.880       177
53.900       183
53.920       173
53.940       133
53.960       167
53.980       180
54.000       160
54.020       193
54.040       160
54.060       200
54.080       173
54.100       200
54.120       197
54.140       177
54.160       143
54.180       170
54.200       157
54.220       120
54.240       163
54.260       123
54.280       167
54.300       147
54.320       147
54.340       113
54.360       170
54.380       167
54.400       153
54.420       153
54.440       170
54.460       137
54.480       153
54.500       193
54.520       120
54.540       120
54.560       170
54.580       127
54.600       150
54.620       143
54.640       103
54.660       137
54.680       157
54.700       130
54.720       173
54.740       180
54.760       120
54.780       153
54.800       153
54.820       127
54.840       127
54.860       130
54.880       127
54.900       150
54.920       167
54.940       113
54.960       167
54.980       170
55.000       133
55.020       157
55.040       147
55.060        97
55.080       117
55.100       140
55.120       150
55.140       153
55.160       183
55.180       113
55.200       147
55.220       123
55.240       180
55.260       107
55.280       137
55.300       133
55.320       113
55.340       150
55.360       120
55.380       110
55.400       120
55.420       170
55.440       143
55.460       117
55.480       153
55.500       157
55.520       140
55.540       157
55.560       150
55.580       133
55.600       180
55.620       223
55.640       167
55.660       113
55.680       137
55.700       127
55.720       137
55.740       163
55.760       133
55.780       160
55.800       140
55.820       120
55.840       130
55.860       123
55.880       167
55.900       120
55.920       150
55.940       133
55.960       143
55.980       100
56.000        93
56.020       157
56.040       107
56.060       130
56.080       167
56.100       113
56.120       133
56.140        93
56.160       107
56.180        83
56.200       117
56.220       127
56.240       100
56.260       137
56.280        77
56.300        93
56.320        97
56.340       150
56.360        93
56.380       117
56.400       107
56.420       123
56.440        83
56.460        87
56.480       123
56.500       120
56.520       120
56.540       123
56.560       100
56.580       117
56.600       117
56.620       153
56.640       107
56.660       107
56.680       107
56.700       110
56.720        97
56.740       120
56.760        83
56.780       150
56.800       100
56.820       113
56.840       123
56.860        83
56.880        80
56.900       110
56.920       140
56.940       110
56.960       120
56.980       147
57.000        80
57.020       107
57.040        93
57.060        90
57.080       140
57.100        97
57.120        97
57.140       127
57.160        83
57.180       113
57.200       113
57.220       117
57.240        70
57.260        97
57.280        87
57.300        97
57.320       140
57.340       113
57.360        77
57.380       103
57.400        87
57.420        97
57.440       123
57.460       103
57.480       110
57.500       103
57.520       100
57.540       117
57.560        67
57.580        73
57.600        73
57.620        90
57.640        93
57.660       103
57.680        83
57.700       100
57.720       127
57.740       100
57.760        97
57.780        67
57.800        90
57.820        57
57.840        93
57.860        73
57.880       107
57.900        73
57.920       120
57.940       100
57.960        73
57.980        87
58.000        63
58.020       140
58.040        90
58.060       110
58.080       123
58.100        63
58.120       127
58.140        83
58.160       100
58.180       110
58.200       100
58.220       107
58.240        90
58.260        93
58.280        73
58.300        77
58.320        60
58.340        87
58.360        60
58.380        90
58.400        80
58.420        77
58.440       100
58.460       120
58.480        73
58.500        87
58.520        70
58.540       103
58.560        70
58.580        87
58.600        63
58.620        67
58.640        90
58.660        60
58.680        67
58.700        93
58.720        73
58.740        93
58.760        73
58.780        97
58.800        93
58.820        83
58.840        77
58.860        80
58.880        83
58.900       100
58.920        63
58.940        87
58.960        53
58.980        70
59.000        40
59.020        73
59.040       100
59.060        73
59.080        80
59.100        87
59.120        60
59.140        87
59.160        73
59.180        73
59.200        83
59.220        53
59.240        80
59.260        63
59.280        73
59.300        83
59.320        70
59.340        90
59.360       100
59.380        50
59.400        70
59.420        60
59.440        80
59.460        73
59.480        60
59.500        73
59.520        73
59.540        83
59.560        90
59.580        50
59.600        67
59.620       103
59.640        90
59.660        80
59.680       113
59.700        73
59.720        87
59.740       107
59.760        97
59.780       117
59.800        90
59.820        43
59.840        73
59.860        83
59.880        97
59.900        83
59.920       107
59.940        73
59.960       100
59.980        47
60.000        47
