20.000        40
20.020        40
20.040        43
20.060        47
20.080        43
20.100        33
20.120        30
20.140        47
20.160        50
20.180        50
20.200        23
20.220        40
20.240        27
20.260        50
20.280        47
20.300        30
20.320        30
20.340        53
20.360        37
20.380        40
20.400        43
20.420        47
20.440        23
20.460        23
20.480        30
20.500        40
20.520        40
20.540        33
20.560        53
20.580        30
20.600        30
20.620        43
20.640        20
20.660        50
20.680        27
20.700        20
20.720        40
20.740        33
20.760        30
20.780        37
20.800        23
20.820        43
20.840        87
20.860        13
20.880        33
20.900        50
20.920        53
20.940        20
20.960        37
20.980        23
21.000        27
21.020        40
21.040        30
21.060        27
21.080        53
21.100        40
21.120        37
21.140        30
21.160        47
21.180        30
21.200        20
21.220        20
21.240        33
21.260        57
21.280        40
21.300        40
21.320        40
21.340        33
21.360        23
21.380        17
21.400        40
21.420        37
21.440        57
21.460        47
21.480        17
21.500        17
21.520        53
21.540        33
21.560        27
21.580        23
21.600        33
21.620        33
21.640        40
21.660        33
21.680        33
21.700        37
21.720        53
21.740        23
21.760        27
21.780        40
21.800        20
21.820        53
21.840        50
21.860        33
21.880        23
21.900        20
21.920        43
21.940        50
21.960        50
21.980        20
22.000        50
22.020        53
22.040        33
22.060        47
22.080        47
22.100        27
22.120        17
22.140        53
22.160        27
22.180        50
22.200        33
22.220        23
22.240        20
22.260        27
22.280        27
22.300        43
22.320        17
22.340        17
22.360        57
22.380        50
22.400        40
22.420        50
22.440        23
22.460        17
22.480        33
22.500        50
22.520        43
22.540        30
22.560        47
22.580        33
22.600        37
22.620        13
22.640        50
22.660        33
22.680        27
22.700        33
22.720        33
22.740        43
22.760        30
22.780        43
22.800        43
22.820        37
22.840        33
22.860        60
22.880        23
22.900        23
22.920        40
22.940        30
22.960        23
22.980        30
23.000        37
23.020        27
23.040        37
23.060        43
23.080        37
23.100        13
23.120        27
23.140        37
23.160        30
23.180        23
23.200        33
23.220        30
23.240        27
23.260        17
23.280        30
23.300        30
23.320        53
23.340        33
23.360        27
23.380        30
23.400        40
23.420        33
23.440        37
23.460        40
23.480        27
23.500        33
23.520        17
23.540        37
23.560        47
23.580        20
23.600        17
23.620        27
23.640        23
23.660        33
23.680        40
23.700        50
23.720        27
23.740        30
23.760        23
23.780        27
23.800        43
23.820        30
23.840        13
23.860        30
23.880        23
23.900        27
23.920        40
23.940        23
23.960        33
23.980        37
24.000        23
24.020        50
24.040        30
24.060        33
24.080        37
24.100        43
24.120        23
24.140        37
24.160        33
24.180        30
24.200        27
24.220        20
24.240        33
24.260        33
24.280        27
24.300        23
24.320        43
24.340        27
24.360        30
24.380        57
24.400        23
24.420        50
24.440        33
24.460        20
24.480        23
24.500        43
24.520        20
24.540        40
24.560        23
24.580        20
24.600        43
24.620        17
24.640        43
24.660        30
24.680        53
24.700        30
24.720        30
24.740        67
24.760        33
24.780        23
24.800        27
24.820        30
24.840        30
24.860        43
24.880        23
24.900        30
24.920        33
24.940        33
24.960        40
24.980        10
25.000        17
25.020        27
25.040        20
25.060        30
25.080        43
25.100        17
25.120        33
25.140        27
25.160        23
25.180        43
25.200        20
25.220        27
25.240        37
25.260        23
25.280        30
25.300        30
25.320        27
25.340        43
25.360        27
25.380        23
25.400        23
25.420        27
25.440        37
25.460        23
25.480        30
25.500        23
25.520        30
25.540        20
25.560        27
25.580        40
25.600        27
25.620        37
25.640        17
25.660        30
25.680        27
25.700        47
25.720        13
25.740        40
25.760        27
25.780        27
25.800        13
25.820        40
25.840        20
25.860        33
25.880        27
25.900        13
25.920        10
25.940        27
25.960        23
25.980        47
26.000        47
26.020        17
26.040        30
26.060        40
26.080        33
26.100        37
26.120        20
26.140        40
26.160        23
26.180        13
26.200        20
26.220        50
26.240        23
26.260        27
26.280        27
26.300        27
26.320        20
26.340        50
26.360        27
26.380        60
26.400        33
26.420        20
26.440        13
26.460        33
26.480        20
26.500        27
26.520        27
26.540        20
26.560        13
26.580        23
26.600        17
26.620        33
26.640        50
26.660        17
26.680        30
26.700        17
26.720        17
26.740        47
26.760        47
26.780        33
26.800        30
26.820        27
26.840        23
26.860        37
26.880        17
26.900        47
26.920        30
26.940        20
26.960        20
26.980        20
27.000        30
27.020        20
27.040        27
27.060        10
27.080        17
27.100        27
27.120        23
27.140        17
27.160        27
27.180        33
27.200        13
27.220        23
27.240        33
27.260        20
27.280        23
27.300        30
27.320        17
27.340        17
27.360        47
27.380        30
27.400        13
27.420        13
27.440        17
27.460        30
27.480        27
27.500        23
27.520        20
27.540        47
27.560        27
27.580        23
27.600        30
27.620        30
27.640        27
27.660        13
27.680        13
27.700        23
27.720        27
27.740        23
27.760        20
27.780        40
27.800        13
27.820        13
27.840        23
27.860        13
27.880        23
27.900        30
27.920        13
27.940        20
27.960        53
27.980        27
28.000        37
28.020        33
28.040        23
28.060        13
28.080         7
28.100        17
28.120        23
28.140        37
28.160        23
28.180        13
28.200        30
28.220        23
28.240        27
28.260        27
28.280        30
28.300        23
28.320        40
28.340        37
28.360        23
28.380        37
28.400        20
28.420        20
28.440        47
28.460        20
28.480        20
28.500        33
28.520        17
28.540        13
28.560        20
28.580        43
28.600        13
28.620        30
28.640        17
28.660        37
28.680        37
28.700        20
28.720        37
28.740        33
28.760        33
28.780        30
28.800        37
28.820        30
28.840        40
28.860        30
28.880        17
28.900        23
28.920        37
28.940        20
28.960        20
28.980        20
29.000        23
29.020        20
29.040        33
29.060        17
29.080        23
29.100        17
29.120        27
29.140        23
29.160        17
29.180        20
29.200        27
29.220        13
29.240        17
29.260        13
29.280        23
29.300        27
29.320        33
29.340        23
29.360        30
29.380        27
29.400        17
29.420        20
29.440        30
29.460        27
29.480        43
29.500        30
29.520        20
29.540        20
29.560        27
29.580        20
29.600        13
29.620        33
29.640        40
29.660        30
29.680        33
29.700        27
29.720        20
29.740        10
29.760        33
29.780        27
29.800        23
29.820        17
29.840        37
29.860        30
29.880        10
29.900        27
29.920        20
29.940        23
29.960        23
29.980        17
30.000        23
30.020        23
30.040        10
30.060        23
30.080        17
30.100        20
30.120        30
30.140        17
30.160        37
30.180        40
30.200        27
30.220        33
30.240         7
30.260        20
30.280        17
30.300        37
30.320        17
30.340        27
30.360        40
30.380        43
30.400        30
30.420        20
30.440        40
30.460        40
30.480        30
30.500        33
30.520        20
30.540        23
30.560        37
30.580        40
30.600        50
30.620        33
30.640        17
30.660        47
30.680        20
30.700        23
30.720        37
30.740        33
30.760        30
30.780        37
30.800        40
30.820        43
30.840        57
30.860        47
30.880        30
30.900        50
30.920        27
30.940        57
30.960        43
30.980        63
31.000        83
31.020       117
31.040       110
31.060       137
31.080       120
31.100       157
31.120       247
31.140       230
31.160       327
31.180       347
31.200       636
31.220       680
31.240       756
31.260       750
31.280       830
31.300       816
31.320       700
31.340       620
31.360       456
31.380       410
31.400       290
31.420       197
31.440       193
31.460       117
31.480       140
31.500        80
31.520        67
31.540        77
31.560        70
31.580        43
31.600        43
31.620        37
31.640        50
31.660        43
31.680        47
31.700        50
31.720        20
31.740        23
31.760        30
31.780        17
31.800        20
31.820        27
31.840        23
31.860        33
31.880        20
31.900        47
31.920        50
31.940        10
31.960        27
31.980        37
32.000        40
32.020        33
32.040        30
32.060        33
32.080        20
32.100        23
32.120        23
32.140        20
32.160        27
32.180        30
32.200        23
32.220        23
32.240        37
32.260        40
32.280        23
32.300        30
32.320        23
32.340        27
32.360        30
32.380        23
32.400        37
32.420        23
32.440        23
32.460        30
32.480        20
32.500        20
32.520        23
32.540        17
32.560        23
32.580        20
32.600        17
32.620        20
32.640        27
32.660        20
32.680        17
32.700        17
32.720        23
32.740        23
32.760        13
32.780        20
32.800        13
32.820        37
32.840        40
32.860        17
32.880        40
32.900        27
32.920        23
32.940        23
32.960        20
32.980        37
33.000        17
33.020        27
33.040        27
33.060        47
33.080        13
33.100        20
33.120        27
33.140        23
33.160        23
33.180        27
33.200        17
33.220        17
33.240        17
33.260        20
33.280        27
33.300        30
33.320        43
33.340        20
33.360        17
33.380        33
33.400        23
33.420        30
33.440        23
33.460        33
33.480        30
33.500        20
33.520        17
33.540        23
33.560        17
33.580        30
33.600        27
33.620        30
33.640        30
33.660        37
33.680        23
33.700        20
33.720        27
33.740        43
33.760        23
33.780        30
33.800        30
33.820        23
33.840        27
33.860        30
33.880        60
33.900        50
33.920        30
33.940        53
33.960        40
33.980        60
34.000        47
34.020        67
34.040        70
34.060        73
34.080        53
34.100        67
34.120        67
34.140        77
34.160        87
34.180        70
34.200        77
34.220        50
34.240        60
34.260        73
34.280        37
34.300        53
34.320        43
34.340        43
34.360        47
34.380        20
34.400        40
34.420        43
34.440        37
34.460        40
34.480        33
34.500        43
34.520        30
34.540        43
34.560        30
34.580        20
34.600        23
34.620        17
34.640        13
34.660        23
34.680        17
34.700        17
34.720        20
34.740        23
34.760        17
34.780        10
34.800        13
34.820        27
34.840        13
34.860        10
34.880        30
34.900        23
34.920        43
34.940        17
34.960        30
34.980         3
35.000        13
35.020        20
35.040        20
35.060        23
35.080        43
35.100        30
35.120        17
35.140        37
35.160         7
35.180        17
35.200        37
35.220        30
35.240        17
35.260        33
35.280        20
35.300        27
35.320        20
35.340        23
35.360        17
35.380        20
35.400        13
35.420        30
35.440        13
35.460        17
35.480        17
35.500        23
35.520        10
35.540        30
35.560        10
35.580        13
35.600        17
35.620        23
35.640        17
35.660        27
35.680        13
35.700        30
35.720        13
35.740        27
35.760        17
35.780        23
35.800        23
35.820        10
35.840        40
35.860        13
35.880        17
35.900        33
35.920        13
35.940        23
35.960        37
35.980        17
36.000        23
36.020        30
36.040        23
36.060        23
36.080        17
36.100        33
36.120        10
36.140        23
36.160        13
36.180        17
36.200        10
36.220        37
36.240        30
36.260        37
36.280        20
36.300        20
36.320        13
36.340        33
36.360        23
36.380         3
36.400        17
36.420        27
36.440        47
36.460        33
36.480        33
36.500        20
36.520        20
36.540        30
36.560        23
36.580        17
36.600        13
36.620        33
36.640        27
36.660        30
36.680        30
36.700        33
36.720        13
36.740        23
36.760        20
36.780        20
36.800        30
36.820        17
36.840        27
36.860        37
36.880        13
36.900        23
36.920         7
36.940        20
36.960        13
36.980        20
37.000        23
37.020        20
37.040         7
37.060        13
37.080        17
37.100        23
37.120        23
37.140        30
37.160        10
37.180        27
37.200        17
37.220        17
37.240        17
37.260        13
37.280        23
37.300        10
37.320        23
37.340        23
37.360        37
37.380        23
37.400        17
37.420        27
37.440        20
37.460        23
37.480        37
37.500        20
37.520        13
37.540        33
37.560        10
37.580        23
37.600        17
37.620         7
37.640        13
37.660        10
37.680        10
37.700        17
37.720        20
37.740        30
37.760        40
37.780        23
37.800        30
37.820        13
37.840        17
37.860        20
37.880        17
37.900        27
37.920        30
37.940        33
37.960        20
37.980        17
38.000        23
38.020        20
38.040        13
38.060        37
38.080        13
38.100        30
38.120        30
38.140        23
38.160        40
38.180        37
38.200        27
38.220        13
38.240        53
38.260        27
38.280        27
38.300        43
38.320        37
38.340        37
38.360        57
38.380        50
38.400        37
38.420        27
38.440        43
38.460        57
38.480        67
38.500        73
38.520        77
38.540        83
38.560        80
38.580        77
38.600        60
38.620        90
38.640        77
38.660        50
38.680        30
38.700        43
38.720        50
38.740        47
38.760        43
38.780        37
38.800        27
38.820        23
38.840        40
38.860        27
38.880        23
38.900        27
38.920        23
38.940        27
38.960        23
38.980        13
39.000        30
39.020        20
39.040        10
39.060        23
39.080        13
39.100        13
39.120        13
39.140        20
39.160        20
39.180        30
39.200        27
39.220        23
39.240        27
39.260        17
39.280        13
39.300        17
39.320        27
39.340        17
39.360        13
39.380        27
39.400        33
39.420        13
39.440        17
39.460        27
39.480        10
39.500        23
39.520        13
39.540        10
39.560        17
39.580        13
39.600        10
39.620        13
39.640        33
39.660        13
39.680        17
39.700        23
39.720        33
39.740         7
39.760        17
39.780        23
39.800        37
39.820        10
39.840        20
39.860        20
39.880         7
39.900        20
39.920        20
39.940        10
39.960        33
39.980        27
40.000        17
40.020        17
40.040        23
40.060        10
40.080        27
40.100        17
40.120        20
40.140        13
40.160        13
40.180        13
40.200         7
40.220        10
40.240        27
40.260        13
40.280        23
40.300         0
40.320        13
40.340         0
40.360        13
40.380        23
40.400        10
40.420         3
40.440        17
40.460         7
40.480        13
40.500        17
40.520        13
40.540        17
40.560        13
40.580        10
40.600        17
40.620         7
40.640        13
40.660        20
40.680        17
40.700        13
40.720        20
40.740        13
40.760        23
40.780         7
40.800        10
40.820        30
40.840        13
40.860        17
40.880        13
40.900        17
40.920        30
40.940        17
40.960        10
40.980        13
41.000        17
41.020        20
41.040        10
41.060        27
41.080        13
41.100        13
41.120        37
41.140        37
41.160         7
41.180        20
41.200         7
41.220        17
41.240        10
41.260        17
41.280        10
41.300        30
41.320        10
41.340        20
41.360         3
41.380        23
41.400         7
41.420        20
41.440        30
41.460        13
41.480        17
41.500        17
41.520        10
41.540        27
41.560        30
41.580        37
41.600        30
41.620        43
41.640        30
41.660        40
41.680        23
41.700        30
41.720        50
41.740        50
41.760        43
41.780        13
41.800        33
41.820        30
41.840        27
41.860        30
41.880        23
41.900        13
41.920        27
41.940        17
41.960        17
41.980        40
42.000        23
42.020        10
42.040        10
42.060        13
42.080        13
42.100         7
42.120        27
42.140        10
42.160        20
42.180        23
42.200        17
42.220        13
42.240        13
42.260        17
42.280        13
42.300        20
42.320        20
42.340        37
42.360        30
42.380        13
42.400        27
42.420        10
42.440        13
42.460        27
42.480        13
42.500        23
42.520         3
42.540        17
42.560        20
42.580        27
42.600        33
42.620         3
42.640        10
42.660        10
42.680        13
42.700        13
42.720        17
42.740         7
42.760        23
42.780        17
42.800        10
42.820        17
42.840        13
42.860         7
42.880         7
42.900        23
42.920        23
42.940        13
42.960        13
42.980        20
43.000        13
43.020        27
43.040        20
43.060        33
43.080        27
43.100        10
43.120        33
43.140        17
43.160        20
43.180        10
43.200        27
43.220        23
43.240        20
43.260        27
43.280        13
43.300        10
43.320        33
43.340        60
43.360        67
43.380        93
43.400       103
43.420        57
43.440        30
43.460        20
43.480        53
43.500        43
43.520        47
43.540        47
43.560        33
43.580        10
43.600        23
43.620        20
43.640        33
43.660         3
43.680        23
43.700        23
43.720        13
43.740        27
43.760        20
43.780        20
43.800        27
43.820        20
43.840        13
43.860         7
43.880        20
43.900        17
43.920        27
43.940        23
43.960        13
43.980        17
44.000        20
44.020        23
44.040        13
44.060        10
44.080        17
44.100        20
44.120        10
44.140        30
44.160        23
44.180        37
44.200        17
44.220        27
44.240        20
44.260        20
44.280        27
44.300        13
44.320        20
44.340        23
44.360        13
44.380        20
44.400        20
44.420         7
44.440        27
44.460        27
44.480         7
44.500        13
44.520        17
44.540        10
44.560        27
44.580        10
44.600        20
44.620        33
44.640        10
44.660        17
44.680        27
44.700        13
44.720         7
44.740        13
44.760        30
44.780        23
44.800        27
44.820        30
44.840        10
44.860        23
44.880        20
44.900        20
44.920        33
44.940        23
44.960        23
44.980         7
45.000        17
45.020        20
45.040        27
45.060        33
45.080        10
45.100         3
45.120        23
45.140        27
45.160        20
45.180        27
45.200        10
45.220        10
45.240         3
45.260        13
45.280        30
45.300        27
45.320         3
45.340        40
45.360        37
45.380        13
45.400        20
45.420        17
45.440        17
45.460        27
45.480        10
45.500        23
45.520        10
45.540        17
45.560        30
45.580        33
45.600        13
45.620        27
45.640         0
45.660        23
45.680        17
45.700        13
45.720        17
45.740        17
45.760        27
45.780        10
45.800        13
45.820         7
45.840        13
45.860         3
45.880        13
45.900        20
45.920         7
45.940        17
45.960        13
45.980         0
46.000         3
46.020         7
46.040        17
46.060        20
46.080        13
46.100        17
46.120        23
46.140        13
46.160        23
46.180        13
46.200        23
46.220        23
46.240        17
46.260        27
46.280        20
46.300        30
46.320         7
46.340        27
46.360        20
46.380        30
46.400         3
46.420        20
46.440        13
46.460        17
46.480        27
46.500        10
46.520        23
46.540        17
46.560        13
46.580        23
46.600        27
46.620        17
46.640        27
46.660        10
46.680        17
46.700        20
46.720        20
46.740        23
46.760        20
46.780        20
46.800        17
46.820        17
46.840        13
46.860        23
46.880         7
46.900        17
46.920        17
46.940        37
46.960         3
46.980        13
47.000        20
47.020        20
47.040        10
47.060        13
47.080        40
47.100        23
47.120        30
47.140        10
47.160        17
47.180        20
47.200        17
47.220        10
47.240        33
47.260        13
47.280        37
47.300         7
47.320        17
47.340        13
47.360        20
47.380        27
47.400        27
47.420        17
47.440        33
47.460        30
47.480        23
47.500        27
47.520        13
47.540        20
47.560        20
47.580        30
47.600         7
47.620        10
47.640        20
47.660        27
47.680        10
47.700        23
47.720        17
47.740        17
47.760        13
47.780        10
47.800        40
47.820        23
47.840        27
47.860        13
47.880        20
47.900         3
47.920        23
47.940        13
47.960        20
47.980        10
48.000        17
48.020        30
48.040        10
48.060        23
48.080        17
48.100        17
48.120        20
48.140        17
48.160        10
48.180        13
48.200        17
48.220        17
48.240        23
48.260        13
48.280        20
48.300        27
48.320        13
48.340        13
48.360        17
48.380         3
48.400        10
48.420        23
48.440        20
48.460        23
48.480        23
48.500        20
48.520        20
48.540        27
48.560        10
48.580        13
48.600        17
48.620        20
48.640        17
48.660        13
48.680        20
48.700        13
48.720        17
48.740         7
48.760        20
48.780        20
48.800        13
48.820        13
48.840        20
48.860        10
48.880        13
48.900        27
48.920        23
48.940        30
48.960        13
48.980        13
49.000        23
49.020        30
49.040         7
49.060        20
49.080        10
49.100        10
49.120        17
49.140        17
49.160         7
49.180        23
49.200         7
49.220        13
49.240        13
49.260        17
49.280        17
49.300        23
49.320        13
49.340        10
49.360        20
49.380        13
49.400         7
49.420        17
49.440        13
49.460        20
49.480        17
49.500        10
49.520        17
49.540        23
49.560        10
49.580        10
49.600         7
49.620        23
49.640        23
49.660        20
49.680         0
49.700        10
49.720         3
49.740        23
49.760        13
49.780         7
49.800        20
49.820        17
49.840        23
49.860        13
49.880        13
49.900         0
49.920        10
49.940        17
49.960        13
49.980        13
50.000        10
50.020        13
50.040        10
50.060        20
50.080        10
50.100        13
50.120        30
50.140        13
50.160         3
50.180        10
50.200        17
50.220        17
50.240        20
50.260        10
50.280        10
50.300        10
50.320        10
50.340        10
50.360        13
50.380        17
50.400        30
50.420        27
50.440        17
50.460        27
50.480        23
50.500        33
50.520        20
50.540        17
50.560        17
50.580        20
50.600        13
50.620        30
50.640        17
50.660         7
50.680        27
50.700         0
50.720        20
50.740        20
50.760        13
50.780         7
50.800         7
50.820        17
50.840        17
50.860        13
50.880        13
50.900        13
50.920        17
50.940        37
50.960        13
50.980        10
51.000         7
51.020        23
51.040        17
51.060        20
51.080        17
51.100        13
51.120        17
51.140        17
51.160        13
51.180        20
51.200        17
51.220        10
51.240        13
51.260        30
51.280        10
51.300         7
51.320        20
51.340        10
51.360        10
51.380        13
51.400        17
51.420         3
51.440         7
51.460         3
51.480        10
51.500         7
51.520        17
51.540        17
51.560        20
51.580        10
51.600        13
51.620        17
51.640        10
51.660        10
51.680         7
51.700        20
51.720        10
51.740        17
51.760        13
51.780        10
51.800        13
51.820        30
51.840        10
51.860        10
51.880        33
51.900         7
51.920        30
51.940        27
51.960        13
51.980        13
52.000        13
52.020        17
52.040        23
52.060        23
52.080        17
52.100        20
52.120        10
52.140        23
52.160        13
52.180        13
52.200        13
52.220        13
52.240        13
52.260        17
52.280         7
52.300        17
52.320        17
52.340        17
52.360         0
52.380        17
52.400        20
52.420        13
52.440        20
52.460        30
52.480        17
52.500        10
52.520        10
52.540        23
52.560        23
52.580        13
52.600        20
52.620        20
52.640        23
52.660        13
52.680        27
52.700        17
52.720        17
52.740        17
52.760        17
52.780        10
52.800        20
52.820        30
52.840        17
52.860        33
52.880        13
52.900        27
52.920        23
52.940        10
52.960        10
52.980        17
53.000        13
53.020        23
53.040        20
53.060        10
53.080        13
53.100        13
53.120        13
53.140        23
53.160        27
53.180        27
53.200        10
53.220        30
53.240        10
53.260        10
53.280        10
53.300        10
53.320        13
53.340        23
53.360         3
53.380        17
53.400        30
53.420         7
53.440        10
53.460        10
53.480        17
53.500        17
53.520        13
53.540         0
53.560         7
53.580        27
53.600        23
53.620        10
53.640         3
53.660        20
53.680        20
53.700        10
53.720         3
53.740        13
53.760        13
53.780        20
53.800        17
53.820        20
53.840        30
53.860        23
53.880        20
53.900        10
53.920        20
53.940         7
53.960        17
53.980        20
54.000        13
54.020        17
54.040        20
54.060        10
54.080        27
54.100        30
54.120         7
54.140        17
54.160        20
54.180         7
54.200        33
54.220        13
54.240        17
54.260        23
54.280         7
54.300        20
54.320        13
54.340        23
54.360        33
54.380        23
54.400        23
54.420        13
54.440        33
54.460        10
54.480        20
54.500        10
54.520        13
54.540        30
54.560        27
54.580        13
54.600        13
54.620        20
54.640        40
54.660        10
54.680        23
54.700        17
54.720        13
54.740        13
54.760        13
54.780        23
54.800        27
54.820        13
54.840        20
54.860        10
54.880        27
54.900        23
54.920        23
54.940        37
54.960        27
54.980        20
55.000        30
55.020        30
55.040        13
55.060        40
55.080        40
55.100        53
55.120        47
55.140        40
55.160        40
55.180        37
55.200        30
55.220        37
55.240        40
55.260        63
55.280        63
55.300       103
55.320        97
55.340       107
55.360        93
55.380        97
55.400       133
55.420       143
55.440       240
55.460       220
55.480       313
55.500       410
55.520       543
55.540       620
55.560       710
55.580       853
55.600       873
55.620       913
55.640      1056
55.660      1013
55.680      1013
55.700       916
55.720       756
55.740       770
55.760       673
55.780       636
55.800       670
55.820       543
55.840       446
55.860       383
55.880       283
55.900       223
55.920       197
55.940       167
55.960       153
55.980       120
56.000       107
56.020       117
56.040        87
56.060        63
56.080        50
56.100        67
56.120        53
56.140        70
56.160        33
56.180        67
56.200        53
56.220        60
56.240        33
56.260        40
56.280        40
56.300        27
56.320        47
56.340        23
56.360        30
56.380        27
56.400        23
56.420        47
56.440        23
56.460        43
56.480        37
56.500        20
56.520        20
56.540        33
56.560        17
56.580        30
56.600        27
56.620        23
56.640        17
56.660        20
56.680        30
56.700        23
56.720        20
56.740        27
56.760         7
56.780        13
56.800        17
56.820        20
56.840         7
56.860        23
56.880        33
56.900         7
56.920        13
56.940        13
56.960        23
56.980        17
57.000        17
57.020        23
57.040        17
57.060        10
57.080        27
57.100        20
57.120        17
57.140        30
57.160        27
57.180         3
57.200        10
57.220        27
57.240        13
57.260        23
57.280         7
57.300        23
57.320        37
57.340        10
57.360        13
57.380        23
57.400        27
57.420        27
57.440        17
57.460        50
57.480        27
57.500        47
57.520        27
57.540        40
57.560        30
57.580        50
57.600        13
57.620        20
57.640        27
57.660        30
57.680        20
57.700        17
57.720        23
57.740        30
57.760        30
57.780        27
57.800        23
57.820        27
57.840        17
57.860        23
57.880         3
57.900        10
57.920        10
57.940        13
57.960        10
57.980         7
58.000         7
58.020        27
58.040        13
58.060        23
58.080        17
58.100         3
58.120         7
58.140        20
58.160        17
58.180        10
58.200        23
58.220         7
58.240        13
58.260        30
58.280        13
58.300         7
58.320        20
58.340        13
58.360        17
58.380        27
58.400        17
58.420        20
58.440        30
58.460        23
58.480        20
58.500        33
58.520        20
58.540        13
58.560         7
58.580        23
58.600        17
58.620         3
58.640        23
58.660        13
58.680        23
58.700        17
58.720        13
58.740        20
58.760        10
58.780        27
58.800         7
58.820        20
58.840        10
58.860         7
58.880        13
58.900         3
58.920        13
58.940         3
58.960        13
58.980         3
59.000        20
59.020         7
59.040        17
59.060        13
59.080        23
59.100         7
59.120        17
59.140        17
59.160        17
59.180         7
59.200        13
59.220         3
59.240        23
59.260        10
59.280        13
59.300        13
59.320        10
59.340        17
59.360        13
59.380        13
59.400        13
59.420        10
59.440        17
59.460        10
59.480        17
59.500         0
59.520        13
59.540        10
59.560        17
59.580         3
59.600        13
59.620        20
59.640         7
59.660        17
59.680        17
59.700         3
59.720        13
59.740        17
59.760         7
59.780        13
59.800         7
59.820        20
59.840        27
59.860        17
59.880        17
59.900        27
59.920        20
59.940        17
59.960        10
59.980        20
60.000        20
