20.000        27
20.020        33
20.040        67
20.060        67
20.080        27
20.100        50
20.120        43
20.140        50
20.160        60
20.180        53
20.200        37
20.220        33
20.240        40
20.260        37
20.280        23
20.300        30
20.320        57
20.340        50
20.360        40
20.380        33
20.400        57
20.420        40
20.440        43
20.460        50
20.480        40
20.500        53
20.520        40
20.540        27
20.560        57
20.580        37
20.600        63
20.620        43
20.640        63
20.660        47
20.680        33
20.700        37
20.720        47
20.740        33
20.760        47
20.780        53
20.800        40
20.820        40
20.840        50
20.860        40
20.880        43
20.900        43
20.920        33
20.940        43
20.960        23
20.980        30
21.000        30
21.020        27
21.040        47
21.060        23
21.080        67
21.100        53
21.120        63
21.140        20
21.160        47
21.180        33
21.200        53
21.220        37
21.240        17
21.260        43
21.280        40
21.300        50
21.320        40
21.340        50
21.360        23
21.380        53
21.400        50
21.420        17
21.440        47
21.460        63
21.480        47
21.500        60
21.520        40
21.540        50
21.560        47
21.580        30
21.600        63
21.620        30
21.640        53
21.660        33
21.680        47
21.700        50
21.720        47
21.740        40
21.760        43
21.780        73
21.800        77
21.820        57
21.840       107
21.860        90
21.880       107
21.900       143
21.920       120
21.940       187
21.960       173
21.980       163
22.000       163
22.020       133
22.040        73
22.060       123
22.080        83
22.100        37
22.120        67
22.140        30
22.160        57
22.180        50
22.200        47
22.220        43
22.240        73
22.260        40
22.280        50
22.300        47
22.320        37
22.340        40
22.360        40
22.380        50
22.400        27
22.420        47
22.440        43
22.460        37
22.480        43
22.500        30
22.520        50
22.540        20
22.560        37
22.580        37
22.600        37
22.620        30
22.640        60
22.660        30
22.680        33
22.700        47
22.720        50
22.740        30
22.760        43
22.780        47
22.800        50
22.820        40
22.840        33
22.860        30
22.880        30
22.900        43
22.920        40
22.940        47
22.960        50
22.980        43
23.000        40
23.020        33
23.040        30
23.060        20
23.080        57
23.100        37
23.120        40
23.140        30
23.160        40
23.180        40
23.200        43
23.220        37
23.240        33
23.260        43
23.280        20
23.300        20
23.320        30
23.340        30
23.360        57
23.380        33
23.400        40
23.420        33
23.440        37
23.460        40
23.480        17
23.500        30
23.520        20
23.540        30
23.560        23
23.580        10
23.600        47
23.620        23
23.640        27
23.660        27
23.680        60
23.700        60
23.720        20
23.740        27
23.760        47
23.780        37
23.800        27
23.820        23
23.840        37
23.860        33
23.880        27
23.900        53
23.920        27
23.940        53
23.960        33
23.980        23
24.000        33
24.020        27
24.040        43
24.060        33
24.080        23
24.100        43
24.120        20
24.140        47
24.160        37
24.180        30
24.200        23
24.220        33
24.240        23
24.260        67
24.280        43
24.300        37
24.320        23
24.340        40
24.360        23
24.380        27
24.400        43
24.420        60
24.440        50
24.460        27
24.480        27
24.500        33
24.520        60
24.540        37
24.560        40
24.580        27
24.600        60
24.620        23
24.640        30
24.660        37
24.680        37
24.700        27
24.720        37
24.740        33
24.760        40
24.780        30
24.800        30
24.820        37
24.840        27
24.860        47
24.880        50
24.900        40
24.920        50
24.940        40
24.960        47
24.980        30
25.000        20
25.020        13
25.040        17
25.060        47
25.080        43
25.100        47
25.120        30
25.140        27
25.160        20
25.180        37
25.200        23
25.220        13
25.240        23
25.260        40
25.280        23
25.300        30
25.320        33
25.340        23
25.360        27
25.380        43
25.400        17
25.420        37
25.440        30
25.460        20
25.480        33
25.500        23
25.520        10
25.540        33
25.560        20
25.580        43
25.600        43
25.620        27
25.640        40
25.660        40
25.680        20
25.700        37
25.720        43
25.740        23
25.760        17
25.780        43
25.800        23
25.820        13
25.840        27
25.860        17
25.880        40
25.900        17
25.920        17
25.940        23
25.960        43
25.980        30
26.000        30
26.020        40
26.040        77
26.060        27
26.080        40
26.100        40
26.120        27
26.140        23
26.160        20
26.180        23
26.200        33
26.220        20
26.240        30
26.260        40
26.280        33
26.300        43
26.320        30
26.340        20
26.360        40
26.380        30
26.400        43
26.420        37
26.440        33
26.460        40
26.480        50
26.500        47
26.520        57
26.540        27
26.560        37
26.580        40
26.600        37
26.620        40
26.640        43
26.660        20
26.680        33
26.700        43
26.720        30
26.740        23
26.760        23
26.780        33
26.800        27
26.820        30
26.840        23
26.860        27
26.880        53
26.900        13
26.920        13
26.940        27
26.960        20
26.980         7
27.000        40
27.020        23
27.040        20
27.060        40
27.080        30
27.100        33
27.120        37
27.140        30
27.160        37
27.180        43
27.200        27
27.220        13
27.240        40
27.260        27
27.280        17
27.300         7
27.320        27
27.340        27
27.360        23
27.380        47
27.400        43
27.420        27
27.440        47
27.460        23
27.480        20
27.500        33
27.520        17
27.540        43
27.560        37
27.580        23
27.600        20
27.620        20
27.640        30
27.660        37
27.680        30
27.700        17
27.720        37
27.740        43
27.760        40
27.780        30
27.800        43
27.820        50
27.840        30
27.860        27
27.880        27
27.900        30
27.920        30
27.940        37
27.960        33
27.980        53
28.000        33
28.020        33
28.040        43
28.060        53
28.080        57
28.100        67
28.120        53
28.140        43
28.160        73
28.180        37
28.200        23
28.220        40
28.240        37
28.260        23
28.280        40
28.300        23
28.320        37
28.340        20
28.360        43
28.380        23
28.400        17
28.420        40
28.440        37
28.460        37
28.480        23
28.500        33
28.520        43
28.540        43
28.560        50
28.580        30
28.600        27
28.620        27
28.640        30
28.660        33
28.680        17
28.700        20
28.720        20
28.740        23
28.760        23
28.780        27
28.800        37
28.820        40
28.840        37
28.860        27
28.880        33
28.900        27
28.920        50
28.940        30
28.960        30
28.980        33
29.000         7
29.020        57
29.040        43
29.060        27
29.080        37
29.100        27
29.120        27
29.140        37
29.160        37
29.180        43
29.200        37
29.220        30
29.240        40
29.260        43
29.280        47
29.300        40
29.320        43
29.340        20
29.360        23
29.380        40
29.400        33
29.420        37
29.440        17
29.460        50
29.480        47
29.500        37
29.520        23
29.540        23
29.560        47
29.580        40
29.600        13
29.620        40
29.640        23
29.660        20
29.680        47
29.700        33
29.720        33
29.740        30
29.760        33
29.780        20
29.800        27
29.820        37
29.840        30
29.860        30
29.880        27
29.900        30
29.920        47
29.940        27
29.960        17
29.980        30
30.000        20
30.020        13
30.040        43
30.060        33
30.080        50
30.100        23
30.120        53
30.140        50
30.160        57
30.180        50
30.200        27
30.220        33
30.240        57
30.260        47
30.280        30
30.300        27
30.320        60
30.340        50
30.360        43
30.380        83
30.400        70
30.420        40
30.440        33
30.460        77
30.480        40
30.500        43
30.520        57
30.540        60
30.560        40
30.580        60
30.600        63
30.620        47
30.640        80
30.660        60
30.680        77
30.700        67
30.720        87
30.740        57
30.760        93
30.780        83
30.800        67
30.820        90
30.840       127
30.860       123
30.880       140
30.900       163
30.920       190
30.940       223
30.960       280
30.980       377
31.000       513
31.020       640
31.040       830
31.060      1040
31.080      1449
31.100      1929
31.120      2489
31.140      3319
31.160      3962
31.180      4741
31.200      4731
31.220      4422
31.240      3609
31.260      2969
31.280      2699
31.300      1979
31.320      1459
31.340      1036
31.360       703
31.380       516
31.400       436
31.420       363
31.440       387
31.460       327
31.480       330
31.500       237
31.520       300
31.540       227
31.560       193
31.580       207
31.600       153
31.620       143
31.640       173
31.660       140
31.680       130
31.700       117
31.720       140
31.740       113
31.760        83
31.780       110
31.800        97
31.820        87
31.840        73
31.860        60
31.880        90
31.900        77
31.920        90
31.940        50
31.960        57
31.980        50
32.000        47
32.020        60
32.040        67
32.060        63
32.080        70
32.100        60
32.120        50
32.140        50
32.160        60
32.180        70
32.200        50
32.220        40
32.240        60
32.260        53
32.280        43
32.300        23
32.320        47
32.340        57
32.360        50
32.380        47
32.400        33
32.420        33
32.440        67
32.460        33
32.480        33
32.500        37
32.520        63
32.540        33
32.560        43
32.580        57
32.600        33
32.620        33
32.640        20
32.660        53
32.680        27
32.700        47
32.720        37
32.740        33
32.760        43
32.780        30
32.800        47
32.820        43
32.840        33
32.860        40
32.880        33
32.900        57
32.920        47
32.940        30
32.960        30
32.980        40
33.000        50
33.020        53
33.040        70
33.060        30
33.080        27
33.100        47
33.120        53
33.140        50
33.160        63
33.180        33
33.200        13
33.220        27
33.240        37
33.260        37
33.280        30
33.300        60
33.320        33
33.340        33
33.360        33
33.380        33
33.400        20
33.420        27
33.440        50
33.460        43
33.480        40
33.500        23
33.520        33
33.540        40
33.560        27
33.580         3
33.600        23
33.620        37
33.640        43
33.660        17
33.680        47
33.700        50
33.720        30
33.740        40
33.760        40
33.780        27
33.800        27
33.820        40
33.840        30
33.860        37
33.880        37
33.900        17
33.920        20
33.940        43
33.960        37
33.980        20
34.000        30
34.020        33
34.040        33
34.060        20
34.080        37
34.100        40
34.120        33
34.140        53
34.160        30
34.180        33
34.200        40
34.220        27
34.240        33
34.260        23
34.280        17
34.300        37
34.320        50
34.340        23
34.360        33
34.380        30
34.400        30
34.420        40
34.440        30
34.460        20
34.480        10
34.500        27
34.520        40
34.540        20
34.560        33
34.580        37
34.600        43
34.620        47
34.640        47
34.660        27
34.680        37
34.700        37
34.720        23
34.740        23
34.760        37
34.780        33
34.800        37
34.820        40
34.840        30
34.860        30
34.880        30
34.900        37
34.920        27
34.940        23
34.960        20
34.980        23
35.000        37
35.020        27
35.040        33
35.060        30
35.080        43
35.100        13
35.120        37
35.140        50
35.160        87
35.180        70
35.200        53
35.220        27
35.240        40
35.260        53
35.280        50
35.300        27
35.320        33
35.340        23
35.360        27
35.380        27
35.400        20
35.420        57
35.440        10
35.460        23
35.480        13
35.500        23
35.520        20
35.540        20
35.560        17
35.580        23
35.600        17
35.620        23
35.640        23
35.660        30
35.680        33
35.700        30
35.720        17
35.740        27
35.760        30
35.780        43
35.800        27
35.820        33
35.840        23
35.860        37
35.880        43
35.900        37
35.920        37
35.940        20
35.960        30
35.980        37
36.000        30
36.020        10
36.040        27
36.060        27
36.080        33
36.100        27
36.120        10
36.140        37
36.160        27
36.180        30
36.200        20
36.220        23
36.240        20
36.260        43
36.280        30
36.300        30
36.320        40
36.340        23
36.360        23
36.380         7
36.400        13
36.420        27
36.440        30
36.460        20
36.480        27
36.500        30
36.520        13
36.540        10
36.560        23
36.580        10
36.600        10
36.620        20
36.640        37
36.660        17
36.680        23
36.700        20
36.720        27
36.740        17
36.760         7
36.780        13
36.800        10
36.820        43
36.840        17
36.860        33
36.880        30
36.900        23
36.920        20
36.940        20
36.960        33
36.980        23
37.000        10
37.020        13
37.040        30
37.060        33
37.080        27
37.100        23
37.120         7
37.140        27
37.160         3
37.180        30
37.200        27
37.220        30
37.240        30
37.260        20
37.280        20
37.300        20
37.320        27
37.340        40
37.360        10
37.380        43
37.400        23
37.420        10
37.440        27
37.460        27
37.480        20
37.500        30
37.520        43
37.540        37
37.560        20
37.580        10
37.600        30
37.620        23
37.640        23
37.660        17
37.680        37
37.700        27
37.720        17
37.740        13
37.760        27
37.780        30
37.800        40
37.820        23
37.840        23
37.860        17
37.880        27
37.900        23
37.920        43
37.940        40
37.960        17
37.980        37
38.000        20
38.020        27
38.040        27
38.060        20
38.080        23
38.100        30
38.120        23
38.140        23
38.160        30
38.180        30
38.200        20
38.220        20
38.240        23
38.260        17
38.280        57
38.300        53
38.320        43
38.340        63
38.360       130
38.380       127
38.400       160
38.420       157
38.440       130
38.460       177
38.480       177
38.500       117
38.520       113
38.540        93
38.560        83
38.580       100
38.600        73
38.620        67
38.640        60
38.660        37
38.680        23
38.700        23
38.720        63
38.740        40
38.760        37
38.780        10
38.800        23
38.820        23
38.840        47
38.860        23
38.880        20
38.900        20
38.920        27
38.940        30
38.960        20
38.980        23
39.000        27
39.020         7
39.040        20
39.060        40
39.080        17
39.100        37
39.120        33
39.140        23
39.160        20
39.180        40
39.200        23
39.220        23
39.240        23
39.260        23
39.280        17
39.300        17
39.320        30
39.340        17
39.360        27
39.380        23
39.400        27
39.420        20
39.440        13
39.460         7
39.480        13
39.500        43
39.520        27
39.540        20
39.560        30
39.580        13
39.600        10
39.620        23
39.640        23
39.660        13
39.680        23
39.700        27
39.720        20
39.740         3
39.760        17
39.780         3
39.800        20
39.820        30
39.840        30
39.860        20
39.880        20
39.900        27
39.920        17
39.940        33
39.960        20
39.980        23
40.000        27
40.020        17
40.040        20
40.060         3
40.080        20
40.100        37
40.120        43
40.140         7
40.160        17
40.180        13
40.200        33
40.220        20
40.240        20
40.260        27
40.280        33
40.300         7
40.320        37
40.340         7
40.360        20
40.380        20
40.400        33
40.420         7
40.440        23
40.460        17
40.480        37
40.500         3
40.520        20
40.540        33
40.560        20
40.580        13
40.600        17
40.620        10
40.640        20
40.660        33
40.680        20
40.700        23
40.720        40
40.740        37
40.760        23
40.780         7
40.800        20
40.820        17
40.840        17
40.860        10
40.880        17
40.900        23
40.920        10
40.940        10
40.960        20
40.980        17
41.000        20
41.020        13
41.040         7
41.060        13
41.080        20
41.100        27
41.120        23
41.140        13
41.160        23
41.180         7
41.200         3
41.220        30
41.240        20
41.260        27
41.280        20
41.300        27
41.320        30
41.340        10
41.360        23
41.380        17
41.400        17
41.420        27
41.440        30
41.460        17
41.480        10
41.500        20
41.520        13
41.540        23
41.560        23
41.580        27
41.600        30
41.620        30
41.640        33
41.660        60
41.680        50
41.700        40
41.720        43
41.740        30
41.760        27
41.780        40
41.800        27
41.820        33
41.840        47
41.860        30
41.880        23
41.900        23
41.920        13
41.940        10
41.960        13
41.980        37
42.000        10
42.020        17
42.040        13
42.060        17
42.080        17
42.100        23
42.120        20
42.140        10
42.160        17
42.180        20
42.200        23
42.220        13
42.240        23
42.260        17
42.280        20
42.300        13
42.320        27
42.340        13
42.360        23
42.380        17
42.400        13
42.420        20
42.440        27
42.460        10
42.480        33
42.500         7
42.520        13
42.540        20
42.560        23
42.580        10
42.600        30
42.620        13
42.640        10
42.660        17
42.680        20
42.700        30
42.720         7
42.740         3
42.760        20
42.780        13
42.800        20
42.820        23
42.840        13
42.860        20
42.880        30
42.900        23
42.920        20
42.940        23
42.960        30
42.980        20
43.000        23
43.020        23
43.040        40
43.060        10
43.080        40
43.100        37
43.120        23
43.140        17
43.160        23
43.180        10
43.200        13
43.220         7
43.240        17
43.260        30
43.280         7
43.300        50
43.320        40
43.340        27
43.360        17
43.380        43
43.400        17
43.420        33
43.440        23
43.460        20
43.480        20
43.500        17
43.520        37
43.540        30
43.560        10
43.580        27
43.600        40
43.620        33
43.640        13
43.660        10
43.680        10
43.700        13
43.720        30
43.740        20
43.760        20
43.780        23
43.800        47
43.820        30
43.840        20
43.860        30
43.880        23
43.900        23
43.920        20
43.940        30
43.960        10
43.980        13
44.000        13
44.020        33
44.040        33
44.060        27
44.080        30
44.100        20
44.120        33
44.140        20
44.160        17
44.180        20
44.200        13
44.220        23
44.240        30
44.260        30
44.280        27
44.300        27
44.320        40
44.340        23
44.360        27
44.380        37
44.400        40
44.420        37
44.440        30
44.460        43
44.480        53
44.500        90
44.520        73
44.540       107
44.560       137
44.580       133
44.600       263
44.620       250
44.640       330
44.660       430
44.680       550
44.700       726
44.720       810
44.740       823
44.760       960
44.780       873
44.800       783
44.820       783
44.840       686
44.860       630
44.880       563
44.900       450
44.920       397
44.940       370
44.960       230
44.980       180
45.000       143
45.020       130
45.040       110
45.060       107
45.080        87
45.100        90
45.120        37
45.140        57
45.160        47
45.180        37
45.200        30
45.220        43
45.240        37
45.260        37
45.280        23
45.300        30
45.320        23
45.340        57
45.360        27
45.380        20
45.400        17
45.420         7
45.440        27
45.460        30
45.480        30
45.500        37
45.520        33
45.540        33
45.560        27
45.580        17
45.600        33
45.620        10
45.640        13
45.660        23
45.680        30
45.700        23
45.720        17
45.740        13
45.760        30
45.780        23
45.800        13
45.820         7
45.840        37
45.860        33
45.880        27
45.900        27
45.920        27
45.940        17
45.960        23
45.980        20
46.000        20
46.020        13
46.040        17
46.060        33
46.080        20
46.100        20
46.120        13
46.140        23
46.160        23
46.180        17
46.200        30
46.220        37
46.240        27
46.260        23
46.280        30
46.300        20
46.320         7
46.340        30
46.360        10
46.380        37
46.400         0
46.420        20
46.440        10
46.460        13
46.480        17
46.500         0
46.520         7
46.540        17
46.560        17
46.580        17
46.600         7
46.620        20
46.640         7
46.660         7
46.680        23
46.700        37
46.720        23
46.740        17
46.760        10
46.780        10
46.800         0
46.820        17
46.840        30
46.860        10
46.880         7
46.900        27
46.920        17
46.940        20
46.960        10
46.980        20
47.000        17
47.020        30
47.040        30
47.060        13
47.080        23
47.100        10
47.120        17
47.140        20
47.160        13
47.180        30
47.200        23
47.220        27
47.240        27
47.260        20
47.280         3
47.300        23
47.320        10
47.340        10
47.360        23
47.380        13
47.400        13
47.420        23
47.440        13
47.460         3
47.480        20
47.500        27
47.520        13
47.540        17
47.560        30
47.580        13
47.600        23
47.620        27
47.640        13
47.660         7
47.680        20
47.700        13
47.720        30
47.740        23
47.760        10
47.780        13
47.800         7
47.820        27
47.840        20
47.860        10
47.880        13
47.900        17
47.920        20
47.940        10
47.960        17
47.980         7
48.000         3
48.020        13
48.040        23
48.060         3
48.080        20
48.100        13
48.120        23
48.140        13
48.160        27
48.180         0
48.200         7
48.220        17
48.240        17
48.260        27
48.280        23
48.300        20
48.320        20
48.340        27
48.360        20
48.380         7
48.400        33
48.420        33
48.440        13
48.460        20
48.480         3
48.500        23
48.520        33
48.540        20
48.560        20
48.580        13
48.600        13
48.620        20
48.640        20
48.660         3
48.680        23
48.700        20
48.720        30
48.740         7
48.760        13
48.780        13
48.800        13
48.820        20
48.840        10
48.860        33
48.880        20
48.900        27
48.920        17
48.940        13
48.960        20
48.980        20
49.000        13
49.020        17
49.040        17
49.060        13
49.080        13
49.100        20
49.120        20
49.140        13
49.160        13
49.180        10
49.200         0
49.220         0
49.240         3
49.260        27
49.280        20
49.300        13
49.320        13
49.340        23
49.360        30
49.380        13
49.400         7
49.420        20
49.440        10
49.460        10
49.480         7
49.500        10
49.520        23
49.540        20
49.560        33
49.580        23
49.600        10
49.620        13
49.640        23
49.660        13
49.680         7
49.700        10
49.720        17
49.740        27
49.760        20
49.780        23
49.800        10
49.820        17
49.840        10
49.860        27
49.880        13
49.900        30
49.920        20
49.940        23
49.960        23
49.980        17
50.000         7
50.020        10
50.040        10
50.060        20
50.080         7
50.100        10
50.120        10
50.140        27
50.160        30
50.180        17
50.200        20
50.220        13
50.240        17
50.260        17
50.280        20
50.300        13
50.320        13
50.340        17
50.360        27
50.380        10
50.400         3
50.420         3
50.440        13
50.460        23
50.480        20
50.500        20
50.520        10
50.540        10
50.560        13
50.580        10
50.600        20
50.620        20
50.640        17
50.660        17
50.680        13
50.700        10
50.720        10
50.740        10
50.760        17
50.780        23
50.800        13
50.820        27
50.840        23
50.860        27
50.880         7
50.900        27
50.920        10
50.940        20
50.960        13
50.980        13
51.000        23
51.020         7
51.040        23
51.060        13
51.080        10
51.100        23
51.120        13
51.140         7
51.160        20
51.180        13
51.200        13
51.220         7
51.240        23
51.260        27
51.280        13
51.300        27
51.320         7
51.340        10
51.360        13
51.380        27
51.400        23
51.420        17
51.440        13
51.460        10
51.480        13
51.500         7
51.520        13
51.540        10
51.560        20
51.580        20
51.600        10
51.620         0
51.640        17
51.660         3
51.680        20
51.700        10
51.720         7
51.740        10
51.760        17
51.780        13
51.800        13
51.820         3
51.840        13
51.860        13
51.880        17
51.900         7
51.920        27
51.940        20
51.960         7
51.980         0
52.000        13
52.020        23
52.040        10
52.060        17
52.080        13
52.100        13
52.120         7
52.140        20
52.160        10
52.180        20
52.200        23
52.220        13
52.240        20
52.260        17
52.280        10
52.300        17
52.320        10
52.340        13
52.360        27
52.380         7
52.400        20
52.420        17
52.440        23
52.460        17
52.480        30
52.500        47
52.520        60
52.540        67
52.560        57
52.580        23
52.600        13
52.620        47
52.640        73
52.660        30
52.680        43
52.700        40
52.720        20
52.740        10
52.760         7
52.780        10
52.800        20
52.820         7
52.840        17
52.860         3
52.880         3
52.900        13
52.920        13
52.940        13
52.960        20
52.980        10
53.000        13
53.020        30
53.040        23
53.060        17
53.080        17
53.100        13
53.120        17
53.140        13
53.160         0
53.180        30
53.200        13
53.220        10
53.240        17
53.260        17
53.280        20
53.300        27
53.320         3
53.340         3
53.360        13
53.380        20
53.400        10
53.420        17
53.440        17
53.460        13
53.480        23
53.500        27
53.520        23
53.540        20
53.560        23
53.580        17
53.600        30
53.620        17
53.640        17
53.660        23
53.680         7
53.700        13
53.720        10
53.740        27
53.760         7
53.780        20
53.800         7
53.820        20
53.840        13
53.860        17
53.880        20
53.900         7
53.920        27
53.940        20
53.960        20
53.980         7
54.000        20
54.020        13
54.040        13
54.060        13
54.080        23
54.100        17
54.120        10
54.140        17
54.160        23
54.180        17
54.200        20
54.220        10
54.240        13
54.260        17
54.280         3
54.300        10
54.320        13
54.340        10
54.360        10
54.380        17
54.400        33
54.420        17
54.440        17
54.460        13
54.480        23
54.500        23
54.520         7
54.540        17
54.560        10
54.580        13
54.600        13
54.620        10
54.640        17
54.660        13
54.680        37
54.700        17
54.720        13
54.740        20
54.760        17
54.780        20
54.800        17
54.820        17
54.840        20
54.860        27
54.880        13
54.900        13
54.920        27
54.940        20
54.960        10
54.980        20
55.000        17
55.020        33
55.040        13
55.060        30
55.080        20
55.100        20
55.120        23
55.140        17
55.160        33
55.180        27
55.200        17
55.220        30
55.240        57
55.260        43
55.280        63
55.300        70
55.320        87
55.340        93
55.360       130
55.380       163
55.400       227
55.420       230
55.440       243
55.460       333
55.480       340
55.500       343
55.520       317
55.540       357
55.560       253
55.580       223
55.600       230
55.620       203
55.640       233
55.660       210
55.680       153
55.700       133
55.720       130
55.740       107
55.760        90
55.780        80
55.800       103
55.820        37
55.840        57
55.860        40
55.880        23
55.900         7
55.920        30
55.940        33
55.960        37
55.980        17
56.000         3
56.020        33
56.040        17
56.060        40
56.080        23
56.100        13
56.120        23
56.140        27
56.160        13
56.180        30
56.200        17
56.220         3
56.240        20
56.260        17
56.280        23
56.300        10
56.320        10
56.340        10
56.360        13
56.380        13
56.400        27
56.420        33
56.440         7
56.460         7
56.480        27
56.500         7
56.520        10
56.540        20
56.560        17
56.580         7
56.600        13
56.620         0
56.640        23
56.660        10
56.680        17
56.700        10
56.720         0
56.740        17
56.760        13
56.780        17
56.800        10
56.820        17
56.840        10
56.860        20
56.880        23
56.900        20
56.920        20
56.940         3
56.960         7
56.980        13
57.000        10
57.020        23
57.040        20
57.060        10
57.080        13
57.100        10
57.120        10
57.140        10
57.160         7
57.180        17
57.200        30
57.220         7
57.240        20
57.260        20
57.280        23
57.300        13
57.320        13
57.340         3
57.360         0
57.380        10
57.400        20
57.420        10
57.440        17
57.460        17
57.480        40
57.500        67
57.520        90
57.540        77
57.560       103
57.580        87
57.600        53
57.620        27
57.640        33
57.660        33
57.680        67
57.700        63
57.720        80
57.740        47
57.760        33
57.780        10
57.800        17
57.820        20
57.840        27
57.860        10
57.880         7
57.900        13
57.920        20
57.940        20
57.960         7
57.980         7
58.000        10
58.020        13
58.040        23
58.060         3
58.080        17
58.100        20
58.120        33
58.140        30
58.160         7
58.180        20
58.200        17
58.220        20
58.240        10
58.260         3
58.280         3
58.300        33
58.320        20
58.340        13
58.360        13
58.380        13
58.400        20
58.420        20
58.440        13
58.460        23
58.480        27
58.500        17
58.520        13
58.540        27
58.560        13
58.580         3
58.600        20
58.620        10
58.640         3
58.660        13
58.680        10
58.700        30
58.720        13
58.740         7
58.760        13
58.780        33
58.800         7
58.820        10
58.840        17
58.860        20
58.880         7
58.900        20
58.920        27
58.940        10
58.960        13
58.980        23
59.000        20
59.020        20
59.040        13
59.060        17
59.080        23
59.100        27
59.120        13
59.140        20
59.160        20
59.180        17
59.200         3
59.220        17
59.240        17
59.260        20
59.280        10
59.300        10
59.320         3
59.340         3
59.360        37
59.380        23
59.400        27
59.420        17
59.440         3
59.460        20
59.480        10
59.500        13
59.520        17
59.540        23
59.560        13
59.580        20
59.600        10
59.620        10
59.640        10
59.660         3
59.680        10
59.700        13
59.720         7
59.740         0
59.760        17
59.780        27
59.800         7
59.820        10
59.840        13
59.860         7
59.880         0
59.900         0
59.920        20
59.940        10
59.960        27
59.980        13
60.000        13
