20.000        40
20.020        57
20.040        30
20.060        73
20.080        47
20.100        30
20.120        63
20.140        40
20.160        60
20.180        27
20.200        30
20.220        47
20.240        53
20.260        50
20.280        53
20.300        40
20.320        40
20.340        50
20.360        63
20.380        47
20.400        53
20.420        43
20.440        53
20.460        67
20.480        37
20.500        47
20.520        37
20.540        63
20.560        40
20.580        37
20.600        40
20.620        50
20.640        50
20.660        47
20.680        50
20.700        40
20.720        70
20.740        47
20.760        23
20.780        30
20.800        60
20.820        37
20.840        33
20.860        53
20.880        43
20.900        40
20.920        53
20.940        40
20.960        30
20.980        33
21.000        43
21.020        57
21.040        33
21.060        33
21.080        50
21.100        63
21.120        47
21.140        57
21.160        33
21.180        30
21.200        50
21.220        40
21.240        27
21.260        43
21.280        50
21.300        30
21.320        57
21.340        53
21.360        30
21.380        67
21.400        57
21.420        30
21.440        30
21.460        33
21.480        67
21.500        47
21.520        63
21.540        43
21.560        53
21.580        47
21.600        60
21.620        67
21.640        40
21.660        40
21.680        60
21.700        93
21.720        77
21.740        60
21.760        60
21.780        87
21.800       110
21.820        97
21.840       107
21.860        93
21.880       110
21.900        77
21.920        70
21.940        83
21.960        33
21.980        87
22.000        73
22.020        57
22.040        67
22.060        53
22.080        37
22.100        60
22.120        37
22.140        33
22.160        33
22.180        37
22.200        50
22.220        27
22.240        57
22.260        40
22.280        40
22.300        37
22.320        50
22.340        47
22.360        33
22.380        33
22.400        40
22.420        43
22.440        40
22.460        67
22.480        43
22.500        40
22.520        83
22.540        40
22.560        30
22.580        67
22.600        40
22.620        33
22.640        37
22.660        40
22.680        23
22.700        40
22.720        23
22.740        40
22.760        40
22.780        40
22.800        50
22.820        57
22.840        17
22.860        37
22.880        43
22.900        20
22.920        23
22.940        40
22.960        47
22.980        37
23.000        27
23.020        53
23.040        27
23.060        23
23.080        40
23.100        53
23.120        53
23.140        30
23.160        23
23.180        47
23.200        47
23.220        50
23.240        40
23.260        47
23.280        40
23.300        23
23.320        30
23.340        50
23.360        40
23.380        60
23.400        47
23.420        37
23.440        33
23.460        40
23.480        33
23.500        40
23.520        47
23.540        37
23.560        50
23.580        37
23.600        13
23.620        37
23.640        43
23.660        27
23.680        57
23.700        33
23.720        40
23.740        47
23.760        20
23.780        27
23.800        37
23.820        30
23.840        37
23.860        27
23.880        43
23.900        20
23.920        40
23.940        27
23.960        63
23.980        33
24.000        53
24.020        43
24.040        43
24.060        20
24.080        37
24.100        33
24.120        47
24.140        40
24.160        13
24.180        43
24.200        27
24.220        27
24.240        33
24.260        50
24.280        47
24.300        30
24.320        30
24.340        50
24.360        43
24.380        30
24.400        47
24.420        40
24.440        27
24.460        30
24.480        53
24.500        47
24.520        33
24.540        40
24.560        30
24.580        27
24.600        60
24.620        17
24.640        33
24.660        20
24.680        50
24.700        40
24.720        30
24.740        30
24.760        20
24.780        37
24.800        43
24.820        30
24.840        37
24.860        40
24.880        37
24.900        53
24.920        53
24.940        33
24.960        43
24.980        40
25.000        30
25.020        13
25.040        30
25.060        23
25.080        27
25.100        40
25.120        30
25.140        37
25.160        13
25.180        33
25.200        33
25.220        13
25.240        37
25.260        30
25.280        27
25.300        47
25.320        37
25.340        40
25.360        40
25.380        23
25.400        37
25.420        47
25.440        37
25.460        40
25.480        47
25.500        27
25.520        47
25.540        40
25.560        37
25.580        83
25.600        37
25.620        43
25.640        57
25.660        47
25.680        53
25.700        50
25.720        60
25.740        30
25.760        40
25.780        27
25.800        47
25.820        50
25.840        20
25.860        33
25.880        40
25.900        60
25.920        60
25.940        23
25.960        33
25.980        33
26.000        30
26.020        40
26.040        27
26.060        33
26.080        37
26.100        30
26.120        57
26.140        27
26.160        40
26.180        37
26.200        33
26.220        33
26.240        37
26.260        37
26.280        33
26.300        37
26.320        30
26.340        47
26.360        40
26.380        13
26.400        30
26.420        33
26.440        37
26.460        57
26.480        33
26.500        40
26.520        37
26.540        40
26.560        63
26.580        33
26.600        23
26.620        33
26.640        57
26.660        37
26.680        40
26.700        30
26.720        33
26.740        43
26.760        23
26.780        20
26.800        57
26.820        20
26.840        37
26.860        17
26.880        27
26.900        50
26.920        27
26.940        30
26.960        27
26.980        23
27.000        43
27.020        43
27.040        20
27.060        30
27.080        27
27.100        40
27.120        20
27.140        20
27.160        23
27.180        33
27.200        30
27.220        23
27.240        23
27.260        23
27.280        27
27.300        30
27.320        60
27.340        30
27.360        33
27.380        37
27.400        23
27.420        23
27.440        47
27.460        40
27.480        27
27.500        23
27.520        43
27.540        30
27.560        30
27.580        40
27.600        40
27.620        30
27.640        37
27.660        33
27.680        40
27.700        20
27.720        13
27.740        17
27.760        27
27.780        27
27.800        10
27.820        17
27.840        23
27.860         3
27.880        23
27.900        47
27.920        20
27.940        37
27.960        23
27.980        30
28.000        37
28.020        33
28.040        30
28.060        40
28.080        37
28.100        40
28.120        30
28.140        47
28.160        20
28.180        27
28.200        30
28.220        27
28.240        27
28.260        33
28.280        33
28.300        33
28.320        33
28.340        47
28.360        33
28.380        20
28.400        33
28.420        47
28.440        33
28.460        20
28.480        47
28.500        30
28.520        30
28.540        37
28.560        17
28.580        30
28.600        37
28.620        23
28.640        20
28.660        27
28.680        27
28.700        37
28.720        30
28.740        37
28.760        13
28.780        40
28.800        23
28.820        30
28.840        10
28.860        20
28.880        23
28.900        40
28.920        33
28.940        30
28.960        13
28.980        40
29.000        37
29.020        37
29.040        30
29.060        43
29.080        40
29.100        40
29.120        37
29.140        10
29.160        13
29.180        43
29.200        13
29.220        30
29.240        13
29.260        33
29.280        27
29.300        23
29.320        33
29.340        33
29.360        50
29.380        30
29.400        33
29.420        20
29.440        20
29.460        17
29.480        37
29.500        30
29.520        30
29.540        17
29.560        27
29.580        27
29.600        30
29.620        20
29.640        40
29.660        30
29.680        27
29.700        30
29.720        17
29.740        33
29.760        30
29.780        23
29.800         3
29.820        30
29.840        27
29.860        23
29.880        47
29.900        27
29.920        30
29.940        53
29.960        33
29.980        20
30.000        13
30.020        30
30.040        33
30.060        30
30.080        40
30.100        23
30.120        37
30.140        20
30.160        30
30.180        20
30.200        37
30.220        33
30.240        37
30.260        17
30.280        40
30.300        30
30.320        33
30.340        30
30.360        33
30.380        17
30.400        27
30.420        17
30.440        30
30.460        33
30.480        17
30.500        27
30.520        27
30.540        30
30.560        23
30.580        20
30.600        50
30.620        47
30.640        30
30.660        40
30.680        43
30.700        27
30.720        27
30.740        43
30.760        37
30.780        43
30.800        47
30.820        37
30.840        20
30.860        70
30.880        47
30.900        63
30.920        70
30.940        57
30.960        73
30.980       107
31.000       110
31.020       117
31.040       143
31.060       110
31.080       143
31.100       110
31.120       127
31.140       117
31.160        80
31.180       113
31.200       117
31.220        90
31.240        67
31.260        73
31.280        70
31.300        77
31.320        43
31.340        53
31.360        50
31.380        57
31.400        30
31.420        53
31.440        37
31.460        23
31.480        40
31.500        57
31.520        23
31.540        40
31.560        33
31.580        27
31.600        17
31.620        33
31.640        30
31.660        23
31.680        17
31.700        17
31.720        27
31.740        20
31.760        40
31.780        27
31.800        27
31.820        23
31.840         7
31.860        20
31.880        23
31.900        23
31.920        17
31.940        27
31.960        23
31.980        27
32.000        20
32.020        20
32.040        37
32.060        13
32.080        20
32.100        23
32.120        10
32.140        23
32.160        37
32.180        30
32.200        33
32.220        33
32.240        10
32.260        30
32.280        37
32.300        37
32.320        33
32.340        17
32.360        33
32.380        33
32.400        17
32.420        17
32.440        23
32.460        33
32.480        13
32.500        17
32.520        33
32.540        27
32.560        33
32.580        37
32.600        40
32.620        23
32.640        47
32.660        27
32.680        10
32.700        27
32.720        20
32.740        20
32.760        23
32.780        37
32.800        37
32.820        23
32.840        23
32.860        17
32.880        27
32.900        37
32.920        23
32.940        10
32.960        13
32.980        13
33.000        30
33.020        23
33.040        33
33.060        17
33.080        30
33.100        20
33.120        17
33.140        30
33.160        37
33.180        27
33.200        37
33.220        17
33.240        20
33.260        33
33.280        13
33.300        17
33.320         3
33.340        27
33.360        23
33.380        27
33.400        27
33.420        20
33.440        17
33.460        27
33.480        20
33.500        30
33.520        33
33.540        20
33.560        27
33.580        37
33.600        20
33.620        20
33.640        37
33.660        27
33.680        17
33.700        33
33.720        10
33.740        27
33.760        13
33.780        10
33.800        20
33.820        27
33.840        23
33.860        30
33.880        43
33.900        23
33.920        23
33.940        10
33.960        17
33.980        13
34.000        27
34.020        30
34.040        10
34.060        17
34.080        30
34.100        30
34.120        33
34.140        40
34.160        27
34.180        23
34.200        23
34.220        30
34.240        33
34.260        23
34.280         7
34.300        20
34.320        27
34.340        13
34.360        30
34.380        33
34.400        27
34.420        37
34.440        17
34.460        30
34.480        33
34.500        27
34.520        17
34.540        30
34.560        17
34.580        33
34.600        20
34.620        23
34.640        30
34.660        23
34.680        17
34.700        43
34.720        33
34.740        47
34.760        10
34.780        17
34.800        30
34.820        30
34.840        30
34.860         7
34.880        20
34.900        20
34.920        23
34.940        30
34.960        40
34.980        33
35.000        47
35.020        30
35.040        57
35.060        37
35.080        57
35.100       103
35.120       100
35.140       160
35.160       177
35.180       143
35.200       127
35.220       123
35.240       123
35.260       100
35.280        73
35.300        50
35.320        40
35.340        53
35.360        23
35.380        10
35.400        20
35.420        23
35.440        27
35.460        37
35.480        30
35.500        30
35.520        20
35.540        20
35.560        20
35.580        33
35.600         7
35.620        17
35.640        13
35.660        13
35.680        13
35.700        37
35.720        37
35.740        17
35.760        23
35.780        30
35.800        23
35.820        33
35.840        23
35.860        20
35.880        30
35.900        20
35.920        27
35.940        20
35.960         7
35.980        23
36.000        10
36.020        17
36.040        20
36.060        10
36.080        17
36.100        30
36.120        23
36.140        33
36.160        27
36.180        17
36.200         7
36.220        27
36.240        23
36.260        17
36.280        20
36.300        33
36.320        33
36.340        17
36.360        13
36.380        30
36.400        30
36.420         3
36.440        17
36.460        33
36.480        17
36.500        27
36.520        17
36.540        30
36.560         3
36.580        33
36.600        33
36.620        27
36.640        13
36.660        30
36.680        27
36.700         7
36.720        13
36.740        23
36.760        23
36.780        27
36.800        13
36.820        37
36.840        10
36.860        37
36.880        13
36.900        17
36.920        27
36.940        27
36.960        27
36.980        43
37.000        30
37.020         7
37.040        20
37.060        20
37.080        27
37.100        13
37.120        13
37.140        20
37.160        43
37.180        20
37.200        17
37.220        13
37.240        17
37.260        27
37.280        20
37.300        37
37.320        33
37.340        27
37.360        27
37.380        13
37.400        33
37.420        20
37.440        20
37.460        13
37.480        23
37.500        30
37.520        27
37.540        17
37.560        23
37.580        37
37.600        27
37.620        43
37.640        37
37.660        47
37.680        30
37.700        47
37.720        30
37.740        43
37.760        47
37.780        37
37.800        57
37.820       103
37.840        63
37.860        40
37.880        40
37.900        67
37.920        30
37.940        50
37.960        40
37.980        33
38.000        43
38.020        47
38.040        57
38.060        97
38.080        60
38.100        60
38.120        83
38.140       100
38.160       123
38.180       203
38.200       253
38.220       260
38.240       257
38.260       353
38.280       430
38.300       460
38.320       603
38.340       590
38.360       630
38.380       576
38.400       776
38.420       640
38.440       690
38.460       593
38.480       513
38.500       413
38.520       373
38.540       323
38.560       263
38.580       263
38.600       153
38.620       133
38.640        97
38.660       100
38.680        67
38.700       107
38.720        53
38.740        50
38.760        67
38.780        23
38.800        60
38.820        20
38.840        37
38.860        63
38.880        27
38.900        33
38.920        33
38.940        20
38.960        30
38.980        33
39.000        53
39.020        47
39.040        30
39.060        43
39.080        33
39.100        47
39.120        50
39.140        27
39.160        10
39.180        27
39.200        33
39.220        23
39.240        20
39.260        13
39.280        30
39.300        23
39.320        30
39.340        40
39.360        20
39.380        27
39.400        20
39.420        40
39.440        37
39.460        37
39.480        13
39.500        23
39.520        20
39.540        17
39.560        17
39.580        23
39.600        13
39.620        17
39.640        20
39.660        30
39.680        17
39.700        27
39.720        17
39.740        23
39.760        37
39.780        27
39.800        23
39.820        23
39.840        33
39.860        23
39.880        23
39.900        13
39.920        20
39.940         7
39.960        23
39.980        20
40.000        27
40.020        33
40.040        27
40.060        20
40.080        13
40.100        30
40.120        17
40.140         7
40.160        33
40.180        23
40.200        10
40.220        13
40.240        13
40.260        20
40.280        23
40.300        20
40.320         7
40.340         3
40.360        17
40.380        17
40.400        47
40.420        23
40.440        20
40.460        13
40.480        23
40.500        33
40.520        33
40.540        20
40.560        23
40.580        50
40.600        13
40.620        40
40.640        23
40.660        13
40.680        20
40.700         7
40.720        17
40.740        17
40.760        17
40.780        27
40.800        23
40.820        20
40.840        10
40.860        23
40.880        20
40.900        13
40.920        17
40.940        20
40.960         3
40.980        37
41.000        23
41.020        20
41.040        23
41.060        17
41.080        23
41.100        13
41.120        23
41.140        20
41.160        20
41.180        10
41.200        33
41.220        10
41.240        13
41.260        37
41.280        13
41.300        13
41.320        10
41.340        23
41.360        20
41.380        10
41.400        17
41.420        27
41.440        17
41.460        33
41.480        37
41.500        20
41.520        20
41.540        23
41.560        40
41.580        30
41.600        20
41.620        27
41.640        13
41.660        40
41.680        10
41.700        20
41.720        33
41.740        47
41.760        20
41.780        30
41.800        20
41.820        30
41.840        17
41.860        17
41.880        13
41.900        30
41.920        17
41.940        10
41.960        33
41.980        23
42.000        27
42.020        10
42.040        17
42.060        30
42.080        30
42.100        27
42.120        27
42.140         3
42.160        20
42.180        23
42.200        10
42.220        30
42.240        13
42.260        17
42.280        33
42.300        17
42.320        20
42.340        20
42.360        17
42.380        13
42.400        20
42.420        10
42.440        13
42.460        17
42.480        17
42.500        27
42.520        47
42.540        20
42.560        40
42.580        30
42.600         3
42.620        23
42.640        13
42.660        23
42.680        10
42.700        13
42.720        23
42.740        13
42.760        13
42.780        20
42.800         7
42.820        10
42.840        33
42.860        10
42.880        20
42.900        17
42.920        23
42.940        17
42.960        20
42.980        17
43.000        13
43.020        27
43.040        20
43.060        47
43.080        20
43.100        17
43.120        27
43.140        33
43.160        27
43.180        23
43.200        33
43.220        33
43.240        23
43.260        37
43.280        47
43.300        73
43.320        57
43.340       100
43.360        80
43.380        97
43.400        90
43.420        80
43.440        57
43.460        57
43.480        63
43.500        67
43.520        67
43.540        37
43.560        43
43.580        30
43.600        43
43.620        23
43.640        27
43.660        17
43.680        13
43.700        20
43.720        40
43.740        27
43.760        20
43.780        13
43.800        20
43.820        20
43.840        20
43.860        17
43.880        23
43.900        13
43.920        20
43.940        27
43.960        20
43.980        23
44.000        43
44.020        23
44.040        33
44.060        30
44.080        43
44.100        30
44.120        23
44.140        50
44.160        53
44.180        53
44.200        53
44.220        60
44.240        57
44.260        50
44.280        77
44.300        97
44.320       133
44.340       123
44.360       163
44.380       137
44.400       187
44.420       190
44.440       190
44.460       257
44.480       227
44.500       283
44.520       317
44.540       323
44.560       330
44.580       303
44.600       237
44.620       250
44.640       227
44.660       200
44.680       213
44.700       143
44.720       157
44.740       133
44.760       153
44.780       107
44.800        93
44.820       113
44.840        83
44.860        67
44.880        40
44.900        70
44.920        90
44.940        63
44.960        63
44.980        37
45.000        53
45.020        37
45.040        33
45.060        37
45.080        27
45.100        13
45.120        17
45.140        23
45.160        27
45.180        20
45.200        40
45.220        17
45.240        17
45.260        27
45.280        40
45.300        13
45.320        10
45.340        17
45.360        33
45.380        17
45.400        27
45.420        20
45.440        13
45.460        10
45.480        10
45.500        33
45.520        37
45.540        23
45.560        17
45.580        17
45.600        23
45.620        27
45.640        23
45.660        17
45.680        30
45.700        17
45.720        27
45.740        17
45.760         7
45.780        17
45.800        23
45.820        23
45.840        20
45.860        20
45.880        17
45.900        23
45.920        20
45.940        20
45.960        13
45.980        23
46.000        13
46.020        17
46.040        20
46.060        30
46.080        27
46.100        17
46.120        13
46.140        13
46.160        23
46.180        27
46.200        27
46.220        13
46.240        20
46.260        23
46.280        17
46.300        17
46.320        23
46.340        13
46.360        10
46.380        17
46.400        17
46.420        20
46.440        13
46.460        10
46.480        23
46.500        17
46.520         3
46.540         3
46.560        20
46.580        20
46.600        13
46.620        27
46.640        17
46.660        17
46.680        20
46.700        13
46.720        27
46.740        10
46.760        13
46.780         3
46.800        20
46.820        13
46.840        30
46.860        13
46.880        30
46.900        17
46.920        13
46.940        20
46.960        13
46.980        30
47.000         7
47.020        13
47.040        17
47.060         3
47.080        13
47.100        17
47.120        10
47.140        13
47.160        27
47.180        13
47.200        20
47.220        27
47.240        10
47.260        17
47.280        10
47.300        20
47.320        23
47.340        27
47.360         7
47.380        17
47.400         0
47.420        13
47.440        27
47.460        20
47.480        20
47.500        13
47.520         7
47.540        23
47.560        13
47.580         3
47.600        17
47.620        13
47.640        17
47.660        20
47.680        17
47.700        17
47.720        13
47.740        23
47.760        13
47.780        17
47.800        23
47.820        10
47.840        10
47.860        13
47.880        20
47.900        17
47.920        13
47.940        17
47.960         3
47.980        13
48.000        13
48.020        10
48.040        13
48.060         7
48.080        23
48.100        20
48.120         0
48.140        20
48.160        20
48.180        10
48.200         7
48.220        23
48.240        17
48.260        17
48.280        17
48.300        13
48.320        20
48.340         3
48.360        27
48.380         3
48.400        13
48.420        10
48.440        10
48.460         0
48.480        17
48.500        10
48.520        20
48.540        23
48.560        23
48.580        17
48.600        13
48.620        23
48.640        10
48.660        20
48.680        10
48.700         7
48.720        13
48.740        10
48.760        13
48.780        13
48.800        13
48.820        17
48.840         7
48.860         0
48.880        17
48.900        20
48.920        13
48.940        10
48.960        17
48.980         7
49.000         3
49.020        17
49.040        23
49.060        23
49.080        20
49.100        10
49.120        20
49.140         3
49.160        17
49.180         7
49.200        33
49.220        27
49.240        10
49.260         3
49.280        23
49.300         7
49.320        10
49.340        10
49.360        27
49.380         7
49.400        17
49.420        23
49.440        20
49.460        13
49.480        10
49.500        20
49.520        20
49.540        13
49.560        23
49.580        23
49.600         0
49.620        27
49.640        23
49.660        23
49.680        13
49.700        17
49.720        17
49.740        10
49.760         7
49.780        13
49.800        20
49.820        20
49.840        20
49.860        20
49.880        10
49.900        10
49.920        10
49.940        20
49.960        17
49.980         7
50.000        13
50.020        13
50.040        10
50.060        13
50.080        20
50.100        30
50.120        10
50.140        27
50.160        13
50.180        13
50.200        17
50.220        17
50.240        27
50.260        23
50.280        13
50.300        23
50.320        10
50.340         3
50.360        27
50.380         7
50.400        23
50.420         3
50.440        23
50.460        30
50.480        20
50.500        10
50.520        20
50.540        27
50.560        20
50.580         3
50.600        20
50.620         7
50.640         3
50.660         7
50.680         0
50.700        17
50.720        20
50.740        17
50.760        10
50.780         7
50.800        10
50.820        10
50.840         3
50.860        17
50.880        13
50.900        13
50.920        27
50.940         7
50.960        10
50.980        13
51.000        10
51.020        17
51.040        17
51.060        13
51.080        10
51.100        13
51.120        20
51.140         7
51.160        27
51.180        10
51.200        13
51.220        20
51.240        10
51.260         7
51.280         7
51.300        13
51.320        10
51.340        10
51.360        20
51.380         7
51.400        30
51.420         0
51.440        10
51.460        10
51.480         7
51.500        13
51.520        10
51.540        10
51.560        17
51.580        17
51.600        10
51.620         3
51.640        20
51.660        10
51.680        23
51.700        23
51.720        23
51.740        13
51.760        23
51.780         0
51.800        13
51.820        17
51.840        17
51.860         0
51.880         7
51.900        17
51.920        23
51.940         3
51.960        13
51.980         7
52.000         7
52.020        10
52.040        10
52.060        30
52.080        20
52.100        20
52.120        17
52.140        13
52.160        17
52.180        20
52.200        20
52.220        13
52.240        13
52.260        10
52.280        33
52.300        10
52.320        13
52.340         0
52.360         7
52.380        13
52.400        17
52.420        10
52.440        17
52.460        13
52.480        10
52.500        20
52.520        10
52.540        27
52.560        40
52.580        40
52.600        23
52.620        43
52.640        23
52.660        20
52.680        17
52.700        13
52.720        23
52.740        23
52.760        47
52.780        20
52.800        17
52.820        27
52.840        17
52.860        10
52.880        17
52.900        13
52.920        10
52.940        13
52.960        17
52.980        10
53.000        13
53.020        13
53.040        17
53.060        10
53.080         3
53.100        23
53.120         0
53.140        20
53.160         7
53.180        10
53.200        13
53.220         3
53.240        13
53.260         0
53.280        13
53.300        10
53.320        20
53.340         7
53.360        10
53.380         7
53.400        10
53.420        20
53.440        23
53.460        30
53.480        13
53.500        20
53.520        13
53.540        20
53.560         7
53.580        17
53.600        10
53.620        13
53.640        13
53.660        13
53.680        10
53.700        13
53.720        17
53.740        17
53.760        13
53.780        10
53.800        17
53.820        10
53.840        13
53.860        10
53.880        17
53.900        17
53.920        13
53.940         3
53.960        27
53.980        13
54.000        10
54.020        13
54.040        13
54.060        13
54.080        17
54.100        13
54.120        17
54.140        17
54.160        17
54.180         3
54.200        17
54.220        13
54.240        33
54.260        23
54.280        10
54.300         7
54.320        17
54.340        20
54.360        27
54.380        10
54.400        17
54.420        23
54.440        20
54.460        10
54.480        23
54.500        17
54.520        17
54.540        20
54.560        20
54.580        20
54.600         7
54.620        27
54.640         3
54.660        10
54.680        17
54.700        20
54.720        10
54.740        27
54.760        17
54.780        17
54.800        27
54.820        37
54.840        23
54.860        23
54.880        27
54.900        23
54.920        13
54.940        20
54.960        33
54.980        30
55.000        50
55.020        23
55.040        60
55.060        63
55.080        77
55.100       103
55.120        97
55.140       110
55.160       143
55.180       103
55.200       113
55.220       227
55.240       137
55.260       173
55.280       140
55.300       187
55.320       187
55.340       170
55.360       187
55.380       203
55.400       140
55.420       170
55.440       177
55.460       190
55.480       147
55.500       130
55.520       120
55.540        73
55.560       123
55.580        97
55.600        77
55.620        97
55.640        60
55.660        80
55.680        70
55.700        70
55.720        43
55.740        67
55.760        40
55.780        33
55.800        37
55.820        30
55.840        27
55.860        30
55.880        13
55.900        33
55.920        20
55.940        17
55.960        20
55.980        17
56.000        13
56.020        17
56.040        20
56.060        23
56.080         3
56.100        10
56.120        17
56.140        23
56.160        10
56.180        20
56.200        13
56.220        33
56.240        17
56.260        13
56.280        20
56.300        17
56.320        13
56.340        10
56.360        30
56.380        13
56.400        10
56.420         3
56.440        30
56.460        20
56.480        23
56.500         7
56.520        10
56.540        13
56.560        10
56.580        10
56.600        13
56.620        20
56.640        13
56.660        10
56.680        13
56.700        20
56.720         0
56.740         7
56.760        13
56.780        13
56.800        20
56.820        13
56.840        17
56.860        13
56.880         3
56.900         7
56.920        10
56.940         3
56.960        27
56.980         3
57.000        13
57.020        13
57.040         7
57.060        17
57.080        10
57.100        10
57.120        10
57.140         7
57.160         3
57.180         7
57.200        10
57.220        17
57.240         7
57.260        10
57.280        17
57.300        17
57.320        17
57.340        13
57.360        13
57.380        23
57.400        17
57.420        27
57.440        47
57.460        63
57.480       117
57.500       190
57.520       170
57.540       207
57.560        83
57.580        67
57.600        77
57.620        67
57.640        57
57.660        87
57.680        80
57.700        93
57.720        60
57.740        50
57.760        23
57.780        20
57.800        20
57.820        17
57.840        23
57.860         7
57.880        20
57.900        17
57.920        27
57.940        20
57.960        10
57.980         3
58.000        27
58.020        13
58.040         7
58.060        13
58.080         7
58.100         7
58.120        10
58.140         3
58.160        23
58.180        17
58.200        13
58.220        13
58.240        20
58.260        10
58.280        13
58.300        17
58.320         3
58.340        30
58.360        10
58.380         3
58.400        17
58.420        13
58.440         0
58.460         3
58.480        13
58.500        10
58.520         7
58.540        13
58.560         7
58.580        17
58.600         7
58.620        13
58.640         3
58.660        10
58.680        10
58.700         3
58.720        20
58.740         7
58.760         7
58.780        10
58.800         3
58.820        27
58.840        10
58.860        10
58.880         7
58.900        13
58.920        17
58.940        10
58.960        17
58.980        10
59.000         0
59.020        20
59.040        13
59.060        23
59.080        13
59.100         7
59.120         7
59.140        13
59.160        13
59.180        17
59.200        10
59.220        10
59.240        10
59.260        17
59.280        13
59.300        17
59.320        10
59.340         3
59.360        23
59.380        17
59.400        10
59.420        17
59.440        10
59.460         7
59.480        10
59.500        17
59.520        23
59.540         7
59.560        13
59.580        13
59.600         3
59.620        13
59.640        17
59.660         7
59.680        13
59.700        10
59.720        27
59.740        17
59.760         0
59.780        10
59.800        20
59.820        20
59.840        13
59.860         7
59.880        30
59.900        10
59.920        10
59.940         7
59.960        10
59.980         7
60.000         7
