20.000        40
20.020        40
20.040        40
20.060        57
20.080        37
20.100        47
20.120        50
20.140        43
20.160        60
20.180        53
20.200        50
20.220        47
20.240        50
20.260        37
20.280        53
20.300        43
20.320        73
20.340        60
20.360        60
20.380        43
20.400        53
20.420        63
20.440        60
20.460        57
20.480        53
20.500        47
20.520        40
20.540        27
20.560        53
20.580        53
20.600        43
20.620        60
20.640        53
20.660        47
20.680        40
20.700        43
20.720        60
20.740        47
20.760        33
20.780        43
20.800        33
20.820        37
20.840        63
20.860        50
20.880        40
20.900        50
20.920        57
20.940        40
20.960        47
20.980        47
21.000        53
21.020        67
21.040        27
21.060        37
21.080        57
21.100        57
21.120        53
21.140        60
21.160        57
21.180        53
21.200        50
21.220        70
21.240        60
21.260        50
21.280        77
21.300        60
21.320        70
21.340        63
21.360        70
21.380        53
21.400        83
21.420        70
21.440        87
21.460        80
21.480        97
21.500       123
21.520       170
21.540       170
21.560       213
21.580       203
21.600       260
21.620       247
21.640       357
21.660       343
21.680       330
21.700       273
21.720       330
21.740       207
21.760       203
21.780       173
21.800       157
21.820       130
21.840       190
21.860       133
21.880        93
21.900        87
21.920        93
21.940        97
21.960        53
21.980        60
22.000        80
22.020        77
22.040        73
22.060        77
22.080        67
22.100        73
22.120        37
22.140        60
22.160        77
22.180        53
22.200        47
22.220        40
22.240        47
22.260        50
22.280        57
22.300        33
22.320        53
22.340        50
22.360        50
22.380        60
22.400        47
22.420        57
22.440        63
22.460        43
22.480        67
22.500        23
22.520        73
22.540        37
22.560        37
22.580        33
22.600        33
22.620        60
22.640        53
22.660        43
22.680        37
22.700        80
22.720        60
22.740        50
22.760        20
22.780        47
22.800        67
22.820        50
22.840        60
22.860        63
22.880        60
22.900        47
22.920        63
22.940        47
22.960        53
22.980        50
23.000        57
23.020        33
23.040        50
23.060        60
23.080        63
23.100        57
23.120        37
23.140        37
23.160        53
23.180        40
23.200        40
23.220        50
23.240        43
23.260        23
23.280        40
23.300        33
23.320        50
23.340        37
23.360        40
23.380        50
23.400        47
23.420        47
23.440        43
23.460        60
23.480        40
23.500        37
23.520        47
23.540        23
23.560        30
23.580        37
23.600        37
23.620        37
23.640        40
23.660        27
23.680        60
23.700        33
23.720        47
23.740        50
23.760        47
23.780        33
23.800        27
23.820        47
23.840        43
23.860        53
23.880        33
23.900        53
23.920        43
23.940        27
23.960        37
23.980        47
24.000        57
24.020        47
24.040        50
24.060        20
24.080        57
24.100        47
24.120        40
24.140        53
24.160        53
24.180        40
24.200        30
24.220        27
24.240        47
24.260        23
24.280        50
24.300        33
24.320        50
24.340        23
24.360        33
24.380        57
24.400        37
24.420        53
24.440        40
24.460        30
24.480        37
24.500        37
24.520        57
24.540        27
24.560        67
24.580        30
24.600        53
24.620        33
24.640        57
24.660        30
24.680        40
24.700        47
24.720        50
24.740        20
24.760        33
24.780        57
24.800        47
24.820        37
24.840        37
24.860        57
24.880        47
24.900        17
24.920        33
24.940        37
24.960        37
24.980        57
25.000        60
25.020        43
25.040        40
25.060        33
25.080        43
25.100        43
25.120        40
25.140        40
25.160        33
25.180        67
25.200        43
25.220        47
25.240        23
25.260        23
25.280        33
25.300        40
25.320        23
25.340        37
25.360        43
25.380        53
25.400        53
25.420        40
25.440        47
25.460        27
25.480        37
25.500        33
25.520        37
25.540        40
25.560        37
25.580        37
25.600        60
25.620        47
25.640        57
25.660        47
25.680        40
25.700        30
25.720        27
25.740        30
25.760        57
25.780        53
25.800        37
25.820        23
25.840        57
25.860        53
25.880        37
25.900        30
25.920        37
25.940        30
25.960        30
25.980        37
26.000        30
26.020        50
26.040        43
26.060        37
26.080        37
26.100        23
26.120        37
26.140        33
26.160        33
26.180        50
26.200        33
26.220        27
26.240        50
26.260        33
26.280        40
26.300        27
26.320        43
26.340        40
26.360        47
26.380        37
26.400        37
26.420        27
26.440        43
26.460        30
26.480        53
26.500        13
26.520        43
26.540        43
26.560        37
26.580        33
26.600        30
26.620        57
26.640        33
26.660        33
26.680        53
26.700        40
26.720        10
26.740        47
26.760        43
26.780        27
26.800        53
26.820        37
26.840        33
26.860        50
26.880        20
26.900        27
26.920        23
26.940        20
26.960        47
26.980        57
27.000        27
27.020        53
27.040        33
27.060        20
27.080        23
27.100        27
27.120        43
27.140        40
27.160        20
27.180        10
27.200        37
27.220        30
27.240        40
27.260        53
27.280        30
27.300        37
27.320        37
27.340        43
27.360        40
27.380        37
27.400        33
27.420        37
27.440        40
27.460        43
27.480        33
27.500        47
27.520        33
27.540        60
27.560        53
27.580        57
27.600        33
27.620        70
27.640        60
27.660       100
27.680        53
27.700        90
27.720        80
27.740        53
27.760        37
27.780        77
27.800        50
27.820        60
27.840        43
27.860        77
27.880        47
27.900        67
27.920        50
27.940        40
27.960        37
27.980        50
28.000        63
28.020        63
28.040        47
28.060        50
28.080        40
28.100        40
28.120        50
28.140        67
28.160        33
28.180        50
28.200        33
28.220        40
28.240        43
28.260        30
28.280        30
28.300        57
28.320        53
28.340        47
28.360        67
28.380        33
28.400        27
28.420        63
28.440        37
28.460        57
28.480        47
28.500        60
28.520        50
28.540        20
28.560        47
28.580        50
28.600        53
28.620        43
28.640        30
28.660        37
28.680        50
28.700        53
28.720        57
28.740        40
28.760        33
28.780        40
28.800        37
28.820        63
28.840        27
28.860        50
28.880        23
28.900        53
28.920        47
28.940        40
28.960        47
28.980        47
29.000        53
29.020        70
29.040        53
29.060        67
29.080        57
29.100        40
29.120        37
29.140        43
29.160        77
29.180        60
29.200        30
29.220        30
29.240        63
29.260        60
29.280        67
29.300        47
29.320        63
29.340        80
29.360        70
29.380        63
29.400        60
29.420        73
29.440        30
29.460        43
29.480        40
29.500        30
29.520        83
29.540        93
29.560        60
29.580        83
29.600        83
29.620        83
29.640        83
29.660        70
29.680        80
29.700        80
29.720        83
29.740        83
29.760        83
29.780        97
29.800        93
29.820       143
29.840       110
29.860       123
29.880       160
29.900       130
29.920       177
29.940       147
29.960       137
29.980       113
30.000       143
30.020       150
30.040       127
30.060       167
30.080       150
30.100       180
30.120       223
30.140       163
30.160       207
30.180       207
30.200       237
30.220       250
30.240       247
30.260       293
30.280       313
30.300       280
30.320       380
30.340       373
30.360       367
30.380       486
30.400       593
30.420       576
30.440       773
30.460       886
30.480      1080
30.500      1236
30.520      1459
30.540      1666
30.560      1919
30.580      2529
30.600      2889
30.620      3315
30.640      4075
30.660      4745
30.680      5444
30.700      6038
30.720      6221
30.740      6354
30.760      6218
30.780      5888
30.800      5415
30.820      4981
30.840      4418
30.860      3862
30.880      3412
30.900      2949
30.920      2409
30.940      2366
30.960      1953
30.980      2003
31.000      1716
31.020      1506
31.040      1363
31.060      1206
31.080      1160
31.100      1080
31.120       990
31.140       856
31.160       850
31.180       746
31.200       743
31.220       650
31.240       663
31.260       570
31.280       630
31.300       543
31.320       480
31.340       466
31.360       456
31.380       446
31.400       377
31.420       397
31.440       390
31.460       377
31.480       363
31.500       317
31.520       290
31.540       290
31.560       343
31.580       263
31.600       280
31.620       243
31.640       270
31.660       213
31.680       253
31.700       293
31.720       187
31.740       190
31.760       193
31.780       243
31.800       223
31.820       167
31.840       187
31.860       147
31.880       190
31.900       197
31.920       137
31.940       163
31.960       143
31.980       140
32.000       163
32.020       143
32.040       147
32.060       130
32.080        97
32.100       167
32.120       187
32.140       173
32.160       113
32.180       133
32.200        73
32.220       123
32.240       140
32.260       130
32.280        90
32.300       113
32.320       147
32.340       117
32.360       120
32.380       107
32.400       110
32.420       117
32.440        83
32.460       107
32.480        93
32.500       107
32.520       120
32.540        80
32.560        77
32.580        90
32.600        53
32.620        87
32.640       100
32.660        70
32.680        70
32.700        60
32.720        90
32.740        47
32.760        87
32.780        77
32.800        90
32.820        83
32.840        67
32.860        67
32.880        80
32.900        77
32.920        50
32.940        60
32.960        77
32.980        70
33.000        77
33.020        37
33.040        80
33.060        73
33.080        83
33.100        63
33.120       107
33.140        60
33.160        80
33.180        50
33.200        50
33.220        77
33.240        53
33.260        33
33.280        67
33.300        77
33.320        33
33.340        50
33.360        73
33.380        73
33.400        53
33.420        47
33.440        57
33.460        73
33.480        60
33.500        33
33.520        43
33.540        50
33.560        43
33.580        60
33.600        67
33.620        63
33.640        57
33.660        40
33.680        40
33.700        67
33.720        60
33.740        47
33.760        80
33.780        27
33.800        57
33.820        47
33.840        60
33.860        47
33.880        53
33.900        50
33.920        57
33.940        40
33.960        33
33.980        40
34.000        43
34.020        50
34.040        50
34.060        43
34.080        63
34.100        33
34.120        33
34.140        47
34.160        43
34.180        40
34.200        20
34.220        27
34.240        33
34.260        53
34.280        37
34.300        50
34.320        27
34.340        30
34.360        33
34.380        73
34.400        63
34.420        53
34.440        33
34.460        57
34.480        50
34.500        53
34.520        47
34.540        60
34.560        57
34.580        37
34.600        43
34.620        47
34.640        50
34.660        67
34.680        40
34.700        40
34.720        43
34.740        17
34.760        47
34.780        37
34.800        47
34.820        37
34.840        40
34.860        57
34.880        47
34.900        50
34.920        57
34.940        53
34.960        50
34.980        47
35.000        53
35.020        80
35.040        97
35.060       123
35.080        60
35.100        83
35.120        93
35.140       113
35.160       130
35.180        93
35.200        90
35.220        93
35.240        97
35.260        97
35.280        77
35.300        43
35.320        60
35.340        33
35.360        37
35.380        33
35.400        50
35.420        37
35.440        20
35.460        47
35.480        40
35.500        23
35.520        57
35.540        23
35.560        43
35.580        53
35.600        33
35.620        33
35.640        53
35.660        40
35.680        53
35.700        30
35.720        43
35.740        40
35.760        37
35.780        30
35.800        30
35.820        40
35.840        27
35.860        30
35.880        27
35.900        30
35.920        30
35.940        43
35.960        23
35.980        50
36.000        23
36.020        43
36.040        40
36.060        23
36.080        50
36.100        63
36.120        33
36.140        43
36.160        43
36.180        30
36.200        53
36.220        53
36.240        47
36.260        20
36.280        27
36.300        37
36.320        50
36.340        43
36.360        40
36.380        33
36.400        37
36.420        43
36.440        23
36.460        20
36.480        30
36.500        40
36.520        40
36.540        20
36.560        23
36.580        33
36.600        50
36.620        37
36.640        53
36.660        23
36.680        23
36.700        37
36.720        40
36.740        37
36.760        27
36.780        30
36.800        27
36.820        47
36.840        30
36.860        37
36.880        37
36.900        27
36.920        47
36.940        37
36.960        40
36.980        27
37.000        27
37.020        50
37.040        40
37.060        47
37.080        37
37.100        27
37.120        23
37.140        40
37.160        73
37.180        20
37.200        63
37.220        50
37.240        23
37.260        40
37.280        47
37.300        37
37.320        37
37.340        40
37.360        37
37.380        27
37.400        23
37.420        50
37.440        43
37.460        40
37.480        47
37.500        57
37.520        33
37.540        43
37.560        53
37.580        43
37.600        57
37.620        77
37.640        60
37.660        67
37.680        73
37.700       103
37.720        80
37.740        97
37.760       110
37.780       183
37.800       133
37.820       167
37.840       207
37.860       227
37.880       220
37.900       290
37.920       327
37.940       347
37.960       300
37.980       397
38.000       340
38.020       367
38.040       287
38.060       313
38.080       250
38.100       227
38.120       207
38.140       173
38.160       133
38.180       147
38.200       153
38.220       137
38.240       130
38.260       133
38.280       130
38.300       100
38.320       127
38.340       110
38.360        90
38.380        80
38.400        87
38.420        93
38.440        63
38.460        37
38.480        67
38.500        67
38.520        53
38.540        63
38.560        87
38.580        60
38.600        53
38.620        37
38.640        53
38.660        57
38.680        47
38.700        47
38.720        40
38.740        30
38.760        53
38.780        33
38.800        27
38.820        30
38.840        33
38.860        27
38.880        20
38.900        43
38.920        50
38.940        63
38.960        30
38.980        57
39.000        50
39.020        50
39.040        37
39.060        33
39.080        27
39.100        30
39.120        23
39.140        43
39.160        33
39.180        33
39.200        50
39.220        27
39.240        50
39.260        37
39.280        43
39.300        17
39.320        37
39.340        47
39.360        13
39.380        30
39.400        27
39.420        17
39.440        27
39.460        23
39.480        50
39.500        37
39.520        40
39.540        43
39.560        30
39.580        33
39.600        33
39.620        53
39.640        33
39.660        23
39.680        27
39.700        33
39.720        47
39.740        13
39.760        33
39.780        30
39.800        40
39.820        43
39.840        43
39.860        33
39.880        40
39.900        40
39.920        33
39.940        23
39.960        27
39.980        37
40.000        33
40.020        30
40.040        27
40.060        37
40.080        17
40.100        23
40.120        37
40.140        33
40.160        30
40.180        43
40.200        33
40.220        13
40.240        17
40.260        43
40.280        20
40.300        33
40.320        33
40.340        47
40.360        10
40.380        20
40.400        30
40.420        30
40.440        47
40.460        50
40.480        30
40.500        33
40.520        30
40.540        20
40.560        27
40.580        13
40.600        23
40.620        50
40.640        43
40.660        33
40.680        33
40.700        23
40.720        40
40.740        33
40.760        40
40.780        53
40.800        27
40.820        33
40.840         7
40.860        17
40.880        27
40.900        43
40.920        37
40.940        17
40.960        27
40.980        30
41.000        33
41.020        10
41.040        27
41.060        20
41.080        17
41.100        20
41.120        13
41.140        27
41.160        17
41.180        27
41.200        27
41.220        20
41.240        47
41.260        30
41.280        40
41.300        37
41.320        13
41.340        20
41.360        33
41.380        20
41.400        37
41.420        50
41.440        17
41.460        23
41.480        40
41.500        43
41.520        33
41.540        33
41.560        27
41.580        30
41.600        33
41.620        43
41.640        50
41.660        57
41.680       113
41.700       113
41.720        87
41.740        67
41.760        53
41.780        50
41.800        67
41.820        47
41.840        70
41.860        63
41.880        47
41.900        40
41.920         7
41.940        13
41.960        23
41.980        17
42.000        23
42.020        43
42.040        27
42.060        23
42.080        20
42.100        27
42.120        37
42.140        20
42.160        30
42.180        20
42.200        33
42.220        40
42.240        27
42.260        30
42.280        37
42.300        20
42.320        20
42.340        33
42.360        30
42.380        43
42.400        37
42.420        43
42.440        20
42.460        30
42.480        27
42.500        47
42.520        30
42.540        43
42.560        43
42.580        30
42.600        43
42.620        23
42.640        33
42.660        27
42.680        33
42.700        33
42.720        60
42.740        40
42.760        37
42.780        63
42.800        50
42.820        50
42.840        37
42.860        33
42.880        60
42.900        50
42.920        23
42.940        47
42.960        27
42.980        27
43.000        60
43.020        43
43.040        33
43.060        43
43.080        50
43.100        30
43.120        53
43.140        50
43.160        47
43.180        37
43.200        63
43.220        80
43.240        87
43.260        50
43.280        83
43.300        67
43.320        63
43.340        90
43.360       103
43.380        93
43.400       130
43.420       133
43.440        90
43.460       130
43.480        80
43.500        93
43.520       130
43.540       103
43.560       130
43.580       150
43.600       120
43.620       150
43.640       137
43.660       120
43.680       180
43.700       190
43.720       200
43.740       223
43.760       303
43.780       310
43.800       357
43.820       310
43.840       383
43.860       456
43.880       483
43.900       543
43.920       516
43.940       510
43.960       660
43.980       596
44.000       690
44.020       820
44.040       786
44.060       866
44.080       843
44.100       880
44.120       940
44.140       913
44.160       886
44.180       833
44.200       793
44.220       756
44.240       693
44.260       813
44.280       580
44.300       693
44.320       600
44.340       553
44.360       456
44.380       460
44.400       380
44.420       420
44.440       343
44.460       387
44.480       343
44.500       290
44.520       343
44.540       227
44.560       267
44.580       230
44.600       237
44.620       197
44.640       207
44.660       230
44.680       177
44.700       167
44.720       190
44.740       143
44.760       127
44.780       170
44.800       133
44.820       150
44.840       147
44.860        60
44.880        97
44.900        97
44.920       100
44.940       107
44.960        87
44.980        87
45.000        90
45.020        87
45.040        90
45.060        67
45.080        87
45.100        63
45.120        67
45.140        70
45.160        80
45.180        73
45.200        60
45.220        53
45.240        60
45.260        57
45.280        57
45.300        67
45.320        63
45.340        40
45.360        43
45.380        37
45.400        40
45.420        60
45.440        60
45.460        50
45.480        20
45.500        30
45.520        47
45.540        33
45.560        30
45.580        40
45.600        37
45.620        53
45.640        43
45.660        47
45.680        47
45.700        27
45.720        33
45.740        47
45.760        57
45.780        27
45.800        40
45.820        37
45.840        43
45.860        17
45.880        27
45.900        33
45.920        20
45.940        33
45.960        30
45.980        23
46.000        23
46.020        37
46.040        13
46.060        30
46.080        30
46.100        17
46.120        23
46.140        40
46.160        20
46.180        17
46.200        47
46.220        10
46.240        30
46.260        33
46.280        43
46.300        37
46.320        20
46.340        10
46.360        33
46.380        30
46.400        30
46.420        23
46.440        33
46.460        10
46.480        20
46.500        20
46.520        37
46.540        33
46.560        50
46.580        30
46.600        20
46.620        37
46.640        33
46.660        10
46.680        20
46.700        10
46.720        33
46.740        30
46.760        20
46.780        17
46.800        13
46.820        20
46.840        30
46.860        17
46.880        17
46.900        33
46.920        23
46.940        23
46.960        43
46.980        30
47.000        27
47.020        17
47.040        30
47.060        27
47.080        30
47.100        33
47.120        37
47.140        27
47.160        23
47.180        23
47.200        13
47.220        20
47.240        37
47.260        27
47.280        43
47.300        17
47.320        27
47.340        33
47.360        27
47.380        47
47.400        37
47.420        33
47.440        17
47.460        37
47.480        10
47.500        23
47.520        33
47.540        27
47.560        17
47.580        10
47.600        20
47.620        23
47.640        23
47.660        10
47.680        43
47.700        27
47.720        20
47.740        27
47.760        30
47.780        30
47.800        17
47.820        27
47.840        23
47.860        20
47.880        37
47.900        27
47.920         7
47.940        23
47.960        17
47.980        10
48.000        17
48.020        27
48.040        30
48.060        17
48.080         7
48.100        20
48.120        13
48.140        33
48.160        23
48.180        40
48.200        40
48.220        17
48.240        30
48.260        10
48.280        30
48.300        17
48.320        27
48.340        20
48.360         7
48.380        17
48.400        13
48.420        23
48.440        23
48.460        20
48.480        30
48.500         7
48.520        10
48.540        30
48.560        20
48.580        10
48.600        27
48.620        23
48.640        17
48.660        30
48.680        30
48.700        23
48.720        23
48.740        30
48.760        23
48.780        13
48.800        20
48.820        13
48.840         7
48.860        33
48.880        17
48.900        17
48.920         3
48.940        20
48.960        30
48.980        33
49.000        20
49.020        17
49.040        27
49.060        37
49.080        27
49.100        23
49.120        10
49.140        37
49.160        20
49.180        27
49.200        10
49.220        23
49.240        17
49.260        27
49.280        20
49.300        20
49.320        23
49.340        17
49.360        10
49.380        37
49.400        27
49.420        27
49.440        33
49.460        23
49.480        13
49.500        13
49.520        33
49.540        40
49.560        37
49.580        13
49.600        10
49.620        27
49.640        30
49.660        13
49.680        10
49.700        23
49.720         3
49.740        13
49.760        20
49.780        17
49.800        20
49.820        20
49.840        23
49.860        17
49.880        43
49.900        17
49.920        10
49.940        17
49.960        20
49.980        33
50.000        17
50.020        20
50.040        20
50.060        17
50.080        27
50.100         7
50.120        27
50.140        23
50.160         7
50.180        17
50.200        47
50.220        27
50.240        13
50.260        27
50.280         7
50.300        30
50.320        23
50.340        20
50.360        20
50.380        23
50.400        13
50.420        30
50.440        13
50.460        20
50.480        30
50.500        27
50.520        13
50.540        10
50.560        27
50.580        17
50.600        10
50.620        20
50.640        23
50.660        23
50.680        23
50.700        47
50.720        23
50.740        13
50.760        17
50.780        23
50.800        27
50.820        17
50.840        30
50.860        20
50.880        27
50.900        37
50.920        20
50.940        33
50.960        23
50.980        13
51.000        20
51.020        30
51.040        20
51.060        23
51.080        10
51.100        20
51.120        20
51.140        20
51.160        13
51.180        13
51.200        17
51.220        23
51.240        27
51.260        17
51.280        23
51.300        13
51.320        13
51.340         3
51.360        13
51.380        13
51.400        17
51.420        37
51.440        33
51.460        33
51.480         7
51.500        13
51.520        17
51.540        20
51.560        20
51.580        20
51.600        10
51.620        23
51.640        17
51.660        13
51.680        33
51.700        13
51.720        13
51.740        13
51.760        23
51.780        10
51.800         7
51.820        37
51.840        27
51.860        23
51.880        17
51.900        27
51.920        17
51.940        23
51.960        20
51.980        27
52.000        20
52.020         7
52.040        27
52.060        23
52.080         7
52.100        10
52.120        17
52.140        20
52.160        33
52.180        23
52.200        10
52.220        17
52.240        10
52.260        17
52.280        37
52.300        13
52.320         7
52.340        17
52.360         7
52.380        13
52.400        17
52.420        17
52.440        17
52.460         3
52.480        23
52.500        13
52.520        10
52.540        27
52.560        30
52.580        37
52.600        60
52.620        30
52.640        37
52.660        27
52.680        37
52.700        23
52.720        43
52.740        17
52.760        17
52.780        27
52.800        20
52.820        13
52.840        17
52.860        10
52.880        20
52.900        17
52.920        10
52.940        20
52.960        30
52.980        33
53.000        17
53.020        20
53.040        37
53.060        13
53.080         7
53.100        13
53.120        17
53.140        17
53.160        13
53.180        10
53.200        20
53.220         7
53.240        20
53.260        10
53.280        17
53.300        27
53.320        10
53.340        23
53.360        13
53.380        17
53.400         0
53.420        13
53.440        17
53.460        13
53.480        17
53.500        23
53.520        10
53.540        23
53.560         7
53.580         7
53.600         7
53.620        23
53.640        30
53.660        30
53.680        23
53.700         7
53.720        17
53.740        13
53.760        10
53.780        13
53.800        10
53.820         7
53.840        20
53.860        10
53.880        23
53.900        13
53.920         7
53.940        20
53.960         7
53.980         3
54.000        13
54.020        17
54.040        13
54.060         7
54.080        10
54.100        10
54.120        13
54.140        20
54.160        13
54.180        17
54.200        23
54.220        30
54.240        10
54.260        17
54.280        13
54.300        27
54.320        27
54.340        23
54.360        27
54.380        17
54.400        17
54.420        27
54.440        10
54.460        20
54.480        23
54.500        13
54.520        30
54.540        50
54.560        30
54.580        27
54.600        33
54.620        33
54.640        47
54.660        40
54.680        37
54.700        37
54.720        40
54.740        40
54.760        40
54.780        23
54.800        20
54.820        27
54.840        33
54.860        53
54.880        40
54.900        50
54.920        43
54.940        33
54.960        13
54.980        27
55.000        43
55.020        30
55.040        20
55.060        27
55.080        50
55.100        20
55.120        33
55.140        17
55.160        33
55.180        20
55.200        13
55.220        20
55.240        30
55.260        20
55.280        23
55.300        13
55.320        13
55.340        37
55.360        20
55.380        17
55.400        30
55.420        17
55.440        20
55.460         3
55.480        13
55.500        17
55.520        13
55.540        13
55.560        20
55.580         0
55.600        30
55.620        20
55.640        23
55.660        23
55.680        23
55.700        17
55.720        13
55.740        17
55.760         7
55.780         7
55.800        10
55.820        10
55.840        27
55.860        10
55.880        17
55.900        30
55.920        13
55.940         7
55.960        20
55.980        10
56.000        13
56.020        27
56.040        10
56.060        17
56.080        30
56.100        10
56.120        10
56.140         3
56.160        13
56.180        10
56.200        10
56.220        17
56.240        23
56.260        13
56.280         7
56.300        13
56.320        13
56.340         7
56.360        10
56.380        13
56.400        10
56.420        17
56.440        20
56.460        13
56.480        17
56.500        13
56.520        20
56.540        23
56.560         7
56.580        20
56.600        20
56.620        13
56.640        17
56.660        13
56.680         7
56.700        20
56.720        10
56.740        20
56.760         7
56.780        23
56.800         3
56.820         7
56.840        10
56.860         7
56.880        10
56.900        20
56.920        23
56.940        20
56.960        17
56.980        10
57.000        13
57.020        27
57.040        13
57.060        27
57.080        17
57.100        13
57.120        10
57.140        23
57.160        23
57.180        13
57.200        33
57.220        30
57.240        13
57.260        33
57.280        23
57.300        23
57.320        20
57.340        17
57.360        13
57.380        17
57.400        13
57.420        20
57.440        20
57.460        30
57.480        27
57.500        50
57.520        33
57.540        20
57.560        20
57.580        23
57.600        17
57.620        17
57.640        20
57.660        30
57.680        20
57.700        27
57.720        17
57.740        20
57.760        23
57.780        10
57.800         7
57.820        20
57.840        23
57.860        27
57.880         7
57.900        17
57.920        17
57.940        20
57.960        10
57.980        10
58.000        20
58.020         3
58.040        10
58.060         7
58.080        20
58.100        27
58.120        13
58.140         7
58.160        10
58.180         7
58.200        17
58.220        13
58.240        23
58.260        17
58.280        13
58.300        13
58.320        37
58.340         7
58.360        10
58.380        10
58.400        33
58.420         7
58.440         7
58.460        17
58.480        10
58.500        17
58.520        10
58.540         7
58.560        27
58.580         0
58.600        13
58.620         3
58.640        23
58.660         7
58.680        13
58.700        20
58.720        13
58.740        10
58.760         7
58.780         7
58.800        10
58.820        13
58.840        20
58.860        10
58.880        10
58.900        33
58.920        10
58.940        13
58.960        10
58.980        27
59.000        20
59.020        23
59.040        17
59.060        17
59.080         7
59.100        13
59.120        17
59.140        23
59.160        13
59.180         7
59.200        20
59.220        10
59.240        10
59.260         7
59.280        20
59.300        13
59.320        37
59.340        17
59.360        20
59.380        13
59.400        20
59.420        10
59.440         3
59.460        10
59.480        27
59.500        10
59.520        13
59.540        23
59.560        10
59.580        13
59.600        17
59.620         7
59.640        20
59.660        13
59.680        10
59.700        20
59.720         0
59.740        13
59.760        10
59.780        10
59.800        23
59.820        13
59.840        43
59.860        10
59.880        33
59.900        13
59.920        27
59.940        20
59.960        13
59.980        10
60.000        13
