20.000        27
20.010        40
20.020        13
20.030        40
20.040        67
20.050        40
20.060        27
20.070         0
20.080        27
20.090        40
20.100        13
20.110        27
20.120        40
20.130         0
20.140        13
20.150        40
20.160        40
20.170        27
20.180        27
20.190         0
20.200        40
20.210        80
20.220        13
20.230         0
20.240        67
20.250        53
20.260        13
20.270        53
20.280        27
20.290        67
20.300        80
20.310        13
20.320        67
20.330         0
20.340        40
20.350        53
20.360        27
20.370        27
20.380        93
20.390         0
20.400        80
20.410        53
20.420        80
20.430        40
20.440        67
20.450        67
20.460        80
20.470        40
20.480        40
20.490        13
20.500        13
20.510        80
20.520        40
20.530        53
20.540        53
20.550        53
20.560        93
20.570        27
20.580        53
20.590        80
20.600        80
20.610        67
20.620        53
20.630       107
20.640        67
20.650        13
20.660        27
20.670        80
20.680       133
20.690        27
20.700        13
20.710        53
20.720        40
20.730        27
20.740        53
20.750        13
20.760        13
20.770        13
20.780        27
20.790        27
20.800        53
20.810        27
20.820        27
20.830         0
20.840         0
20.850        67
20.860        40
20.870        40
20.880        53
20.890        27
20.900        40
20.910        40
20.920        27
20.930        40
20.940        40
20.950        67
20.960        27
20.970        27
20.980        80
20.990        80
21.000        67
21.010        53
21.020        27
21.030        40
21.040        27
21.050        27
21.060        40
21.070        67
21.080         0
21.090         0
21.100        80
21.110        27
21.120        13
21.130        40
21.140        40
21.150        80
21.160        53
21.170        40
21.180        13
21.190        27
21.200        40
21.210        27
21.220        13
21.230        40
21.240        27
21.250         0
21.260        13
21.270        27
21.280        40
21.290        67
21.300        13
21.310        27
21.320        40
21.330        27
21.340        53
21.350        80
21.360        13
21.370        27
21.380        67
21.390        67
21.400        27
21.410        40
21.420        27
21.430        53
21.440        27
21.450        67
21.460        40
21.470        27
21.480        40
21.490        27
21.500        80
21.510        27
21.520        27
21.530        40
21.540        40
21.550        80
21.560        67
21.570        53
21.580        27
21.590        13
21.600        40
21.610        27
21.620        40
21.630        53
21.640        40
21.650        53
21.660        13
21.670        93
21.680        27
21.690        53
21.700        40
21.710        53
21.720        53
21.730        40
21.740        53
21.750        53
21.760       107
21.770        27
21.780        53
21.790        53
21.800        13
21.810        53
21.820        40
21.830        80
21.840        27
21.850        67
21.860        53
21.870        27
21.880        40
21.890        67
21.900        80
21.910        40
21.920        27
21.930        40
21.940        13
21.950        53
21.960        27
21.970        13
21.980        27
21.990        53
22.000        13
22.010         0
22.020        40
22.030        13
22.040        27
22.050        27
22.060        80
22.070        27
22.080        40
22.090        13
22.100        80
22.110        67
22.120        13
22.130        13
22.140        27
22.150         0
22.160        27
22.170        93
22.180        67
22.190        67
22.200        40
22.210        40
22.220        67
22.230        53
22.240        40
22.250         0
22.260        27
22.270        13
22.280        27
22.290        53
22.300        27
22.310        40
22.320        27
22.330        40
22.340        80
22.350        13
22.360        13
22.370        40
22.380        27
22.390        13
22.400        27
22.410        27
22.420        53
22.430        80
22.440        13
22.450        80
22.460        80
22.470        13
22.480        53
22.490        40
22.500        53
22.510        40
22.520        67
22.530        40
22.540        40
22.550        40
22.560        13
22.570        40
22.580        53
22.590        53
22.600        27
22.610        53
22.620        40
22.630        67
22.640       107
22.650        27
22.660        13
22.670        53
22.680        13
22.690        13
22.700        27
22.710        67
22.720        13
22.730        27
22.740        53
22.750        40
22.760        13
22.770        27
22.780        13
22.790        27
22.800        13
22.810        27
22.820        53
22.830         0
22.840        67
22.850        13
22.860        27
22.870        67
22.880        13
22.890        40
22.900        27
22.910        67
22.920        93
22.930        40
22.940        27
22.950        67
22.960         0
22.970        27
22.980        67
22.990        53
23.000        53
23.010        53
23.020        27
23.030        53
23.040        80
23.050        40
23.060        53
23.070        27
23.080        53
23.090        40
23.100        27
23.110        13
23.120        27
23.130       107
23.140        13
23.150        13
23.160        40
23.170        53
23.180         0
23.190        13
23.200        67
23.210        27
23.220        53
23.230        80
23.240        40
23.250        13
23.260        27
23.270        13
23.280        53
23.290        13
23.300        53
23.310        13
23.320        40
23.330        53
23.340        40
23.350        13
23.360        27
23.370        40
23.380        13
23.390        53
23.400        27
23.410        40
23.420        40
23.430         0
23.440        13
23.450        80
23.460        53
23.470        40
23.480        93
23.490        13
23.500        13
23.510        40
23.520        27
23.530        53
23.540        13
23.550        13
23.560        53
23.570        53
23.580        13
23.590        27
23.600        67
23.610        67
23.620        53
23.630        40
23.640        67
23.650        13
23.660        67
23.670        67
23.680         0
23.690        40
23.700        53
23.710        13
23.720         0
23.730        40
23.740        53
23.750        40
23.760        40
23.770        40
23.780        13
23.790         0
23.800        27
23.810        13
23.820        13
23.830        53
23.840        13
23.850        80
23.860        40
23.870        80
23.880        40
23.890        27
23.900        67
23.910        40
23.920        27
23.930        67
23.940         0
23.950        27
23.960        40
23.970        53
23.980        13
23.990        13
24.000        13
24.010        53
24.020        13
24.030        27
24.040        27
24.050        40
24.060        13
24.070        13
24.080        27
24.090        27
24.100        13
24.110        13
24.120        13
24.130        13
24.140         0
24.150        67
24.160        27
24.170        53
24.180        27
24.190        27
24.200        27
24.210        40
24.220        13
24.230        40
24.240        13
24.250        40
24.260        13
24.270        27
24.280        27
24.290        27
24.300        27
24.310        13
24.320         0
24.330        53
24.340        40
24.350        40
24.360        67
24.370        13
24.380        27
24.390        27
24.400        40
24.410        13
24.420        53
24.430        80
24.440        13
24.450        67
24.460        27
24.470        40
24.480        40
24.490        27
24.500        13
24.510        13
24.520        40
24.530        40
24.540        13
24.550        27
24.560        13
24.570        40
24.580        27
24.590        27
24.600        27
24.610        13
24.620        53
24.630        27
24.640         0
24.650        13
24.660        40
24.670        27
24.680        53
24.690        27
24.700        40
24.710        27
24.720        53
24.730        13
24.740        13
24.750        13
24.760         0
24.770        13
24.780        67
24.790        27
24.800        40
24.810        40
24.820        40
24.830         0
24.840        27
24.850        27
24.860        27
24.870        13
24.880        27
24.890         0
24.900        13
24.910        40
24.920        40
24.930        13
24.940        27
24.950        13
24.960         0
24.970        13
24.980        40
24.990        13
25.000        67
25.010        53
25.020        27
25.030        27
25.040        40
25.050        27
25.060        13
25.070        27
25.080        27
25.090        27
25.100        13
25.110        67
25.120        40
25.130        27
25.140        40
25.150        40
25.160        53
25.170        27
25.180        27
25.190        40
25.200        27
25.210        53
25.220        13
25.230        40
25.240        40
25.250        27
25.260        13
25.270        27
25.280        13
25.290         0
25.300        27
25.310         0
25.320        27
25.330        27
25.340        40
25.350        13
25.360        13
25.370        40
25.380        13
25.390        27
25.400        40
25.410        13
25.420        80
25.430        40
25.440        13
25.450        13
25.460        27
25.470        40
25.480        13
25.490         0
25.500         0
25.510         0
25.520        27
25.530        27
25.540        27
25.550        13
25.560        13
25.570        27
25.580        40
25.590        27
25.600        13
25.610        27
25.620        27
25.630        40
25.640        40
25.650         0
25.660        40
25.670        53
25.680        40
25.690        40
25.700        13
25.710        40
25.720        40
25.730        80
25.740        13
25.750        13
25.760        40
25.770        40
25.780        40
25.790        53
25.800        13
25.810        53
25.820        53
25.830        13
25.840        53
25.850        13
25.860        13
25.870        13
25.880        13
25.890        13
25.900        27
25.910        40
25.920        40
25.930        40
25.940        13
25.950        27
25.960        13
25.970        53
25.980        27
25.990        40
26.000        27
26.010        27
26.020        27
26.030        27
26.040        40
26.050        13
26.060        13
26.070        40
26.080        13
26.090        40
26.100        13
26.110        67
26.120        13
26.130        27
26.140        53
26.150        13
26.160        40
26.170        93
26.180        13
26.190        27
26.200        40
26.210        27
26.220        27
26.230        40
26.240        67
26.250        13
26.260        13
26.270        13
26.280        13
26.290        53
26.300        53
26.310        27
26.320        27
26.330        13
26.340        27
26.350        67
26.360         0
26.370        27
26.380         0
26.390        40
26.400        40
26.410        40
26.420         0
26.430         0
26.440        13
26.450        40
26.460         0
26.470        67
26.480        40
26.490        53
26.500        27
26.510        13
26.520        13
26.530        13
26.540        80
26.550        13
26.560        40
26.570        40
26.580        27
26.590        13
26.600        27
26.610        27
26.620        67
26.630        53
26.640         0
26.650        27
26.660        27
26.670        53
26.680        40
26.690         0
26.700        27
26.710        53
26.720        27
26.730        13
26.740        13
26.750        53
26.760        40
26.770        27
26.780        53
26.790        40
26.800        40
26.810        40
26.820        93
26.830        13
26.840         0
26.850         0
26.860         0
26.870        40
26.880        13
26.890        53
26.900        27
26.910        93
26.920        27
26.930        13
26.940        13
26.950        27
26.960        13
26.970        13
26.980        13
26.990        40
27.000        13
27.010         0
27.020        27
27.030        53
27.040         0
27.050        53
27.060        27
27.070        53
27.080        40
27.090        27
27.100        27
27.110         0
27.120         0
27.130        40
27.140        27
27.150        13
27.160        13
27.170         0
27.180        40
27.190        13
27.200        13
27.210        27
27.220        13
27.230        80
27.240        53
27.250         0
27.260        40
27.270        27
27.280        80
27.290        13
27.300        13
27.310        40
27.320        13
27.330        13
27.340        40
27.350        13
27.360         0
27.370        13
27.380        53
27.390        13
27.400        13
27.410         0
27.420        13
27.430        80
27.440        27
27.450         0
27.460        27
27.470        13
27.480        80
27.490        27
27.500        13
27.510        40
27.520        27
27.530         0
27.540        27
27.550         0
27.560        13
27.570        13
27.580        27
27.590        27
27.600        53
27.610        13
27.620        13
27.630        40
27.640        13
27.650        13
27.660         0
27.670        13
27.680        27
27.690        27
27.700       147
27.710        13
27.720        40
27.730        40
27.740        40
27.750        53
27.760        40
27.770        13
27.780        27
27.790        40
27.800         0
27.810        13
27.820        27
27.830        13
27.840        13
27.850        13
27.860        67
27.870        13
27.880        67
27.890        27
27.900         0
27.910        27
27.920        27
27.930        27
27.940        27
27.950        27
27.960        27
27.970         0
27.980         0
27.990        27
28.000         0
28.010        53
28.020        53
28.030        67
28.040        27
28.050        27
28.060        27
28.070       107
28.080        40
28.090        67
28.100        13
28.110        40
28.120        27
28.130        53
28.140        80
28.150        53
28.160        67
28.170        53
28.180        67
28.190        40
28.200        40
28.210        53
28.220        27
28.230        13
28.240        27
28.250        27
28.260        13
28.270        27
28.280        67
28.290        67
28.300        40
28.310        53
28.320        27
28.330        40
28.340         0
28.350        27
28.360         0
28.370        40
28.380        27
28.390         0
28.400        40
28.410        27
28.420         0
28.430        27
28.440         0
28.450        27
28.460        67
28.470        67
28.480        13
28.490        53
28.500        13
28.510        13
28.520        27
28.530        40
28.540        40
28.550         0
28.560        13
28.570         0
28.580        80
28.590        53
28.600         0
28.610        40
28.620         0
28.630        13
28.640        27
28.650        27
28.660         0
28.670        53
28.680         0
28.690        67
28.700        40
28.710        40
28.720        40
28.730        40
28.740        13
28.750        40
28.760         0
28.770        53
28.780        13
28.790        40
28.800        53
28.810        53
28.820        27
28.830        40
28.840        40
28.850         0
28.860        53
28.870        27
28.880         0
28.890        40
28.900        13
28.910        13
28.920        40
28.930         0
28.940         0
28.950        40
28.960        13
28.970         0
28.980        67
28.990        27
29.000        13
29.010        53
29.020         0
29.030        27
29.040        40
29.050        27
29.060        13
29.070        27
29.080        13
29.090        13
29.100        53
29.110        27
29.120        27
29.130        67
29.140        13
29.150        27
29.160        13
29.170        80
29.180        13
29.190        40
29.200        27
29.210        27
29.220        27
29.230        53
29.240        27
29.250         0
29.260        27
29.270        27
29.280        27
29.290         0
29.300        27
29.310        13
29.320        40
29.330        40
29.340         0
29.350        27
29.360        27
29.370        40
29.380         0
29.390        40
29.400        40
29.410        13
29.420         0
29.430        40
29.440        40
29.450        40
29.460        13
29.470        40
29.480        40
29.490        13
29.500        27
29.510        27
29.520        27
29.530        13
29.540        40
29.550        53
29.560        27
29.570        27
29.580        53
29.590        27
29.600        27
29.610         0
29.620        13
29.630         0
29.640        40
29.650        40
29.660        53
29.670         0
29.680        40
29.690        27
29.700        13
29.710         0
29.720         0
29.730        27
29.740        40
29.750         0
29.760        67
29.770        27
29.780         0
29.790        13
29.800        53
29.810        13
29.820        53
29.830        13
29.840        53
29.850        13
29.860        40
29.870        13
29.880        40
29.890        53
29.900        40
29.910        13
29.920        53
29.930        53
29.940        13
29.950         0
29.960        13
29.970        40
29.980        13
29.990        27
30.000        27
30.010        53
30.020        27
30.030         0
30.040        27
30.050        53
30.060        27
30.070        67
30.080        13
30.090        67
30.100        80
30.110        40
30.120       120
30.130        53
30.140        40
30.150        40
30.160        27
30.170        27
30.180        27
30.190        53
30.200        40
30.210        40
30.220         0
30.230        13
30.240        27
30.250        40
30.260        53
30.270        80
30.280        80
30.290        27
30.300        53
30.310        93
30.320        40
30.330        40
30.340        67
30.350        80
30.360        53
30.370        27
30.380        67
30.390        27
30.400        40
30.410        27
30.420        53
30.430         0
30.440        40
30.450        80
30.460        40
30.470        53
30.480        27
30.490        67
30.500        40
30.510        53
30.520        40
30.530        40
30.540        27
30.550        53
30.560        13
30.570        93
30.580        27
30.590        27
30.600        53
30.610        40
30.620        13
30.630        40
30.640        40
30.650        13
30.660        27
30.670        27
30.680        40
30.690        53
30.700        40
30.710        27
30.720        53
30.730        40
30.740        93
30.750        13
30.760        80
30.770        93
30.780        27
30.790        40
30.800        80
30.810       107
30.820        53
30.830        80
30.840        80
30.850        40
30.860        93
30.870        53
30.880        67
30.890        80
30.900       133
30.910        93
30.920        93
30.930        93
30.940       240
30.950       173
30.960        80
30.970       253
30.980       320
30.990       200
31.000       187
31.010       240
31.020       280
31.030       307
31.040       387
31.050       400
31.060       387
31.070       440
31.080       600
31.090       693
31.100       666
31.110       826
31.120       920
31.130      1080
31.140      1093
31.150      1333
31.160      1413
31.170      1746
31.180      1986
31.190      2412
31.200      2479
31.210      2612
31.220      2786
31.230      2852
31.240      2852
31.250      3372
31.260      3065
31.270      2746
31.280      2959
31.290      2412
31.300      2626
31.310      1986
31.320      1933
31.330      1853
31.340      1426
31.350      1426
31.360      1439
31.370      1040
31.380      1000
31.390       893
31.400       640
31.410       573
31.420       573
31.430       307
31.440       360
31.450       240
31.460       187
31.470       280
31.480       200
31.490       200
31.500       120
31.510       133
31.520       147
31.530       120
31.540       107
31.550        93
31.560       107
31.570        80
31.580        67
31.590        80
31.600       107
31.610        13
31.620        67
31.630       147
31.640        27
31.650       107
31.660        27
31.670        80
31.680        80
31.690        40
31.700        93
31.710        53
31.720        13
31.730        27
31.740        67
31.750        53
31.760        53
31.770        40
31.780        93
31.790        13
31.800       107
31.810        13
31.820       120
31.830        53
31.840        53
31.850        40
31.860        53
31.870        67
31.880        13
31.890        27
31.900        53
31.910        40
31.920        67
31.930        13
31.940        80
31.950        53
31.960        13
31.970        53
31.980        40
31.990        40
32.000        27
32.010        27
32.020        27
32.030        27
32.040        40
32.050        40
32.060        80
32.070        93
32.080        40
32.090        27
32.100        13
32.110        40
32.120        40
32.130        27
32.140         0
32.150        27
32.160        40
32.170        40
32.180         0
32.190        40
32.200        53
32.210        67
32.220         0
32.230        27
32.240        40
32.250        13
32.260         0
32.270        13
32.280        13
32.290        53
32.300        13
32.310        53
32.320        67
32.330        93
32.340        40
32.350        53
32.360        40
32.370        27
32.380        27
32.390        53
32.400        53
32.410        40
32.420         0
32.430        27
32.440        40
32.450        27
32.460        13
32.470        40
32.480        40
32.490        13
32.500        13
32.510        53
32.520        40
32.530        40
32.540        40
32.550        40
32.560        53
32.570        27
32.580        13
32.590        40
32.600        40
32.610        40
32.620        27
32.630        40
32.640        67
32.650        67
32.660        53
32.670        40
32.680        40
32.690        53
32.700        40
32.710        13
32.720        80
32.730        67
32.740        27
32.750        27
32.760        13
32.770        13
32.780         0
32.790        93
32.800        13
32.810        40
32.820        40
32.830        13
32.840        13
32.850        13
32.860        53
32.870        40
32.880        40
32.890        13
32.900        27
32.910        53
32.920        13
32.930        27
32.940        13
32.950         0
32.960        53
32.970        53
32.980         0
32.990        27
33.000        67
33.010         0
33.020        13
33.030        13
33.040        53
33.050        40
33.060        27
33.070        13
33.080        67
33.090        53
33.100        13
33.110        27
33.120        53
33.130        27
33.140        67
33.150        27
33.160        40
33.170        27
33.180        53
33.190        67
33.200        40
33.210         0
33.220        40
33.230        40
33.240        67
33.250        27
33.260        27
33.270        40
33.280        13
33.290        53
33.300         0
33.310        40
33.320        13
33.330        80
33.340        40
33.350        13
33.360        40
33.370        27
33.380         0
33.390        80
33.400        40
33.410         0
33.420        13
33.430        27
33.440        27
33.450        13
33.460        67
33.470        13
33.480        27
33.490        27
33.500        53
33.510        67
33.520        27
33.530        53
33.540        40
33.550        40
33.560        53
33.570        27
33.580        27
33.590        13
33.600        53
33.610        40
33.620        13
33.630        13
33.640        40
33.650        40
33.660        27
33.670        13
33.680        40
33.690        13
33.700        67
33.710        40
33.720        40
33.730        27
33.740        40
33.750        27
33.760        27
33.770        13
33.780         0
33.790        40
33.800        40
33.810        53
33.820        53
33.830        80
33.840         0
33.850        13
33.860        27
33.870        27
33.880        40
33.890        13
33.900        53
33.910        80
33.920        40
33.930        27
33.940        53
33.950        40
33.960        40
33.970        53
33.980        27
33.990        40
34.000        13
34.010        80
34.020        27
34.030        40
34.040        27
34.050        67
34.060        40
34.070        40
34.080        13
34.090       120
34.100        80
34.110        53
34.120        67
34.130        40
34.140        80
34.150       107
34.160        27
34.170        53
34.180        67
34.190        27
34.200        40
34.210         0
34.220        40
34.230        67
34.240        40
34.250        53
34.260        67
34.270        67
34.280        53
34.290        13
34.300        27
34.310        40
34.320        40
34.330         0
34.340        40
34.350        40
34.360         0
34.370        13
34.380        67
34.390        13
34.400        40
34.410        13
34.420        53
34.430         0
34.440        13
34.450        13
34.460        27
34.470        67
34.480        40
34.490        53
34.500        27
34.510        40
34.520         0
34.530        53
34.540        27
34.550        40
34.560        40
34.570        27
34.580         0
34.590        13
34.600        13
34.610        27
34.620        53
34.630        27
34.640        53
34.650        40
34.660        13
34.670        13
34.680        27
34.690        53
34.700        13
34.710        27
34.720        13
34.730         0
34.740        13
34.750        13
34.760         0
34.770        27
34.780        13
34.790        13
34.800         0
34.810        40
34.820        13
34.830        13
34.840         0
34.850        27
34.860         0
34.870        13
34.880        13
34.890        13
34.900        40
34.910        13
34.920        27
34.930        13
34.940        13
34.950        13
34.960        40
34.970        13
34.980        13
34.990        27
35.000        13
35.010        13
35.020        13
35.030        27
35.040         0
35.050        13
35.060         0
35.070        13
35.080        27
35.090        13
35.100        27
35.110        13
35.120        40
35.130        13
35.140        13
35.150        53
35.160         0
35.170        27
35.180        67
35.190        80
35.200        40
35.210        53
35.220        27
35.230        13
35.240        53
35.250        40
35.260        13
35.270        13
35.280        40
35.290        27
35.300        27
35.310        13
35.320        13
35.330        67
35.340         0
35.350        13
35.360        40
35.370         0
35.380        40
35.390        13
35.400        40
35.410        13
35.420        27
35.430         0
35.440         0
35.450        67
35.460        13
35.470        27
35.480        40
35.490        53
35.500        13
35.510        27
35.520        13
35.530        40
35.540        13
35.550        13
35.560        13
35.570         0
35.580        13
35.590        13
35.600        13
35.610        13
35.620        13
35.630        27
35.640        27
35.650        13
35.660        13
35.670        40
35.680        27
35.690        40
35.700        27
35.710        27
35.720        40
35.730        13
35.740         0
35.750        27
35.760         0
35.770        67
35.780        27
35.790        40
35.800        13
35.810        53
35.820         0
35.830        13
35.840        13
35.850        27
35.860        27
35.870        27
35.880        13
35.890        27
35.900        13
35.910        80
35.920        80
35.930        13
35.940         0
35.950        27
35.960        13
35.970        27
35.980        27
35.990        13
36.000        13
36.010        27
36.020        27
36.030        27
36.040        53
36.050        40
36.060        13
36.070         0
36.080        13
36.090        27
36.100        13
36.110        27
36.120        40
36.130        13
36.140        13
36.150        13
36.160        40
36.170        40
36.180        13
36.190        67
36.200        27
36.210        40
36.220        13
36.230         0
36.240        13
36.250        13
36.260        13
36.270        13
36.280        27
36.290        27
36.300        27
36.310        13
36.320        40
36.330        27
36.340        53
36.350        53
36.360        53
36.370        40
36.380        27
36.390        53
36.400        13
36.410        13
36.420        13
36.430        13
36.440         0
36.450        13
36.460        27
36.470        40
36.480        13
36.490        40
36.500        27
36.510         0
36.520        13
36.530        13
36.540         0
36.550        27
36.560        13
36.570        27
36.580        40
36.590        53
36.600        13
36.610        40
36.620        27
36.630         0
36.640        13
36.650        13
36.660        13
36.670        13
36.680         0
36.690         0
36.700        13
36.710        40
36.720         0
36.730        13
36.740        80
36.750        53
36.760        27
36.770        13
36.780        27
36.790        53
36.800        13
36.810        27
36.820        40
36.830        13
36.840        13
36.850        13
36.860        27
36.870        13
36.880        40
36.890        13
36.900        40
36.910        27
36.920        13
36.930         0
36.940        27
36.950         0
36.960        27
36.970         0
36.980         0
36.990        27
37.000        40
37.010         0
37.020        27
37.030        13
37.040        27
37.050         0
37.060        13
37.070        13
37.080         0
37.090        40
37.100        13
37.110        13
37.120        27
37.130        27
37.140         0
37.150        13
37.160        53
37.170        27
37.180         0
37.190         0
37.200        53
37.210        13
37.220        13
37.230        13
37.240        40
37.250         0
37.260         0
37.270        13
37.280         0
37.290        67
37.300        27
37.310        13
37.320        13
37.330        27
37.340        13
37.350        13
37.360        27
37.370        27
37.380        80
37.390        67
37.400         0
37.410        40
37.420        13
37.430        27
37.440         0
37.450        13
37.460        67
37.470        53
37.480        27
37.490        53
37.500        13
37.510        27
37.520        13
37.530        13
37.540        13
37.550        40
37.560        13
37.570         0
37.580        13
37.590        67
37.600         0
37.610        13
37.620        13
37.630        27
37.640        40
37.650         0
37.660        13
37.670        13
37.680        13
37.690        27
37.700        13
37.710        13
37.720        67
37.730        13
37.740         0
37.750        27
37.760        27
37.770        13
37.780        13
37.790        13
37.800        13
37.810        40
37.820        13
37.830        40
37.840        13
37.850        13
37.860        13
37.870        53
37.880        53
37.890         0
37.900        13
37.910        40
37.920        40
37.930        40
37.940        40
37.950        13
37.960        40
37.970        27
37.980         0
37.990        13
38.000        67
38.010        13
38.020        13
38.030         0
38.040        13
38.050        13
38.060        27
38.070        13
38.080         0
38.090        40
38.100         0
38.110        53
38.120        13
38.130        27
38.140        27
38.150        40
38.160        13
38.170         0
38.180        27
38.190        53
38.200        53
38.210        13
38.220        40
38.230        27
38.240        40
38.250        53
38.260        13
38.270        40
38.280        27
38.290        53
38.300        13
38.310        67
38.320        27
38.330        40
38.340        53
38.350        27
38.360        27
38.370        40
38.380        53
38.390        13
38.400        27
38.410        27
38.420        27
38.430        40
38.440        27
38.450        27
38.460        40
38.470        40
38.480        27
38.490        53
38.500        93
38.510        27
38.520        13
38.530        80
38.540        40
38.550        27
38.560        13
38.570        53
38.580        27
38.590        27
38.600        27
38.610        53
38.620         0
38.630        40
38.640         0
38.650        53
38.660        67
38.670        27
38.680        40
38.690        27
38.700        27
38.710        40
38.720        13
38.730        53
38.740        40
38.750        13
38.760        13
38.770        27
38.780        53
38.790        27
38.800        40
38.810        67
38.820        13
38.830        13
38.840        13
38.850         0
38.860        27
38.870        67
38.880        80
38.890         0
38.900        27
38.910         0
38.920         0
38.930        27
38.940        27
38.950        53
38.960        27
38.970        13
38.980         0
38.990         0
39.000        40
39.010         0
39.020        13
39.030         0
39.040        13
39.050         0
39.060        13
39.070         0
39.080        13
39.090        27
39.100        27
39.110        40
39.120         0
39.130        27
39.140        27
39.150         0
39.160        40
39.170        40
39.180        13
39.190        27
39.200        27
39.210        27
39.220        13
39.230        27
39.240         0
39.250        27
39.260         0
39.270        27
39.280        27
39.290        27
39.300        27
39.310        13
39.320         0
39.330        13
39.340        40
39.350        67
39.360         0
39.370        13
39.380        13
39.390        13
39.400         0
39.410        27
39.420        13
39.430        13
39.440        27
39.450        27
39.460        13
39.470        13
39.480        13
39.490        80
39.500        40
39.510         0
39.520        53
39.530        13
39.540        13
39.550        27
39.560        27
39.570        13
39.580        13
39.590         0
39.600        13
39.610         0
39.620        27
39.630        40
39.640        13
39.650        27
39.660         0
39.670        13
39.680         0
39.690        40
39.700        13
39.710         0
39.720        13
39.730         0
39.740        13
39.750        13
39.760         0
39.770         0
39.780        27
39.790         0
39.800        13
39.810        40
39.820         0
39.830        40
39.840         0
39.850        40
39.860         0
39.870         0
39.880        40
39.890        13
39.900         0
39.910         0
39.920         0
39.930        13
39.940         0
39.950        27
39.960        27
39.970        13
39.980        40
39.990        13
40.000        27
40.010        40
40.020        13
40.030        13
40.040        27
40.050         0
40.060        27
40.070        40
40.080        27
40.090        13
40.100        27
40.110         0
40.120         0
40.130        27
40.140        27
40.150        40
40.160        27
40.170        27
40.180         0
40.190        40
40.200         0
40.210        13
40.220        27
40.230        13
40.240         0
40.250        13
40.260         0
40.270        27
40.280        27
40.290        13
40.300        13
40.310        27
40.320        13
40.330        40
40.340        27
40.350        13
40.360        13
40.370         0
40.380        27
40.390        13
40.400        40
40.410        13
40.420        27
40.430        27
40.440         0
40.450        13
40.460         0
40.470        27
40.480        40
40.490        40
40.500        13
40.510        13
40.520        27
40.530        40
40.540        27
40.550        27
40.560        40
40.570        13
40.580        40
40.590        13
40.600         0
40.610         0
40.620        13
40.630        27
40.640         0
40.650        67
40.660        27
40.670         0
40.680        13
40.690        27
40.700         0
40.710        13
40.720        13
40.730        40
40.740        40
40.750        13
40.760         0
40.770         0
40.780        40
40.790        40
40.800        13
40.810        13
40.820        13
40.830        13
40.840        40
40.850        40
40.860         0
40.870        13
40.880        13
40.890        40
40.900        40
40.910        13
40.920        27
40.930        27
40.940        27
40.950        40
40.960         0
40.970        40
40.980        27
40.990        13
41.000        13
41.010        13
41.020        13
41.030        27
41.040         0
41.050        13
41.060         0
41.070        27
41.080        27
41.090        40
41.100        13
41.110         0
41.120         0
41.130        13
41.140        27
41.150        27
41.160        27
41.170        27
41.180        13
41.190        27
41.200         0
41.210        13
41.220        13
41.230        13
41.240        13
41.250         0
41.260         0
41.270        40
41.280        13
41.290        27
41.300        27
41.310         0
41.320        13
41.330        13
41.340        13
41.350        27
41.360        13
41.370        67
41.380        27
41.390         0
41.400        27
41.410        27
41.420        13
41.430         0
41.440         0
41.450         0
41.460         0
41.470        40
41.480        27
41.490        13
41.500        53
41.510        27
41.520        40
41.530         0
41.540        40
41.550        27
41.560        27
41.570        13
41.580        67
41.590        53
41.600        40
41.610        40
41.620        13
41.630        13
41.640        13
41.650        27
41.660        53
41.670        13
41.680        40
41.690        53
41.700        53
41.710        53
41.720        27
41.730        67
41.740         0
41.750        40
41.760        40
41.770        27
41.780        13
41.790        67
41.800        13
41.810        40
41.820        40
41.830        40
41.840        27
41.850        27
41.860        27
41.870         0
41.880        53
41.890        27
41.900         0
41.910         0
41.920         0
41.930        27
41.940        27
41.950         0
41.960         0
41.970         0
41.980        67
41.990        13
42.000        13
42.010         0
42.020         0
42.030        27
42.040        40
42.050         0
42.060        40
42.070         0
42.080        13
42.090         0
42.100        13
42.110         0
42.120        27
42.130        40
42.140        13
42.150        27
42.160        13
42.170        13
42.180         0
42.190        40
42.200        40
42.210        67
42.220        13
42.230        13
42.240        67
42.250        27
42.260        13
42.270        13
42.280        27
42.290        27
42.300         0
42.310        13
42.320        27
42.330        27
42.340        13
42.350         0
42.360        27
42.370         0
42.380        13
42.390        53
42.400        40
42.410        40
42.420        53
42.430        13
42.440         0
42.450        40
42.460         0
42.470        13
42.480        13
42.490        27
42.500        27
42.510         0
42.520        53
42.530         0
42.540        27
42.550        40
42.560         0
42.570         0
42.580        27
42.590         0
42.600         0
42.610        13
42.620         0
42.630        40
42.640        13
42.650        13
42.660        27
42.670        13
42.680        27
42.690        67
42.700        27
42.710        40
42.720        40
42.730         0
42.740        27
42.750        27
42.760        13
42.770        27
42.780         0
42.790         0
42.800        40
42.810         0
42.820         0
42.830        67
42.840        13
42.850         0
42.860        13
42.870        13
42.880        13
42.890        27
42.900        13
42.910         0
42.920        13
42.930        13
42.940         0
42.950        27
42.960        13
42.970        13
42.980        53
42.990         0
43.000        27
43.010        53
43.020        40
43.030         0
43.040        27
43.050         0
43.060        13
43.070        13
43.080        40
43.090         0
43.100         0
43.110        13
43.120         0
43.130        53
43.140        13
43.150        13
43.160        27
43.170        40
43.180        40
43.190        27
43.200        27
43.210        27
43.220        53
43.230        40
43.240        13
43.250        53
43.260        27
43.270        13
43.280        27
43.290        27
43.300        13
43.310        27
43.320        13
43.330        13
43.340        80
43.350         0
43.360        53
43.370        67
43.380        53
43.390        13
43.400       213
43.410        13
43.420        40
43.430        40
43.440        27
43.450        40
43.460        27
43.470        40
43.480        40
43.490        53
43.500        27
43.510        13
43.520        40
43.530        67
43.540        13
43.550        27
43.560        13
43.570        13
43.580        27
43.590        13
43.600        40
43.610        27
43.620        27
43.630        13
43.640         0
43.650        13
43.660        27
43.670        40
43.680        13
43.690         0
43.700         0
43.710         0
43.720         0
43.730         0
43.740         0
43.750        53
43.760        40
43.770        13
43.780        13
43.790         0
43.800         0
43.810        13
43.820        13
43.830        27
43.840        40
43.850        13
43.860         0
43.870        13
43.880        27
43.890        27
43.900        40
43.910        40
43.920        13
43.930        27
43.940        53
43.950        13
43.960        13
43.970         0
43.980        27
43.990        27
44.000        27
44.010        13
44.020        13
44.030        40
44.040        40
44.050        13
44.060        13
44.070        93
44.080        13
44.090        27
44.100        27
44.110         0
44.120        27
44.130        13
44.140         0
44.150         0
44.160         0
44.170        27
44.180        13
44.190         0
44.200         0
44.210         0
44.220        13
44.230        27
44.240        13
44.250        27
44.260        13
44.270        27
44.280        53
44.290         0
44.300         0
44.310        13
44.320        13
44.330        13
44.340         0
44.350         0
44.360        13
44.370         0
44.380         0
44.390        13
44.400         0
44.410        13
44.420        13
44.430        53
44.440        13
44.450        13
44.460         0
44.470        40
44.480        27
44.490         0
44.500        53
44.510        13
44.520        40
44.530        13
44.540        40
44.550        13
44.560        40
44.570        13
44.580        40
44.590         0
44.600        27
44.610        27
44.620        40
44.630        53
44.640        53
44.650        40
44.660        40
44.670        27
44.680       107
44.690        53
44.700       120
44.710        93
44.720        27
44.730        40
44.740        27
44.750        67
44.760        40
44.770        40
44.780        93
44.790        67
44.800        53
44.810        53
44.820       107
44.830        80
44.840        67
44.850        67
44.860        53
44.870         0
44.880        80
44.890        53
44.900        53
44.910        27
44.920         0
44.930        40
44.940        13
44.950        27
44.960        53
44.970        40
44.980         0
44.990        40
45.000        13
45.010        13
45.020        53
45.030        40
45.040        40
45.050        27
45.060        67
45.070        13
45.080        40
45.090        27
45.100         0
45.110         0
45.120         0
45.130        40
45.140        13
45.150        27
45.160        27
45.170         0
45.180         0
45.190        13
45.200        13
45.210        40
45.220        40
45.230        13
45.240        40
45.250        13
45.260        40
45.270        13
45.280        27
45.290        27
45.300        13
45.310        13
45.320        13
45.330        13
45.340        40
45.350        27
45.360        13
45.370        67
45.380        27
45.390        13
45.400         0
45.410        40
45.420         0
45.430         0
45.440        27
45.450        13
45.460         0
45.470        27
45.480        27
45.490         0
45.500         0
45.510        27
45.520        13
45.530        13
45.540         0
45.550        27
45.560         0
45.570         0
45.580         0
45.590        13
45.600         0
45.610        27
45.620         0
45.630        13
45.640        40
45.650         0
45.660        13
45.670        27
45.680        27
45.690        13
45.700        13
45.710        13
45.720        13
45.730        27
45.740         0
45.750        13
45.760         0
45.770        13
45.780        13
45.790         0
45.800        67
45.810         0
45.820        53
45.830        13
45.840        13
45.850        27
45.860        40
45.870        13
45.880        53
45.890        13
45.900        40
45.910         0
45.920         0
45.930         0
45.940        13
45.950        13
45.960        27
45.970         0
45.980        13
45.990        13
46.000         0
46.010        27
46.020         0
46.030         0
46.040         0
46.050         0
46.060        13
46.070        27
46.080         0
46.090        27
46.100        13
46.110        13
46.120        27
46.130        27
46.140        27
46.150        40
46.160         0
46.170        27
46.180         0
46.190        13
46.200        13
46.210        27
46.220        13
46.230        53
46.240        13
46.250        13
46.260        27
46.270        13
46.280         0
46.290         0
46.300         0
46.310        13
46.320         0
46.330        13
46.340        13
46.350         0
46.360        27
46.370        27
46.380        40
46.390        27
46.400         0
46.410        13
46.420        13
46.430        27
46.440        13
46.450        13
46.460         0
46.470        27
46.480         0
46.490         0
46.500       320
46.510        27
46.520        27
46.530        13
46.540        13
46.550        13
46.560         0
46.570        27
46.580        27
46.590         0
46.600        40
46.610        13
46.620         0
46.630         0
46.640         0
46.650        40
46.660        13
46.670         0
46.680        40
46.690        13
46.700        27
46.710        27
46.720         0
46.730         0
46.740        40
46.750        13
46.760        13
46.770        13
46.780        27
46.790        27
46.800        13
46.810         0
46.820        13
46.830        13
46.840        40
46.850        27
46.860        27
46.870        13
46.880        27
46.890         0
46.900        40
46.910        13
46.920        40
46.930        13
46.940        13
46.950        13
46.960         0
46.970        13
46.980         0
46.990         0
47.000        27
47.010        27
47.020         0
47.030         0
47.040         0
47.050         0
47.060         0
47.070         0
47.080        13
47.090        13
47.100         0
47.110        13
47.120        13
47.130        40
47.140        13
47.150        13
47.160         0
47.170         0
47.180        13
47.190        13
47.200         0
47.210        27
47.220         0
47.230        13
47.240        27
47.250        13
47.260        13
47.270        27
47.280         0
47.290        13
47.300         0
47.310        13
47.320         0
47.330        27
47.340        13
47.350        53
47.360        13
47.370        53
47.380        13
47.390        27
47.400        27
47.410        13
47.420        13
47.430        27
47.440        27
47.450        27
47.460        13
47.470        13
47.480        67
47.490        27
47.500         0
47.510        13
47.520        13
47.530         0
47.540        27
47.550         0
47.560        27
47.570        13
47.580         0
47.590        27
47.600        67
47.610        27
47.620        40
47.630         0
47.640         0
47.650         0
47.660        13
47.670        40
47.680         0
47.690        27
47.700        13
47.710         0
47.720        40
47.730        13
47.740         0
47.750        13
47.760         0
47.770        13
47.780        13
47.790        13
47.800         0
47.810        13
47.820        13
47.830        13
47.840         0
47.850        13
47.860         0
47.870        13
47.880         0
47.890         0
47.900        27
47.910         0
47.920         0
47.930        13
47.940        27
47.950         0
47.960        13
47.970         0
47.980         0
47.990         0
48.000        13
48.010        13
48.020         0
48.030        13
48.040        13
48.050         0
48.060        27
48.070        13
48.080        27
48.090         0
48.100        13
48.110        13
48.120        27
48.130         0
48.140         0
48.150        13
48.160        53
48.170        27
48.180        13
48.190        53
48.200        27
48.210        27
48.220         0
48.230        40
48.240        13
48.250        13
48.260        13
48.270        13
48.280         0
48.290        13
48.300         0
48.310         0
48.320         0
48.330         0
48.340        13
48.350         0
48.360        27
48.370        13
48.380        27
48.390        13
48.400        13
48.410         0
48.420        13
48.430        13
48.440        13
48.450        40
48.460         0
48.470        67
48.480         0
48.490         0
48.500        13
48.510        27
48.520        27
48.530        13
48.540        27
48.550         0
48.560        13
48.570        13
48.580        27
48.590        13
48.600         0
48.610         0
48.620        13
48.630        27
48.640        67
48.650         0
48.660        13
48.670        13
48.680         0
48.690        40
48.700        13
48.710         0
48.720        53
48.730         0
48.740        13
48.750        27
48.760        13
48.770         0
48.780        40
48.790        13
48.800        40
48.810         0
48.820        13
48.830        53
48.840        13
48.850         0
48.860        27
48.870        13
48.880        13
48.890        53
48.900        40
48.910        27
48.920        13
48.930        13
48.940        13
48.950        13
48.960        40
48.970        13
48.980        53
48.990        13
49.000        13
49.010        27
49.020        13
49.030        53
49.040        27
49.050        13
49.060        13
49.070         0
49.080        27
49.090        13
49.100        13
49.110        27
49.120         0
49.130        27
49.140        13
49.150        13
49.160         0
49.170         0
49.180        13
49.190         0
49.200        27
49.210        13
49.220        13
49.230         0
49.240        13
49.250        13
49.260         0
49.270        27
49.280         0
49.290         0
49.300        27
49.310        53
49.320        13
49.330        27
49.340        13
49.350         0
49.360        40
49.370         0
49.380        13
49.390         0
49.400         0
49.410        27
49.420        13
49.430        13
49.440         0
49.450        40
49.460        13
49.470         0
49.480         0
49.490        13
49.500         0
49.510        40
49.520        27
49.530        13
49.540        13
49.550        67
49.560         0
49.570        27
49.580         0
49.590         0
49.600        27
49.610        13
49.620         0
49.630        13
49.640        13
49.650        40
49.660        27
49.670        13
49.680        13
49.690        13
49.700        40
49.710         0
49.720         0
49.730         0
49.740        27
49.750        13
49.760         0
49.770        13
49.780        27
49.790        27
49.800         0
49.810         0
49.820         0
49.830        40
49.840        40
49.850        13
49.860        40
49.870         0
49.880         0
49.890        27
49.900         0
49.910         0
49.920        13
49.930         0
49.940        27
49.950        27
49.960        13
49.970        13
49.980        40
49.990        13
50.000        13
50.010        27
50.020        13
50.030        13
50.040        13
50.050        40
50.060        53
50.070        13
50.080        13
50.090         0
50.100         0
50.110        13
50.120        27
50.130        40
50.140         0
50.150        13
50.160        53
50.170        27
50.180        13
50.190        13
50.200        13
50.210         0
50.220        13
50.230        40
50.240        13
50.250        27
50.260        27
50.270        13
50.280         0
50.290         0
50.300        13
50.310         0
50.320        13
50.330        13
50.340        13
50.350        13
50.360        13
50.370         0
50.380        13
50.390         0
50.400        13
50.410        13
50.420         0
50.430        13
50.440         0
50.450        40
50.460        27
50.470         0
50.480        27
50.490        13
50.500         0
50.510         0
50.520        13
50.530         0
50.540         0
50.550         0
50.560        13
50.570        40
50.580         0
50.590        53
50.600        13
50.610        13
50.620         0
50.630        13
50.640         0
50.650        53
50.660         0
50.670        80
50.680        27
50.690         0
50.700        53
50.710         0
50.720        13
50.730         0
50.740        27
50.750         0
50.760        13
50.770        13
50.780        53
50.790         0
50.800         0
50.810        13
50.820         0
50.830         0
50.840        40
50.850        27
50.860        27
50.870        40
50.880        13
50.890         0
50.900         0
50.910        13
50.920        13
50.930        13
50.940        27
50.950         0
50.960        13
50.970         0
50.980        13
50.990        13
51.000        13
51.010        13
51.020         0
51.030        27
51.040        67
51.050        13
51.060        27
51.070        13
51.080         0
51.090        53
51.100        13
51.110        27
51.120         0
51.130         0
51.140        53
51.150        13
51.160         0
51.170        13
51.180         0
51.190         0
51.200        27
51.210        40
51.220         0
51.230        13
51.240         0
51.250        13
51.260        13
51.270         0
51.280        27
51.290         0
51.300        40
51.310        27
51.320        13
51.330        13
51.340         0
51.350        13
51.360        13
51.370        13
51.380        40
51.390        13
51.400         0
51.410         0
51.420         0
51.430        13
51.440        27
51.450        13
51.460        13
51.470         0
51.480         0
51.490        13
51.500         0
51.510        13
51.520        13
51.530        27
51.540         0
51.550        13
51.560        53
51.570         0
51.580        13
51.590        27
51.600        27
51.610         0
51.620        13
51.630        27
51.640        13
51.650         0
51.660         0
51.670        27
51.680        13
51.690        40
51.700        13
51.710        13
51.720        13
51.730         0
51.740        13
51.750        13
51.760        40
51.770        40
51.780        13
51.790         0
51.800        27
51.810         0
51.820        13
51.830        13
51.840        13
51.850        27
51.860        53
51.870        40
51.880         0
51.890         0
51.900         0
51.910        40
51.920        27
51.930        53
51.940        40
51.950        13
51.960        13
51.970        13
51.980        27
51.990         0
52.000         0
52.010        27
52.020         0
52.030        40
52.040        40
52.050        27
52.060         0
52.070        13
52.080        13
52.090        13
52.100        40
52.110        13
52.120         0
52.130        13
52.140        13
52.150        67
52.160        13
52.170        40
52.180        13
52.190         0
52.200        13
52.210         0
52.220        13
52.230        40
52.240         0
52.250         0
52.260        13
52.270        13
52.280        27
52.290         0
52.300        40
52.310        27
52.320         0
52.330        27
52.340         0
52.350         0
52.360        13
52.370        27
52.380        27
52.390        13
52.400        27
52.410        27
52.420        53
52.430         0
52.440        27
52.450         0
52.460        27
52.470        27
52.480        27
52.490        13
52.500        13
52.510        13
52.520         0
52.530        53
52.540        40
52.550        13
52.560        40
52.570        40
52.580        53
52.590        53
52.600        13
52.610        13
52.620        13
52.630        27
52.640        27
52.650         0
52.660        13
52.670        40
52.680        40
52.690         0
52.700         0
52.710        27
52.720        67
52.730        13
52.740        27
52.750         0
52.760        27
52.770        13
52.780         0
52.790        13
52.800        13
52.810        27
52.820        27
52.830         0
52.840        13
52.850        13
52.860        27
52.870        13
52.880        67
52.890         0
52.900         0
52.910         0
52.920        27
52.930        27
52.940        13
52.950        13
52.960        27
52.970        13
52.980        27
52.990        13
53.000        13
53.010         0
53.020        27
53.030         0
53.040        13
53.050         0
53.060        13
53.070        13
53.080        13
53.090        53
53.100        27
53.110        27
53.120        13
53.130        13
53.140        13
53.150        40
53.160        40
53.170        40
53.180        13
53.190        13
53.200        13
53.210        13
53.220        13
53.230        40
53.240         0
53.250        13
53.260        13
53.270        27
53.280        13
53.290        13
53.300        13
53.310        27
53.320        27
53.330        53
53.340         0
53.350         0
53.360         0
53.370        13
53.380        13
53.390         0
53.400         0
53.410        13
53.420        27
53.430        27
53.440        53
53.450        27
53.460         0
53.470        13
53.480         0
53.490         0
53.500         0
53.510        13
53.520         0
53.530        27
53.540         0
53.550        13
53.560        13
53.570        13
53.580         0
53.590        40
53.600         0
53.610        40
53.620         0
53.630         0
53.640        27
53.650         0
53.660        27
53.670         0
53.680        13
53.690        13
53.700        40
53.710        27
53.720         0
53.730        13
53.740        13
53.750        13
53.760         0
53.770        13
53.780         0
53.790        13
53.800         0
53.810         0
53.820         0
53.830        27
53.840        13
53.850         0
53.860        27
53.870        13
53.880        13
53.890        13
53.900        13
53.910        27
53.920        13
53.930        27
53.940        13
53.950        13
53.960         0
53.970        13
53.980        27
53.990        27
54.000        13
54.010         0
54.020        27
54.030         0
54.040        13
54.050         0
54.060        13
54.070         0
54.080        13
54.090        13
54.100         0
54.110        27
54.120        27
54.130         0
54.140        40
54.150        53
54.160         0
54.170        27
54.180        13
54.190        13
54.200         0
54.210         0
54.220        13
54.230        27
54.240         0
54.250        13
54.260        13
54.270        13
54.280        13
54.290        27
54.300        13
54.310         0
54.320        27
54.330        13
54.340        13
54.350         0
54.360         0
54.370        13
54.380         0
54.390        13
54.400         0
54.410        27
54.420        13
54.430        27
54.440        27
54.450        27
54.460        40
54.470         0
54.480        13
54.490        13
54.500         0
54.510        40
54.520         0
54.530        27
54.540        27
54.550        13
54.560        27
54.570        27
54.580        80
54.590        13
54.600         0
54.610        13
54.620         0
54.630        27
54.640        13
54.650        13
54.660         0
54.670         0
54.680        13
54.690         0
54.700        40
54.710        13
54.720        27
54.730        27
54.740        53
54.750         0
54.760        27
54.770        13
54.780        40
54.790        27
54.800        13
54.810        13
54.820        40
54.830        13
54.840        40
54.850        67
54.860         0
54.870        27
54.880        40
54.890        27
54.900        27
54.910         0
54.920        40
54.930        40
54.940        27
54.950         0
54.960        13
54.970        13
54.980         0
54.990         0
55.000         0
55.010        27
55.020        13
55.030        13
55.040         0
55.050         0
55.060        27
55.070         0
55.080        53
55.090        27
55.100        40
55.110        13
55.120        40
55.130        13
55.140        67
55.150        13
55.160        27
55.170        27
55.180        13
55.190        13
55.200        13
55.210        13
55.220        40
55.230        27
55.240         0
55.250        53
55.260        67
55.270        40
55.280        40
55.290        80
55.300        27
55.310        27
55.320        40
55.330       107
55.340        67
55.350       107
55.360       160
55.370        80
55.380        67
55.390       133
55.400       160
55.410       160
55.420       160
55.430       133
55.440       200
55.450       200
55.460       187
55.470       347
55.480       267
55.490       173
55.500       413
55.510       533
55.520       493
55.530       573
55.540       520
55.550       560
55.560       720
55.570       746
55.580       786
55.590       706
55.600       533
55.610       946
55.620       760
55.630       613
55.640       653
55.650       480
55.660       466
55.670       453
55.680       440
55.690       733
55.700       546
55.710       506
55.720       573
55.730       493
55.740       480
55.750       613
55.760       373
55.770       320
55.780       253
55.790       347
55.800       187
55.810       280
55.820       253
55.830       173
55.840       200
55.850       227
55.860       160
55.870       133
55.880       107
55.890        93
55.900       187
55.910       120
55.920       160
55.930       147
55.940        80
55.950        53
55.960        67
55.970        93
55.980        67
55.990        53
56.000        53
56.010        40
56.020        27
56.030        53
56.040        13
56.050        80
56.060        27
56.070        53
56.080        53
56.090        40
56.100        53
56.110        13
56.120        13
56.130        40
56.140        40
56.150        67
56.160        67
56.170        27
56.180        40
56.190        13
56.200        53
56.210        13
56.220        13
56.230        13
56.240        27
56.250        13
56.260        13
56.270        53
56.280        27
56.290        27
56.300        13
56.310        13
56.320         0
56.330        27
56.340        27
56.350        13
56.360        27
56.370         0
56.380        27
56.390        13
56.400        13
56.410        27
56.420         0
56.430        13
56.440        13
56.450        13
56.460        27
56.470        27
56.480        27
56.490        13
56.500        27
56.510        27
56.520         0
56.530        13
56.540        40
56.550         0
56.560        27
56.570         0
56.580        40
56.590        27
56.600        27
56.610         0
56.620        27
56.630        13
56.640         0
56.650         0
56.660        27
56.670        13
56.680        13
56.690         0
56.700        27
56.710        13
56.720        40
56.730        40
56.740        27
56.750        13
56.760        27
56.770         0
56.780         0
56.790        13
56.800        27
56.810        27
56.820        27
56.830        27
56.840        53
56.850        27
56.860        27
56.870        13
56.880        27
56.890        13
56.900        27
56.910         0
56.920        13
56.930         0
56.940        27
56.950        27
56.960         0
56.970        13
56.980         0
56.990        13
57.000        13
57.010        27
57.020        13
57.030        40
57.040        13
57.050        27
57.060        40
57.070         0
57.080        27
57.090         0
57.100        27
57.110        27
57.120        13
57.130         0
57.140        13
57.150        40
57.160        13
57.170         0
57.180         0
57.190        27
57.200        27
57.210        13
57.220        40
57.230        40
57.240        53
57.250        13
57.260        13
57.270        27
57.280         0
57.290        27
57.300        27
57.310        13
57.320         0
57.330        40
57.340         0
57.350        27
57.360        27
57.370         0
57.380        13
57.390        13
57.400        27
57.410        13
57.420        27
57.430        40
57.440        13
57.450        53
57.460         0
57.470        40
57.480        13
57.490        27
57.500        27
57.510        27
57.520        40
57.530        93
57.540        13
57.550        53
57.560        67
57.570         0
57.580        27
57.590         0
57.600         0
57.610        13
57.620        67
57.630        53
57.640         0
57.650        27
57.660        13
57.670        13
57.680        40
57.690        27
57.700        53
57.710        80
57.720        40
57.730        40
57.740        13
57.750         0
57.760        13
57.770        13
57.780        27
57.790         0
57.800        13
57.810         0
57.820        13
57.830        27
57.840        13
57.850        40
57.860        27
57.870         0
57.880        27
57.890        27
57.900        13
57.910        13
57.920        27
57.930        13
57.940        27
57.950        40
57.960         0
57.970         0
57.980        13
57.990         0
58.000        27
58.010        13
58.020        40
58.030        27
58.040        40
58.050        13
58.060         0
58.070         0
58.080         0
58.090        13
58.100        13
58.110        13
58.120        27
58.130        53
58.140        13
58.150        40
58.160        13
58.170        27
58.180        13
58.190        27
58.200         0
58.210         0
58.220        13
58.230        53
58.240        40
58.250        27
58.260         0
58.270        27
58.280        13
58.290        27
58.300        13
58.310         0
58.320        13
58.330         0
58.340        13
58.350        13
58.360        27
58.370        27
58.380        27
58.390        13
58.400        13
58.410        13
58.420        53
58.430         0
58.440        27
58.450        93
58.460        27
58.470        27
58.480        27
58.490        27
58.500        27
58.510        53
58.520         0
58.530        13
58.540        40
58.550         0
58.560         0
58.570         0
58.580        13
58.590        27
58.600         0
58.610         0
58.620        40
58.630         0
58.640        67
58.650        27
58.660        40
58.670        27
58.680        27
58.690        40
58.700        27
58.710         0
58.720         0
58.730        27
58.740         0
58.750        13
58.760         0
58.770        13
58.780        13
58.790        13
58.800        27
58.810        13
58.820        27
58.830        13
58.840        13
58.850        13
58.860        13
58.870        13
58.880        27
58.890        27
58.900        13
58.910        13
58.920        27
58.930        27
58.940        13
58.950         0
58.960         0
58.970         0
58.980         0
58.990         0
59.000        53
59.010        13
59.020        13
59.030         0
59.040         0
59.050        13
59.060        13
59.070        13
59.080        13
59.090         0
59.100         0
59.110        13
59.120        13
59.130        27
59.140        13
59.150        13
59.160        13
59.170        13
59.180         0
59.190         0
59.200        53
59.210         0
59.220        13
59.230        13
59.240        27
59.250         0
59.260         0
59.270         0
59.280        13
59.290         0
59.300        27
59.310        13
59.320        27
59.330        27
59.340         0
59.350        27
59.360        27
59.370        13
59.380        13
59.390        13
59.400        13
59.410        27
59.420        40
59.430        27
59.440         0
59.450         0
59.460        40
59.470        13
59.480         0
59.490        27
59.500        27
59.510        13
59.520        13
59.530        27
59.540         0
59.550        13
59.560         0
59.570         0
59.580         0
59.590         0
59.600        13
59.610        13
59.620        27
59.630        13
59.640        27
59.650        13
59.660        27
59.670        27
59.680        27
59.690         0
59.700        13
59.710         0
59.720        27
59.730        13
59.740        13
59.750        13
59.760        53
59.770        13
59.780        13
59.790        13
59.800         0
59.810        27
59.820        13
59.830        13
59.840         0
59.850        27
59.860        13
59.870        53
59.880        13
59.890        13
59.900        13
59.910         0
59.920        40
59.930        13
59.940        27
59.950        53
59.960         0
59.970        27
59.980        53
59.990         0
60.000         0
