20.000        23
20.020        23
20.040        40
20.060        17
20.080        67
20.100        37
20.120        53
20.140        43
20.160        40
20.180        37
20.200        47
20.220        53
20.240        60
20.260        27
20.280        27
20.300        47
20.320        50
20.340        47
20.360        40
20.380        27
20.400        40
20.420        37
20.440        23
20.460        53
20.480        63
20.500        40
20.520        80
20.540        50
20.560        30
20.580        43
20.600        60
20.620        60
20.640        53
20.660        17
20.680        17
20.700        40
20.720        17
20.740        53
20.760        37
20.780        33
20.800        50
20.820        53
20.840        27
20.860        37
20.880        43
20.900        47
20.920        37
20.940        27
20.960        53
20.980        50
21.000        37
21.020        33
21.040        37
21.060        47
21.080        43
21.100        37
21.120        37
21.140        23
21.160        43
21.180        33
21.200        40
21.220        23
21.240        40
21.260        40
21.280        30
21.300        27
21.320        43
21.340        43
21.360        47
21.380        30
21.400        23
21.420        73
21.440        27
21.460        27
21.480        30
21.500        33
21.520        30
21.540        60
21.560        53
21.580        30
21.600        33
21.620        43
21.640        40
21.660        67
21.680        30
21.700        30
21.720        23
21.740        30
21.760        47
21.780        33
21.800        37
21.820        23
21.840        43
21.860        27
21.880        53
21.900        50
21.920        57
21.940        40
21.960        63
21.980        47
22.000        40
22.020        67
22.040        47
22.060        40
22.080        40
22.100        33
22.120        33
22.140        50
22.160        43
22.180        27
22.200        30
22.220        30
22.240        20
22.260        43
22.280        57
22.300        13
22.320        37
22.340        27
22.360        30
22.380        57
22.400        47
22.420        30
22.440        57
22.460        37
22.480        33
22.500        27
22.520        27
22.540        23
22.560        37
22.580        10
22.600        30
22.620        40
22.640        47
22.660        33
22.680        37
22.700        47
22.720        37
22.740        27
22.760        47
22.780        57
22.800        37
22.820        33
22.840        27
22.860        47
22.880        50
22.900        17
22.920        37
22.940        27
22.960        33
22.980        37
23.000        33
23.020        43
23.040        50
23.060        40
23.080        47
23.100        53
23.120        40
23.140        27
23.160        33
23.180        40
23.200        37
23.220        17
23.240        30
23.260        40
23.280        17
23.300        23
23.320        13
23.340        30
23.360        33
23.380        37
23.400        27
23.420        27
23.440        27
23.460        63
23.480        37
23.500        30
23.520        23
23.540        27
23.560        57
23.580        37
23.600        37
23.620        33
23.640        40
23.660        20
23.680        50
23.700        33
23.720        23
23.740        20
23.760        47
23.780        30
23.800        33
23.820        40
23.840        40
23.860        27
23.880        50
23.900        33
23.920        27
23.940        37
23.960        43
23.980        33
24.000        20
24.020        47
24.040        43
24.060        17
24.080        30
24.100        50
24.120        23
24.140        30
24.160        23
24.180        27
24.200        40
24.220        43
24.240        33
24.260        23
24.280        50
24.300        20
24.320        47
24.340        37
24.360        10
24.380        13
24.400        37
24.420        30
24.440        33
24.460        30
24.480        20
24.500        40
24.520        30
24.540        30
24.560        53
24.580        23
24.600        60
24.620        30
24.640        30
24.660        43
24.680        23
24.700        30
24.720        27
24.740        37
24.760        30
24.780        17
24.800        33
24.820        27
24.840        17
24.860        23
24.880        43
24.900        23
24.920        33
24.940        40
24.960        20
24.980        30
25.000        17
25.020        33
25.040        20
25.060        23
25.080        10
25.100        50
25.120        10
25.140        37
25.160        40
25.180        50
25.200        27
25.220        23
25.240        33
25.260        37
25.280        40
25.300        17
25.320        33
25.340        17
25.360        27
25.380        27
25.400        23
25.420        47
25.440        33
25.460        43
25.480        63
25.500        63
25.520        37
25.540        50
25.560        43
25.580        20
25.600        30
25.620        47
25.640        13
25.660        30
25.680        23
25.700        30
25.720        17
25.740        27
25.760        20
25.780        23
25.800        27
25.820        43
25.840        20
25.860        17
25.880        30
25.900        23
25.920        17
25.940        23
25.960        23
25.980        37
26.000        23
26.020        43
26.040        40
26.060        27
26.080        40
26.100        43
26.120        40
26.140        23
26.160        50
26.180        47
26.200        30
26.220        37
26.240        23
26.260        20
26.280        20
26.300        23
26.320        30
26.340        13
26.360        17
26.380        30
26.400        30
26.420        37
26.440        47
26.460        40
26.480        30
26.500        43
26.520        10
26.540        17
26.560        33
26.580        33
26.600        23
26.620        33
26.640        13
26.660        33
26.680        17
26.700        10
26.720        40
26.740        17
26.760        40
26.780        37
26.800        37
26.820        13
26.840        37
26.860        37
26.880        33
26.900        27
26.920        20
26.940        27
26.960        20
26.980        37
27.000        27
27.020        20
27.040        30
27.060        40
27.080        23
27.100        27
27.120        30
27.140        20
27.160         7
27.180        33
27.200        23
27.220        23
27.240        37
27.260        33
27.280        13
27.300        20
27.320        30
27.340        30
27.360        20
27.380        23
27.400        17
27.420        33
27.440        20
27.460        23
27.480        27
27.500        20
27.520        27
27.540        40
27.560        17
27.580        30
27.600        40
27.620        13
27.640        23
27.660        10
27.680        17
27.700        17
27.720        27
27.740        47
27.760        20
27.780        27
27.800        30
27.820        40
27.840        23
27.860        27
27.880        27
27.900        37
27.920        30
27.940        17
27.960        27
27.980        20
28.000        23
28.020        37
28.040        30
28.060        30
28.080        37
28.100        20
28.120        43
28.140        50
28.160        23
28.180        37
28.200        53
28.220        43
28.240        37
28.260        33
28.280        30
28.300        40
28.320        33
28.340        17
28.360        27
28.380        27
28.400        23
28.420        17
28.440        13
28.460        33
28.480        17
28.500        37
28.520        53
28.540        30
28.560        17
28.580        33
28.600        17
28.620        40
28.640        27
28.660        20
28.680        27
28.700        10
28.720        37
28.740        27
28.760        37
28.780        33
28.800        40
28.820        20
28.840        33
28.860        30
28.880        27
28.900        23
28.920        27
28.940        60
28.960        20
28.980        27
29.000        23
29.020        23
29.040        33
29.060        17
29.080        33
29.100        27
29.120        33
29.140        33
29.160        23
29.180        40
29.200        37
29.220        30
29.240        10
29.260        20
29.280        27
29.300        23
29.320        20
29.340        20
29.360        27
29.380        37
29.400        33
29.420        17
29.440        23
29.460        13
29.480        43
29.500        13
29.520        40
29.540        20
29.560        30
29.580        23
29.600        17
29.620        30
29.640        40
29.660        17
29.680        10
29.700        23
29.720        17
29.740        40
29.760        30
29.780        50
29.800        20
29.820        37
29.840        20
29.860        33
29.880        20
29.900        17
29.920        33
29.940        27
29.960        27
29.980         3
30.000        13
30.020        17
30.040        30
30.060        50
30.080        17
30.100        17
30.120        33
30.140        30
30.160        30
30.180        43
30.200        47
30.220        30
30.240        30
30.260        40
30.280        67
30.300        13
30.320        43
30.340        63
30.360        23
30.380        53
30.400        40
30.420        33
30.440        23
30.460        43
30.480        40
30.500        43
30.520        30
30.540        47
30.560        30
30.580        33
30.600        50
30.620        37
30.640        33
30.660        27
30.680        27
30.700        33
30.720        53
30.740        53
30.760        30
30.780        50
30.800        83
30.820        40
30.840        47
30.860        50
30.880        57
30.900        40
30.920        70
30.940        57
30.960       107
30.980       107
31.000       170
31.020       207
31.040       217
31.060       257
31.080       247
31.100       417
31.120       466
31.140       620
31.160       886
31.180       943
31.200      1506
31.220      1779
31.240      2199
31.260      2286
31.280      2132
31.300      1776
31.320      1483
31.340      1266
31.360      1113
31.380       713
31.400       476
31.420       333
31.440       257
31.460       183
31.480       160
31.500       100
31.520       123
31.540        80
31.560        57
31.580        63
31.600        43
31.620        70
31.640        80
31.660        63
31.680        60
31.700        37
31.720        47
31.740        37
31.760        40
31.780        30
31.800        33
31.820        33
31.840        50
31.860        10
31.880        33
31.900        17
31.920        27
31.940        33
31.960        30
31.980        43
32.000        47
32.020        67
32.040        47
32.060        40
32.080        23
32.100        33
32.120        20
32.140        30
32.160        33
32.180        40
32.200        33
32.220        37
32.240        40
32.260        27
32.280        33
32.300        27
32.320        20
32.340        43
32.360        30
32.380        20
32.400        30
32.420        20
32.440        30
32.460        30
32.480        43
32.500        23
32.520        47
32.540        33
32.560        20
32.580        27
32.600        27
32.620        17
32.640        37
32.660        20
32.680        20
32.700        23
32.720        50
32.740        40
32.760        40
32.780        43
32.800        23
32.820        17
32.840        30
32.860        43
32.880        37
32.900        13
32.920        20
32.940        23
32.960        33
32.980        23
33.000        30
33.020        23
33.040        47
33.060        30
33.080        27
33.100        33
33.120        23
33.140        20
33.160        33
33.180        17
33.200        30
33.220        40
33.240        20
33.260        20
33.280        33
33.300        30
33.320        17
33.340        20
33.360        13
33.380        30
33.400        23
33.420        27
33.440        27
33.460         7
33.480        30
33.500        17
33.520        30
33.540        27
33.560        47
33.580        27
33.600        43
33.620        50
33.640        40
33.660        40
33.680        20
33.700        10
33.720        27
33.740        27
33.760        47
33.780        27
33.800        27
33.820        17
33.840        27
33.860        33
33.880        20
33.900        23
33.920        47
33.940        50
33.960        53
33.980        37
34.000        57
34.020        43
34.040        40
34.060        37
34.080        60
34.100        47
34.120        47
34.140        43
34.160        53
34.180        27
34.200        50
34.220        60
34.240        67
34.260        50
34.280        73
34.300        40
34.320        23
34.340        37
34.360        23
34.380        33
34.400        20
34.420        33
34.440        33
34.460        50
34.480        27
34.500        20
34.520        33
34.540        27
34.560        50
34.580        20
34.600        23
34.620        37
34.640         7
34.660        23
34.680        27
34.700        43
34.720        23
34.740        33
34.760        23
34.780        33
34.800        20
34.820        20
34.840        17
34.860        20
34.880        30
34.900        20
34.920        53
34.940        23
34.960        27
34.980        23
35.000        17
35.020        17
35.040        23
35.060        10
35.080        17
35.100        13
35.120        17
35.140        37
35.160        33
35.180        23
35.200        30
35.220        13
35.240        10
35.260        37
35.280        23
35.300        17
35.320        47
35.340        37
35.360        40
35.380        23
35.400        27
35.420        10
35.440        33
35.460        27
35.480        13
35.500        40
35.520        17
35.540        13
35.560        23
35.580        23
35.600        23
35.620        40
35.640        30
35.660        13
35.680        30
35.700        37
35.720        23
35.740        27
35.760        33
35.780        10
35.800        13
35.820        17
35.840        20
35.860        13
35.880        27
35.900        40
35.920        23
35.940        13
35.960        37
35.980        20
36.000        30
36.020        20
36.040        23
36.060        20
36.080        20
36.100        27
36.120        17
36.140        20
36.160        23
36.180        13
36.200        20
36.220        27
36.240        23
36.260         7
36.280        37
36.300        33
36.320        30
36.340        10
36.360        23
36.380        37
36.400        27
36.420        13
36.440         7
36.460        20
36.480        27
36.500        27
36.520        17
36.540        20
36.560        27
36.580        13
36.600        10
36.620        17
36.640        27
36.660        30
36.680        23
36.700        17
36.720        40
36.740        27
36.760        30
36.780        13
36.800        30
36.820        17
36.840        10
36.860        27
36.880        10
36.900        13
36.920        37
36.940        17
36.960        30
36.980        27
37.000        33
37.020        30
37.040        13
37.060        17
37.080        20
37.100        20
37.120        40
37.140        27
37.160        13
37.180        13
37.200        37
37.220        10
37.240        13
37.260        23
37.280         7
37.300        13
37.320        13
37.340        10
37.360        27
37.380        17
37.400        13
37.420        10
37.440        10
37.460        10
37.480        23
37.500         7
37.520        17
37.540        10
37.560        23
37.580        20
37.600        30
37.620        20
37.640        10
37.660        20
37.680        17
37.700        23
37.720        37
37.740        37
37.760        20
37.780        17
37.800        40
37.820        27
37.840        27
37.860        23
37.880        30
37.900        17
37.920        30
37.940        40
37.960        30
37.980         7
38.000        13
38.020        27
38.040        17
38.060        40
38.080         3
38.100        30
38.120        23
38.140        10
38.160        10
38.180        37
38.200        30
38.220        27
38.240        33
38.260        10
38.280        20
38.300        33
38.320        47
38.340        20
38.360        30
38.380        27
38.400        43
38.420        40
38.440        30
38.460        50
38.480        43
38.500        80
38.520        33
38.540        63
38.560        43
38.580        33
38.600        73
38.620        40
38.640        33
38.660        33
38.680        43
38.700        27
38.720        33
38.740        27
38.760        70
38.780        23
38.800        33
38.820        37
38.840        33
38.860        30
38.880        17
38.900        10
38.920        17
38.940        17
38.960        20
38.980        10
39.000        13
39.020        20
39.040        13
39.060        17
39.080        23
39.100        27
39.120        20
39.140        13
39.160        23
39.180        20
39.200        10
39.220        30
39.240        20
39.260        13
39.280        23
39.300        10
39.320        20
39.340        27
39.360        30
39.380        30
39.400        33
39.420        30
39.440        10
39.460        20
39.480        20
39.500        23
39.520        20
39.540        17
39.560        13
39.580        17
39.600        10
39.620        17
39.640        17
39.660        13
39.680        37
39.700        23
39.720        10
39.740        27
39.760        17
39.780        13
39.800        17
39.820        13
39.840        13
39.860        27
39.880        10
39.900        30
39.920        13
39.940        17
39.960        30
39.980        20
40.000        17
40.020        20
40.040        20
40.060        17
40.080        10
40.100        23
40.120        23
40.140        13
40.160        17
40.180        10
40.200        27
40.220        20
40.240        27
40.260        13
40.280        27
40.300        20
40.320        13
40.340         7
40.360        27
40.380        20
40.400        20
40.420        27
40.440        13
40.460        30
40.480        20
40.500         3
40.520         3
40.540        20
40.560        33
40.580        27
40.600        23
40.620        20
40.640         7
40.660        33
40.680        20
40.700         7
40.720        27
40.740        13
40.760        33
40.780        23
40.800        20
40.820        13
40.840         7
40.860        10
40.880        20
40.900         7
40.920        30
40.940        13
40.960         3
40.980        13
41.000        13
41.020        17
41.040        53
41.060        10
41.080        10
41.100        20
41.120        23
41.140        10
41.160        33
41.180        17
41.200        23
41.220        13
41.240        10
41.260        20
41.280         7
41.300        10
41.320        30
41.340        13
41.360        23
41.380        20
41.400        30
41.420        23
41.440        27
41.460        13
41.480        17
41.500        13
41.520        27
41.540        20
41.560         7
41.580        17
41.600        17
41.620        10
41.640        20
41.660        23
41.680        30
41.700        27
41.720        50
41.740        30
41.760        43
41.780        33
41.800        33
41.820        40
41.840        13
41.860        23
41.880        40
41.900        30
41.920        23
41.940        23
41.960        20
41.980        27
42.000        30
42.020        10
42.040        23
42.060        27
42.080         7
42.100         7
42.120        20
42.140        17
42.160        20
42.180        30
42.200        17
42.220        17
42.240        13
42.260        23
42.280        23
42.300        20
42.320        30
42.340        20
42.360        13
42.380        20
42.400        30
42.420         7
42.440         3
42.460        37
42.480        20
42.500         7
42.520        13
42.540         7
42.560         7
42.580        10
42.600        10
42.620        20
42.640        13
42.660         7
42.680         7
42.700        20
42.720        17
42.740        30
42.760        20
42.780        10
42.800        23
42.820        23
42.840         7
42.860        13
42.880        10
42.900        20
42.920         7
42.940        17
42.960        17
42.980        30
43.000        23
43.020        27
43.040        20
43.060        13
43.080        20
43.100        20
43.120        17
43.140        23
43.160        27
43.180        23
43.200        17
43.220        20
43.240        17
43.260        17
43.280        23
43.300        20
43.320        23
43.340        10
43.360         7
43.380        40
43.400        20
43.420        50
43.440        20
43.460        23
43.480         7
43.500        20
43.520        13
43.540        20
43.560        23
43.580        13
43.600        20
43.620        27
43.640        13
43.660        33
43.680        10
43.700        13
43.720        20
43.740         7
43.760        23
43.780        13
43.800         7
43.820        17
43.840         7
43.860        13
43.880        23
43.900        20
43.920        20
43.940        10
43.960        27
43.980        23
44.000        10
44.020        37
44.040        17
44.060        23
44.080        17
44.100        13
44.120        23
44.140         7
44.160        40
44.180        17
44.200        10
44.220         3
44.240        17
44.260        17
44.280        10
44.300        20
44.320        20
44.340        17
44.360        13
44.380        13
44.400        23
44.420        17
44.440        27
44.460        20
44.480        27
44.500        10
44.520        10
44.540        27
44.560        20
44.580        17
44.600        13
44.620        13
44.640        23
44.660        40
44.680        20
44.700        30
44.720        43
44.740        37
44.760        30
44.780        53
44.800        37
44.820        27
44.840        33
44.860        37
44.880        40
44.900        33
44.920        20
44.940        30
44.960        23
44.980        27
45.000        17
45.020        37
45.040        37
45.060        43
45.080        20
45.100        20
45.120        27
45.140         7
45.160        40
45.180         3
45.200        20
45.220        20
45.240        17
45.260        27
45.280         3
45.300        23
45.320        33
45.340        30
45.360        27
45.380         7
45.400        13
45.420        33
45.440        10
45.460        13
45.480        17
45.500        13
45.520         7
45.540        13
45.560        20
45.580        27
45.600        13
45.620        10
45.640        23
45.660        30
45.680         7
45.700        23
45.720        17
45.740        10
45.760        20
45.780         3
45.800         7
45.820         7
45.840        23
45.860        17
45.880        10
45.900        20
45.920        10
45.940         3
45.960        27
45.980        10
46.000        23
46.020        13
46.040        20
46.060        17
46.080        10
46.100        13
46.120        20
46.140        20
46.160        13
46.180        20
46.200         7
46.220        20
46.240        10
46.260         7
46.280        13
46.300        10
46.320        13
46.340        10
46.360        13
46.380        30
46.400        20
46.420         7
46.440        23
46.460        10
46.480        20
46.500        17
46.520        27
46.540        20
46.560        17
46.580        23
46.600        17
46.620        10
46.640        23
46.660        13
46.680        17
46.700        10
46.720        13
46.740        30
46.760        20
46.780        23
46.800        17
46.820        13
46.840        10
46.860        13
46.880         7
46.900         7
46.920        17
46.940        17
46.960         7
46.980        20
47.000        13
47.020         3
47.040        13
47.060        37
47.080        17
47.100         3
47.120        17
47.140        20
47.160        23
47.180        20
47.200         0
47.220         3
47.240        20
47.260        10
47.280        10
47.300        17
47.320        20
47.340        33
47.360        13
47.380         7
47.400         7
47.420        17
47.440        37
47.460        30
47.480        13
47.500         7
47.520        23
47.540        17
47.560        13
47.580        20
47.600         3
47.620        13
47.640         7
47.660         7
47.680        13
47.700        23
47.720         3
47.740        20
47.760        23
47.780        13
47.800        13
47.820        10
47.840         7
47.860        23
47.880        23
47.900         3
47.920        13
47.940        13
47.960        13
47.980        27
48.000        13
48.020        37
48.040        20
48.060        23
48.080        20
48.100         3
48.120        17
48.140        13
48.160        23
48.180         7
48.200        23
48.220        23
48.240        10
48.260        13
48.280         7
48.300        13
48.320         7
48.340        23
48.360        20
48.380        20
48.400        13
48.420        20
48.440         7
48.460        27
48.480        13
48.500        17
48.520        10
48.540        30
48.560        13
48.580         3
48.600        20
48.620        27
48.640        13
48.660        17
48.680        10
48.700        23
48.720        20
48.740        27
48.760        13
48.780        10
48.800        17
48.820        13
48.840        33
48.860        10
48.880         3
48.900        27
48.920        23
48.940         7
48.960         3
48.980        20
49.000        23
49.020        10
49.040        20
49.060        43
49.080        10
49.100        20
49.120        17
49.140         3
49.160        13
49.180        10
49.200        10
49.220        17
49.240        20
49.260         7
49.280        17
49.300        20
49.320        17
49.340        20
49.360         7
49.380        23
49.400        10
49.420        20
49.440        10
49.460        20
49.480        13
49.500         3
49.520        13
49.540         7
49.560         7
49.580        17
49.600        23
49.620        10
49.640        17
49.660        23
49.680         7
49.700        17
49.720        23
49.740        27
49.760        23
49.780        20
49.800         7
49.820        13
49.840         7
49.860        10
49.880        17
49.900        17
49.920        10
49.940        17
49.960        17
49.980        10
50.000         7
50.020        27
50.040        17
50.060        20
50.080        30
50.100        17
50.120        17
50.140        23
50.160        20
50.180        20
50.200        10
50.220         3
50.240        30
50.260        20
50.280        20
50.300        13
50.320        13
50.340         7
50.360        23
50.380        20
50.400        30
50.420        20
50.440         7
50.460        13
50.480        17
50.500         7
50.520        13
50.540        23
50.560        13
50.580        27
50.600        33
50.620        13
50.640        20
50.660         7
50.680        20
50.700        17
50.720        17
50.740        10
50.760        20
50.780        23
50.800        20
50.820        20
50.840        23
50.860        27
50.880         3
50.900        13
50.920        23
50.940        17
50.960         0
50.980        10
51.000        13
51.020         7
51.040         7
51.060         7
51.080        23
51.100        30
51.120        23
51.140        17
51.160        10
51.180        23
51.200        10
51.220        10
51.240        20
51.260        20
51.280        43
51.300         7
51.320        20
51.340        30
51.360        10
51.380        13
51.400        20
51.420        17
51.440         7
51.460        10
51.480        17
51.500        13
51.520        13
51.540         7
51.560        13
51.580        43
51.600         7
51.620        13
51.640        10
51.660         7
51.680        30
51.700        23
51.720        10
51.740        13
51.760        10
51.780        20
51.800        10
51.820        10
51.840        20
51.860        13
51.880        10
51.900        23
51.920        10
51.940        17
51.960        13
51.980        17
52.000        37
52.020        20
52.040        17
52.060        17
52.080        13
52.100        10
52.120        23
52.140        23
52.160        13
52.180        13
52.200        10
52.220        17
52.240        13
52.260        23
52.280        13
52.300        20
52.320        20
52.340        10
52.360        20
52.380        27
52.400        17
52.420        23
52.440        17
52.460        20
52.480        10
52.500        13
52.520        10
52.540        20
52.560        17
52.580        20
52.600        13
52.620        10
52.640        17
52.660        13
52.680        17
52.700        13
52.720        17
52.740        10
52.760        10
52.780        17
52.800        20
52.820        13
52.840        13
52.860        23
52.880        23
52.900        20
52.920        23
52.940         0
52.960        20
52.980         7
53.000         7
53.020        10
53.040        13
53.060        13
53.080        10
53.100         7
53.120        37
53.140        10
53.160         7
53.180         3
53.200         3
53.220        10
53.240        10
53.260        20
53.280        17
53.300        17
53.320         7
53.340        23
53.360        10
53.380        17
53.400        20
53.420        13
53.440         7
53.460        10
53.480        17
53.500        20
53.520        13
53.540         3
53.560         3
53.580        10
53.600        13
53.620         3
53.640        13
53.660        27
53.680         3
53.700        30
53.720        23
53.740        13
53.760        10
53.780         7
53.800         7
53.820        77
53.840        10
53.860        13
53.880        10
53.900        10
53.920         7
53.940        23
53.960        17
53.980        13
54.000        20
54.020        23
54.040        30
54.060        13
54.080        13
54.100         7
54.120        10
54.140         3
54.160        10
54.180        13
54.200        33
54.220        23
54.240        10
54.260        30
54.280        13
54.300        10
54.320        17
54.340        33
54.360        20
54.380        20
54.400        23
54.420        20
54.440        37
54.460        20
54.480        30
54.500        17
54.520        27
54.540        23
54.560         7
54.580        20
54.600        10
54.620         7
54.640        17
54.660        17
54.680        20
54.700         7
54.720        13
54.740        33
54.760        20
54.780        13
54.800        10
54.820        27
54.840        33
54.860        20
54.880        30
54.900        37
54.920        33
54.940        20
54.960        27
54.980        30
55.000        20
55.020        23
55.040        13
55.060        40
55.080        37
55.100        10
55.120        30
55.140        17
55.160        37
55.180        43
55.200        33
55.220        33
55.240        50
55.260        80
55.280        70
55.300        70
55.320        73
55.340        90
55.360       143
55.380        97
55.400       150
55.420       173
55.440       223
55.460       243
55.480       327
55.500       403
55.520       496
55.540       646
55.560       690
55.580       716
55.600       840
55.620       783
55.640       766
55.660       680
55.680       723
55.700       600
55.720       580
55.740       556
55.760       450
55.780       440
55.800       307
55.820       283
55.840       207
55.860       140
55.880       150
55.900       140
55.920        80
55.940        90
55.960        83
55.980        53
56.000        80
56.020        70
56.040        40
56.060        33
56.080        27
56.100        23
56.120        23
56.140        33
56.160        27
56.180        30
56.200        33
56.220        43
56.240        47
56.260        17
56.280        27
56.300        27
56.320        20
56.340        23
56.360        20
56.380        20
56.400        10
56.420        33
56.440        10
56.460        23
56.480        20
56.500        27
56.520        10
56.540        13
56.560        17
56.580        23
56.600        13
56.620        17
56.640        13
56.660        20
56.680         3
56.700        13
56.720        13
56.740        27
56.760         3
56.780         0
56.800        20
56.820        20
56.840        17
56.860        23
56.880        10
56.900        20
56.920        20
56.940        23
56.960        17
56.980        10
57.000         7
57.020        10
57.040        13
57.060        23
57.080        13
57.100        10
57.120        27
57.140        23
57.160        10
57.180         7
57.200        13
57.220        13
57.240        17
57.260        20
57.280        27
57.300         3
57.320        10
57.340        10
57.360        13
57.380        10
57.400        20
57.420        20
57.440        13
57.460        20
57.480        23
57.500        27
57.520        10
57.540        10
57.560        17
57.580        20
57.600        23
57.620         7
57.640        20
57.660        10
57.680        27
57.700         7
57.720        13
57.740        13
57.760        20
57.780         7
57.800        13
57.820         3
57.840        10
57.860        10
57.880         7
57.900         3
57.920        10
57.940        17
57.960        13
57.980        20
58.000        10
58.020        23
58.040        13
58.060        20
58.080        27
58.100        13
58.120        17
58.140        23
58.160        17
58.180         3
58.200        27
58.220        27
58.240        13
58.260        17
58.280        20
58.300        20
58.320        17
58.340        23
58.360        10
58.380        27
58.400        13
58.420        17
58.440        10
58.460        13
58.480        23
58.500        23
58.520        20
58.540        17
58.560        20
58.580        13
58.600        13
58.620        17
58.640        10
58.660        27
58.680        17
58.700        17
58.720         7
58.740        13
58.760         3
58.780        27
58.800        27
58.820        23
58.840         7
58.860        20
58.880        23
58.900         3
58.920        17
58.940        13
58.960         7
58.980        17
59.000        17
59.020        10
59.040        10
59.060        27
59.080        10
59.100        10
59.120         7
59.140        23
59.160        17
59.180        13
59.200         7
59.220        13
59.240        10
59.260        20
59.280        20
59.300        13
59.320        13
59.340        27
59.360        17
59.380        13
59.400        10
59.420         7
59.440        10
59.460        13
59.480         7
59.500        17
59.520        13
59.540        17
59.560         7
59.580        17
59.600        20
59.620        10
59.640        17
59.660        10
59.680        13
59.700        17
59.720        17
59.740        13
59.760         7
59.780        17
59.800        27
59.820        20
59.840        17
59.860        10
59.880         7
59.900        13
59.920        20
59.940        10
59.960        10
59.980        23
60.000         7
