20.000        47
20.020        30
20.040        47
20.060        47
20.080        37
20.100        43
20.120        17
20.140        50
20.160        23
20.180        30
20.200        27
20.220        57
20.240        53
20.260        40
20.280        33
20.300        43
20.320        43
20.340        33
20.360        33
20.380        30
20.400        47
20.420        33
20.440        60
20.460        30
20.480        40
20.500        20
20.520        40
20.540        50
20.560        33
20.580        17
20.600        23
20.620        23
20.640        50
20.660        53
20.680        30
20.700        47
20.720        37
20.740        27
20.760        43
20.780        27
20.800        30
20.820        23
20.840        37
20.860        67
20.880        33
20.900        47
20.920        60
20.940        50
20.960        37
20.980        40
21.000        60
21.020        40
21.040        30
21.060        57
21.080        47
21.100        30
21.120        30
21.140        50
21.160        40
21.180        33
21.200        50
21.220        53
21.240        37
21.260        40
21.280        43
21.300        57
21.320        33
21.340        27
21.360        37
21.380        37
21.400        50
21.420        13
21.440        40
21.460        53
21.480        37
21.500        17
21.520        43
21.540        37
21.560        37
21.580        23
21.600        30
21.620        23
21.640        30
21.660        47
21.680        47
21.700        43
21.720        60
21.740        30
21.760        30
21.780        17
21.800        27
21.820        27
21.840        37
21.860        33
21.880        47
21.900        33
21.920        23
21.940        43
21.960        47
21.980        50
22.000        40
22.020        53
22.040        23
22.060        37
22.080        43
22.100        33
22.120        37
22.140        37
22.160         3
22.180        47
22.200        23
22.220        30
22.240        43
22.260        47
22.280        33
22.300        30
22.320        23
22.340        40
22.360        37
22.380        40
22.400        33
22.420        47
22.440        17
22.460        40
22.480        20
22.500        37
22.520        37
22.540        43
22.560        43
22.580        40
22.600        30
22.620        43
22.640        37
22.660        57
22.680        23
22.700        43
22.720        63
22.740        47
22.760        13
22.780        40
22.800        33
22.820        37
22.840        33
22.860        37
22.880        37
22.900        37
22.920        27
22.940        33
22.960        20
22.980        27
23.000        20
23.020        23
23.040        33
23.060        40
23.080        30
23.100        33
23.120        20
23.140        37
23.160        27
23.180        53
23.200        27
23.220        53
23.240        57
23.260        33
23.280        17
23.300        27
23.320        23
23.340        17
23.360        33
23.380        43
23.400        33
23.420        37
23.440        53
23.460        33
23.480        43
23.500        20
23.520        23
23.540        40
23.560        37
23.580        37
23.600        30
23.620        53
23.640        33
23.660        40
23.680        27
23.700        33
23.720        43
23.740        23
23.760        23
23.780        30
23.800        23
23.820        23
23.840        37
23.860        37
23.880        27
23.900        27
23.920        53
23.940        20
23.960        30
23.980        27
24.000        63
24.020        37
24.040        30
24.060        33
24.080        33
24.100        27
24.120        47
24.140        23
24.160        47
24.180        40
24.200        37
24.220        20
24.240        47
24.260        37
24.280        27
24.300        30
24.320        23
24.340        37
24.360        17
24.380        43
24.400        27
24.420        27
24.440        17
24.460        30
24.480        17
24.500        33
24.520        60
24.540        27
24.560        37
24.580        37
24.600        47
24.620        43
24.640        20
24.660        37
24.680        37
24.700        47
24.720        20
24.740        43
24.760        27
24.780        20
24.800        37
24.820        43
24.840        47
24.860        20
24.880        30
24.900        13
24.920        23
24.940        27
24.960        27
24.980        40
25.000        23
25.020        17
25.040        30
25.060        17
25.080        13
25.100        23
25.120        37
25.140        27
25.160        33
25.180        33
25.200        40
25.220        53
25.240        37
25.260        33
25.280        40
25.300        20
25.320        33
25.340        27
25.360        20
25.380        17
25.400        17
25.420        17
25.440        37
25.460        13
25.480        23
25.500        17
25.520        17
25.540        27
25.560        20
25.580        17
25.600        13
25.620        30
25.640        27
25.660        23
25.680        23
25.700        23
25.720        40
25.740        23
25.760        20
25.780        13
25.800         7
25.820        23
25.840        27
25.860        20
25.880        27
25.900        30
25.920        27
25.940        30
25.960        13
25.980        10
26.000        10
26.020        27
26.040        13
26.060        37
26.080        37
26.100        20
26.120        33
26.140        23
26.160        37
26.180        17
26.200        33
26.220        27
26.240        27
26.260        33
26.280        10
26.300        33
26.320        27
26.340        17
26.360        17
26.380        27
26.400        30
26.420        27
26.440        20
26.460        10
26.480        17
26.500        23
26.520        17
26.540        23
26.560        23
26.580        30
26.600        20
26.620        20
26.640        23
26.660        10
26.680        27
26.700        23
26.720        33
26.740        30
26.760        20
26.780        13
26.800        30
26.820        23
26.840        20
26.860        23
26.880        20
26.900        47
26.920        33
26.940        13
26.960        37
26.980        23
27.000        23
27.020        33
27.040        23
27.060        30
27.080        30
27.100        17
27.120        43
27.140        47
27.160        20
27.180        30
27.200        27
27.220         7
27.240        13
27.260        13
27.280        50
27.300        17
27.320        33
27.340        17
27.360        27
27.380        20
27.400        20
27.420        17
27.440        23
27.460        23
27.480        20
27.500        17
27.520        13
27.540        17
27.560         3
27.580        30
27.600        17
27.620        30
27.640        20
27.660        27
27.680        20
27.700        20
27.720        17
27.740        23
27.760        37
27.780        30
27.800        27
27.820        17
27.840        33
27.860        37
27.880        20
27.900        23
27.920        23
27.940        27
27.960        30
27.980        23
28.000        27
28.020        20
28.040        17
28.060        13
28.080        27
28.100        23
28.120        27
28.140        23
28.160        20
28.180        20
28.200        13
28.220        23
28.240        27
28.260        27
28.280        33
28.300        23
28.320        20
28.340         7
28.360        10
28.380        23
28.400        23
28.420        20
28.440        23
28.460        27
28.480        20
28.500        10
28.520        23
28.540        23
28.560        17
28.580        20
28.600        13
28.620        10
28.640        20
28.660        20
28.680        43
28.700        27
28.720        33
28.740        27
28.760        23
28.780        10
28.800        23
28.820        13
28.840        27
28.860        40
28.880        20
28.900        20
28.920        20
28.940        37
28.960        23
28.980        33
29.000        33
29.020        47
29.040        43
29.060        40
29.080        43
29.100        13
29.120        30
29.140        43
29.160        53
29.180        33
29.200        23
29.220        40
29.240        27
29.260        30
29.280        23
29.300        37
29.320        10
29.340        30
29.360        20
29.380        13
29.400        27
29.420        20
29.440        23
29.460        20
29.480        20
29.500        30
29.520        27
29.540        20
29.560        20
29.580        17
29.600        23
29.620        27
29.640        30
29.660        27
29.680        10
29.700        13
29.720        10
29.740        10
29.760        23
29.780        17
29.800        10
29.820        17
29.840        27
29.860        30
29.880        20
29.900        23
29.920        30
29.940        13
29.960        27
29.980        20
30.000         3
30.020        13
30.040        43
30.060        20
30.080        20
30.100        27
30.120        23
30.140        13
30.160        13
30.180        27
30.200        20
30.220         7
30.240        23
30.260         7
30.280         7
30.300        13
30.320        13
30.340        23
30.360        27
30.380        30
30.400        23
30.420        20
30.440        20
30.460        47
30.480        27
30.500        10
30.520        23
30.540        17
30.560        23
30.580        20
30.600        30
30.620        33
30.640        30
30.660        13
30.680        33
30.700        17
30.720        10
30.740        17
30.760        20
30.780        17
30.800        30
30.820        27
30.840        23
30.860        17
30.880        10
30.900        17
30.920        43
30.940        13
30.960        33
30.980        23
31.000        47
31.020        17
31.040        33
31.060        40
31.080        57
31.100        40
31.120        63
31.140        73
31.160        57
31.180        93
31.200        70
31.220        67
31.240        73
31.260        87
31.280        70
31.300        43
31.320        43
31.340        53
31.360        37
31.380        40
31.400        37
31.420        10
31.440        37
31.460        23
31.480        23
31.500        27
31.520        30
31.540        33
31.560        20
31.580        13
31.600        20
31.620        30
31.640        27
31.660        13
31.680        10
31.700        23
31.720         7
31.740        20
31.760        17
31.780        30
31.800        27
31.820        17
31.840        10
31.860        27
31.880        17
31.900        23
31.920        37
31.940        17
31.960        13
31.980        13
32.000        27
32.020        40
32.040        37
32.060        30
32.080        33
32.100        27
32.120        30
32.140        23
32.160        20
32.180        10
32.200        10
32.220        10
32.240        27
32.260        10
32.280        23
32.300        23
32.320         7
32.340        23
32.360        10
32.380        30
32.400        10
32.420        17
32.440        27
32.460        27
32.480        10
32.500        20
32.520        27
32.540        40
32.560        50
32.580        37
32.600        33
32.620        17
32.640        17
32.660        13
32.680        37
32.700        23
32.720        33
32.740        17
32.760        33
32.780        23
32.800        17
32.820        20
32.840        20
32.860        20
32.880        13
32.900        17
32.920        17
32.940        13
32.960        10
32.980        23
33.000        17
33.020        17
33.040        20
33.060         7
33.080        20
33.100        23
33.120        20
33.140        30
33.160        17
33.180        17
33.200        13
33.220        17
33.240        23
33.260        17
33.280        13
33.300        43
33.320        23
33.340        17
33.360         7
33.380        37
33.400        27
33.420         7
33.440        27
33.460        17
33.480        23
33.500        20
33.520        13
33.540        10
33.560        30
33.580         7
33.600        27
33.620        17
33.640        10
33.660        20
33.680        27
33.700        20
33.720        10
33.740        33
33.760        23
33.780        20
33.800        20
33.820        20
33.840        13
33.860        20
33.880        10
33.900        17
33.920        20
33.940        20
33.960        37
33.980        37
34.000        27
34.020        17
34.040        13
34.060        17
34.080        33
34.100        27
34.120        20
34.140        27
34.160        23
34.180        17
34.200        20
34.220        17
34.240        33
34.260        17
34.280        27
34.300        20
34.320        23
34.340        17
34.360        13
34.380        17
34.400        30
34.420        17
34.440        37
34.460        20
34.480        33
34.500        27
34.520        20
34.540        20
34.560        17
34.580        30
34.600        17
34.620        20
34.640        23
34.660        17
34.680         7
34.700        37
34.720        10
34.740        20
34.760        10
34.780        40
34.800        23
34.820        33
34.840        30
34.860        30
34.880        23
34.900        23
34.920        17
34.940        13
34.960        17
34.980        20
35.000        43
35.020        20
35.040        10
35.060        33
35.080        30
35.100        40
35.120        27
35.140        33
35.160        43
35.180        37
35.200        33
35.220        63
35.240        60
35.260       110
35.280       160
35.300       253
35.320       320
35.340       383
35.360       417
35.380       317
35.400       277
35.420       263
35.440       280
35.460       193
35.480       147
35.500       137
35.520       103
35.540       140
35.560       173
35.580       160
35.600       183
35.620       167
35.640       183
35.660       120
35.680       143
35.700       133
35.720       123
35.740        67
35.760        77
35.780        70
35.800        47
35.820        33
35.840        37
35.860        23
35.880        37
35.900        53
35.920        23
35.940        30
35.960        37
35.980        57
36.000        60
36.020        27
36.040        13
36.060        40
36.080        40
36.100        37
36.120        37
36.140        43
36.160        47
36.180        50
36.200        47
36.220        13
36.240        37
36.260        23
36.280        10
36.300        23
36.320        20
36.340        30
36.360        23
36.380        27
36.400        27
36.420        23
36.440        17
36.460        13
36.480        20
36.500        20
36.520        23
36.540        23
36.560        33
36.580        20
36.600        20
36.620        27
36.640        10
36.660        13
36.680        17
36.700        33
36.720        23
36.740        37
36.760        20
36.780        27
36.800        23
36.820        10
36.840        20
36.860        23
36.880        43
36.900        33
36.920        30
36.940        27
36.960        20
36.980        27
37.000        23
37.020        17
37.040        23
37.060        30
37.080        10
37.100        13
37.120        27
37.140        27
37.160        10
37.180        17
37.200        17
37.220        13
37.240        13
37.260        40
37.280        13
37.300        23
37.320        23
37.340        27
37.360        40
37.380         3
37.400        17
37.420        17
37.440        57
37.460        40
37.480        23
37.500        23
37.520        20
37.540         7
37.560        30
37.580         7
37.600        20
37.620        27
37.640        13
37.660        27
37.680        20
37.700        13
37.720         3
37.740        17
37.760        13
37.780        10
37.800        37
37.820        13
37.840        27
37.860        23
37.880        13
37.900        33
37.920        30
37.940        10
37.960         7
37.980        13
38.000        13
38.020        20
38.040        33
38.060        33
38.080        13
38.100        27
38.120        23
38.140        17
38.160        33
38.180        33
38.200        23
38.220        10
38.240        33
38.260        33
38.280        30
38.300        23
38.320        37
38.340        17
38.360        60
38.380        50
38.400        20
38.420        47
38.440        43
38.460        43
38.480        50
38.500        63
38.520        70
38.540        47
38.560        57
38.580        30
38.600        47
38.620        30
38.640        47
38.660        27
38.680        37
38.700        50
38.720        50
38.740        53
38.760        27
38.780        23
38.800        17
38.820        23
38.840         7
38.860        23
38.880        30
38.900        40
38.920        20
38.940        30
38.960        33
38.980        23
39.000        43
39.020        50
39.040        30
39.060        37
39.080        17
39.100        23
39.120        33
39.140        17
39.160        43
39.180        33
39.200        53
39.220        37
39.240        43
39.260        43
39.280        20
39.300        23
39.320        27
39.340        10
39.360        13
39.380        30
39.400        33
39.420        27
39.440        17
39.460        37
39.480        33
39.500         7
39.520         3
39.540         7
39.560        20
39.580        43
39.600        33
39.620        30
39.640        30
39.660        23
39.680        10
39.700        10
39.720        23
39.740        13
39.760        30
39.780        33
39.800        20
39.820        20
39.840        20
39.860        27
39.880        33
39.900         3
39.920        40
39.940        13
39.960        10
39.980        17
40.000        27
40.020        17
40.040        10
40.060        23
40.080        23
40.100        10
40.120        37
40.140        13
40.160        47
40.180        27
40.200        10
40.220        20
40.240        43
40.260        33
40.280        20
40.300        27
40.320        23
40.340        17
40.360        23
40.380        20
40.400        13
40.420        10
40.440        13
40.460        20
40.480        17
40.500        27
40.520        20
40.540        20
40.560        23
40.580         7
40.600        20
40.620        20
40.640         3
40.660        23
40.680        33
40.700        20
40.720        20
40.740        27
40.760        17
40.780        17
40.800        17
40.820         7
40.840        20
40.860        10
40.880         7
40.900        10
40.920        20
40.940        17
40.960        20
40.980        33
41.000        20
41.020        10
41.040        40
41.060        40
41.080        50
41.100        17
41.120        20
41.140        27
41.160        13
41.180        23
41.200        10
41.220        23
41.240        10
41.260        17
41.280        13
41.300        43
41.320        13
41.340        30
41.360        30
41.380        13
41.400        27
41.420        10
41.440        27
41.460        17
41.480        33
41.500        13
41.520        20
41.540        13
41.560        27
41.580         7
41.600        23
41.620        27
41.640        13
41.660        10
41.680        23
41.700        23
41.720        13
41.740        20
41.760        27
41.780        30
41.800        40
41.820        33
41.840        27
41.860        17
41.880        40
41.900        20
41.920        17
41.940        13
41.960        20
41.980        40
42.000        23
42.020        17
42.040        13
42.060        17
42.080        23
42.100        23
42.120        27
42.140        17
42.160        33
42.180        17
42.200        20
42.220        30
42.240        20
42.260        50
42.280        27
42.300        13
42.320        30
42.340        20
42.360        27
42.380        10
42.400        13
42.420        23
42.440        23
42.460        27
42.480        20
42.500        20
42.520        20
42.540        37
42.560        37
42.580        10
42.600        23
42.620        20
42.640        30
42.660        27
42.680        37
42.700        43
42.720        17
42.740        37
42.760        40
42.780        20
42.800        20
42.820        33
42.840        27
42.860        33
42.880        33
42.900        33
42.920        27
42.940        37
42.960        27
42.980        40
43.000        40
43.020        20
43.040        37
43.060        43
43.080        20
43.100        47
43.120        17
43.140        17
43.160        30
43.180        17
43.200        30
43.220        30
43.240        27
43.260        20
43.280        30
43.300        20
43.320        20
43.340        33
43.360        27
43.380        27
43.400        13
43.420        23
43.440        30
43.460         7
43.480        13
43.500        13
43.520        17
43.540        13
43.560        40
43.580        10
43.600        23
43.620        37
43.640        23
43.660        10
43.680        20
43.700        10
43.720        23
43.740        23
43.760        10
43.780        20
43.800        27
43.820        20
43.840        23
43.860        20
43.880        10
43.900        20
43.920        27
43.940        23
43.960        10
43.980        23
44.000        43
44.020        17
44.040        33
44.060        27
44.080        27
44.100        10
44.120        10
44.140        13
44.160        13
44.180        27
44.200        27
44.220        27
44.240        20
44.260        30
44.280        37
44.300        27
44.320        20
44.340        13
44.360        10
44.380        33
44.400        20
44.420        17
44.440        33
44.460        17
44.480        33
44.500        27
44.520        40
44.540        13
44.560        23
44.580        33
44.600        30
44.620        30
44.640        27
44.660        27
44.680        33
44.700        13
44.720        33
44.740        30
44.760        20
44.780        30
44.800        20
44.820        17
44.840        43
44.860         7
44.880        20
44.900        33
44.920        20
44.940        33
44.960        20
44.980        27
45.000        27
45.020        30
45.040        10
45.060        30
45.080        27
45.100        27
45.120        10
45.140        17
45.160        27
45.180        23
45.200        30
45.220         7
45.240        17
45.260        30
45.280        20
45.300        27
45.320        27
45.340        30
45.360        20
45.380        30
45.400        20
45.420        23
45.440        30
45.460        30
45.480        23
45.500        13
45.520        27
45.540        17
45.560         7
45.580        23
45.600        27
45.620        27
45.640        27
45.660        20
45.680        20
45.700        10
45.720        20
45.740        13
45.760        10
45.780        33
45.800        27
45.820        27
45.840        30
45.860        20
45.880        33
45.900        43
45.920        33
45.940        20
45.960        30
45.980        10
46.000        20
46.020        33
46.040        37
46.060        33
46.080        23
46.100        37
46.120        20
46.140        30
46.160        17
46.180        17
46.200        27
46.220        20
46.240        10
46.260         7
46.280        37
46.300        30
46.320        17
46.340        30
46.360        23
46.380        17
46.400        27
46.420        10
46.440        20
46.460        20
46.480        30
46.500        33
46.520        23
46.540        13
46.560        37
46.580         0
46.600        27
46.620        33
46.640        13
46.660        33
46.680        30
46.700        17
46.720        27
46.740        13
46.760        17
46.780        40
46.800        27
46.820        20
46.840         7
46.860        13
46.880        17
46.900        47
46.920        23
46.940        17
46.960        23
46.980        20
47.000        33
47.020        17
47.040        27
47.060        23
47.080        50
47.100        27
47.120        23
47.140        50
47.160        27
47.180        47
47.200        47
47.220        37
47.240        33
47.260        43
47.280        53
47.300        40
47.320        23
47.340        23
47.360        47
47.380        23
47.400        53
47.420        20
47.440        20
47.460        20
47.480        17
47.500        43
47.520        23
47.540        17
47.560        23
47.580        17
47.600        20
47.620        30
47.640        33
47.660        27
47.680        23
47.700        17
47.720        17
47.740        10
47.760        20
47.780        27
47.800        20
47.820        23
47.840        20
47.860        13
47.880        17
47.900        23
47.920        27
47.940        17
47.960        20
47.980        27
48.000        13
48.020         0
48.040        20
48.060        17
48.080        27
48.100        43
48.120        23
48.140        37
48.160        27
48.180        40
48.200        40
48.220        50
48.240        37
48.260        33
48.280        57
48.300        30
48.320        37
48.340        23
48.360        40
48.380        23
48.400        23
48.420        23
48.440        30
48.460        37
48.480        10
48.500        20
48.520        10
48.540        20
48.560        30
48.580        27
48.600        13
48.620        13
48.640        13
48.660        20
48.680        13
48.700        20
48.720        10
48.740        23
48.760        17
48.780        27
48.800        20
48.820        17
48.840        13
48.860        17
48.880         7
48.900        23
48.920        30
48.940        20
48.960        17
48.980        20
49.000        13
49.020        23
49.040        10
49.060        20
49.080        27
49.100        13
49.120        17
49.140        20
49.160        13
49.180        13
49.200        17
49.220        17
49.240         3
49.260        33
49.280        13
49.300        10
49.320        13
49.340        23
49.360        10
49.380        33
49.400        17
49.420        20
49.440        13
49.460        20
49.480        20
49.500        23
49.520        13
49.540         7
49.560        17
49.580        20
49.600        27
49.620        20
49.640        17
49.660        20
49.680        33
49.700         3
49.720         3
49.740        20
49.760        27
49.780        40
49.800        10
49.820        17
49.840        17
49.860        30
49.880        13
49.900        10
49.920        10
49.940        33
49.960         7
49.980        37
50.000        13
50.020        20
50.040        17
50.060        10
50.080        23
50.100        27
50.120        17
50.140        13
50.160        10
50.180        17
50.200        20
50.220        10
50.240        40
50.260         7
50.280        20
50.300        27
50.320        13
50.340        17
50.360        23
50.380        27
50.400        20
50.420        13
50.440        17
50.460        17
50.480        23
50.500        23
50.520        33
50.540        20
50.560        10
50.580        10
50.600        20
50.620        20
50.640        17
50.660        23
50.680        13
50.700        37
50.720        13
50.740        40
50.760        17
50.780        23
50.800        17
50.820        20
50.840        10
50.860        23
50.880        27
50.900        23
50.920        27
50.940        20
50.960        13
50.980        37
51.000        37
51.020        20
51.040        27
51.060        30
51.080        17
51.100        10
51.120        23
51.140        27
51.160        30
51.180        13
51.200        20
51.220        13
51.240        43
51.260        33
51.280        23
51.300        20
51.320        30
51.340        17
51.360        10
51.380        30
51.400        30
51.420        23
51.440        17
51.460        23
51.480        20
51.500        37
51.520        20
51.540        37
51.560        20
51.580        27
51.600        20
51.620         7
51.640        20
51.660        30
51.680        17
51.700        13
51.720        27
51.740        33
51.760        13
51.780        33
51.800        23
51.820        17
51.840         7
51.860        27
51.880         7
51.900        20
51.920        43
51.940        23
51.960         3
51.980        30
52.000        13
52.020        23
52.040        10
52.060        23
52.080        30
52.100        17
52.120        30
52.140        27
52.160        23
52.180         7
52.200        17
52.220        37
52.240        27
52.260        13
52.280        33
52.300        23
52.320        20
52.340         7
52.360        27
52.380        20
52.400        17
52.420        20
52.440        17
52.460        20
52.480        20
52.500        27
52.520        17
52.540        27
52.560        27
52.580        13
52.600        23
52.620        37
52.640        30
52.660        17
52.680        20
52.700        17
52.720        27
52.740        17
52.760        27
52.780        23
52.800        27
52.820        30
52.840        13
52.860        27
52.880         7
52.900        23
52.920        13
52.940        13
52.960        23
52.980        13
53.000        20
53.020        13
53.040        13
53.060        17
53.080        23
53.100        37
53.120        27
53.140        17
53.160        10
53.180        27
53.200        20
53.220        23
53.240        13
53.260        23
53.280        17
53.300        20
53.320        20
53.340        33
53.360        10
53.380         7
53.400        20
53.420        37
53.440        27
53.460        17
53.480        20
53.500        30
53.520        23
53.540        17
53.560        27
53.580        30
53.600        30
53.620        30
53.640        23
53.660        20
53.680        13
53.700        37
53.720        17
53.740        10
53.760        10
53.780        33
53.800        33
53.820        27
53.840        27
53.860        23
53.880        27
53.900        27
53.920        13
53.940        17
53.960        27
53.980        20
54.000        43
54.020        30
54.040        23
54.060        33
54.080        27
54.100        27
54.120        37
54.140        23
54.160        33
54.180        37
54.200        17
54.220        23
54.240        37
54.260        30
54.280        20
54.300        40
54.320        10
54.340        33
54.360        30
54.380        33
54.400        33
54.420        27
54.440        40
54.460        40
54.480        27
54.500        23
54.520        33
54.540        53
54.560        27
54.580        27
54.600        23
54.620        17
54.640        37
54.660        50
54.680        37
54.700        23
54.720        23
54.740        47
54.760        23
54.780        23
54.800        27
54.820        17
54.840        50
54.860        43
54.880        43
54.900        23
54.920        23
54.940        30
54.960        13
54.980        27
55.000        30
55.020        23
55.040        27
55.060        23
55.080        30
55.100        27
55.120        40
55.140        23
55.160        50
55.180        43
55.200        40
55.220        43
55.240        27
55.260        40
55.280        33
55.300        37
55.320        33
55.340        33
55.360        40
55.380        37
55.400        53
55.420        63
55.440        37
55.460        47
55.480        63
55.500        57
55.520       100
55.540        90
55.560       107
55.580        60
55.600       103
55.620       123
55.640        67
55.660       113
55.680        87
55.700        97
55.720        73
55.740        80
55.760        97
55.780        53
55.800        57
55.820        63
55.840        83
55.860        30
55.880        60
55.900        40
55.920        50
55.940        27
55.960        43
55.980        37
56.000        30
56.020        50
56.040        40
56.060        33
56.080        27
56.100        47
56.120        30
56.140        30
56.160        50
56.180        40
56.200        37
56.220        10
56.240        33
56.260        27
56.280        23
56.300        47
56.320        47
56.340        30
56.360        43
56.380        37
56.400        27
56.420        50
56.440        37
56.460        27
56.480        20
56.500        23
56.520        43
56.540        33
56.560        40
56.580        33
56.600        30
56.620        47
56.640        30
56.660        40
56.680        43
56.700        30
56.720        40
56.740        43
56.760        27
56.780        27
56.800        20
56.820        37
56.840        27
56.860        50
56.880        33
56.900        23
56.920        17
56.940        43
56.960        13
56.980        43
57.000        47
57.020        30
57.040        53
57.060        33
57.080        40
57.100        43
57.120        43
57.140        50
57.160        40
57.180        13
57.200        33
57.220        60
57.240        47
57.260        37
57.280        33
57.300        37
57.320        33
57.340        50
57.360        27
57.380        33
57.400        53
57.420        50
57.440        47
57.460        33
57.480        43
57.500        43
57.520        30
57.540        30
57.560        30
57.580        33
57.600        43
57.620        27
57.640        33
57.660        30
57.680        30
57.700        40
57.720        27
57.740        20
57.760        20
57.780        23
57.800        23
57.820        30
57.840        37
57.860        17
57.880        40
57.900        37
57.920        33
57.940        43
57.960        40
57.980        30
58.000        23
58.020        33
58.040        17
58.060        33
58.080        57
58.100        17
58.120        40
58.140        17
58.160        23
58.180        47
58.200        53
58.220        40
58.240        20
58.260        27
58.280        30
58.300        40
58.320        33
58.340        53
58.360        10
58.380        30
58.400        40
58.420        37
58.440        30
58.460        27
58.480        23
58.500        30
58.520        23
58.540        40
58.560        27
58.580        40
58.600        23
58.620        40
58.640        50
58.660        37
58.680        23
58.700        50
58.720        33
58.740        23
58.760        43
58.780        53
58.800        23
58.820        50
58.840        17
58.860        27
58.880        27
58.900        37
58.920        47
58.940        43
58.960        20
58.980        53
59.000        33
59.020        30
59.040        27
59.060        30
59.080        20
59.100        20
59.120        17
59.140        33
59.160        40
59.180        30
59.200        33
59.220        40
59.240        50
59.260        60
59.280        27
59.300        47
59.320        17
59.340        27
59.360        60
59.380        23
59.400        60
59.420        40
59.440        50
59.460        37
59.480        37
59.500        37
59.520        23
59.540        37
59.560        50
59.580        40
59.600        33
59.620        43
59.640        23
59.660        37
59.680        23
59.700         7
59.720        30
59.740        30
59.760        33
59.780        53
59.800        23
59.820        23
59.840        47
59.860        30
59.880        20
59.900        57
59.920        37
59.940        23
59.960        27
59.980        40
60.000        40
