20.000        50
20.020        27
20.040        37
20.060        37
20.080        53
20.100        33
20.120        23
20.140        37
20.160        37
20.180        37
20.200        40
20.220        33
20.240        40
20.260        47
20.280        60
20.300        50
20.320        37
20.340        50
20.360        47
20.380        30
20.400        40
20.420        27
20.440        20
20.460        30
20.480        37
20.500        37
20.520        33
20.540        43
20.560        43
20.580        27
20.600        53
20.620        33
20.640        33
20.660        63
20.680        40
20.700        37
20.720        40
20.740        30
20.760        40
20.780        30
20.800        50
20.820        30
20.840        30
20.860        33
20.880        33
20.900        30
20.920        27
20.940        43
20.960        33
20.980        23
21.000        47
21.020        50
21.040        40
21.060        33
21.080        53
21.100        27
21.120        27
21.140        60
21.160        40
21.180        23
21.200        47
21.220        20
21.240        37
21.260        23
21.280        63
21.300        47
21.320        53
21.340        33
21.360        43
21.380        13
21.400        20
21.420        33
21.440        27
21.460        23
21.480        33
21.500        23
21.520        47
21.540        30
21.560        47
21.580        33
21.600        30
21.620        37
21.640        50
21.660        37
21.680        33
21.700        47
21.720        47
21.740        17
21.760        27
21.780        20
21.800        40
21.820        50
21.840        57
21.860        53
21.880        23
21.900        47
21.920        37
21.940        27
21.960        43
21.980        57
22.000        83
22.020        27
22.040        30
22.060        37
22.080        30
22.100        23
22.120        20
22.140        17
22.160        47
22.180        30
22.200        27
22.220        30
22.240        13
22.260        20
22.280        37
22.300        50
22.320        57
22.340        10
22.360        40
22.380        43
22.400        27
22.420        40
22.440        33
22.460        43
22.480        40
22.500        37
22.520        27
22.540        30
22.560        33
22.580        47
22.600        23
22.620        23
22.640        30
22.660        50
22.680        40
22.700        53
22.720        37
22.740        17
22.760        23
22.780        27
22.800        30
22.820        40
22.840        27
22.860        27
22.880        43
22.900        27
22.920        33
22.940        20
22.960        30
22.980        37
23.000        53
23.020        27
23.040        30
23.060        40
23.080        27
23.100        33
23.120        33
23.140        33
23.160        33
23.180        30
23.200        57
23.220        37
23.240        27
23.260        43
23.280        37
23.300        70
23.320        40
23.340        57
23.360        20
23.380        27
23.400        23
23.420        27
23.440        23
23.460        23
23.480        23
23.500        33
23.520        47
23.540        47
23.560        13
23.580        37
23.600        23
23.620        30
23.640        33
23.660        47
23.680        30
23.700        27
23.720        27
23.740        17
23.760        27
23.780        17
23.800        40
23.820        33
23.840        30
23.860        37
23.880        23
23.900        23
23.920        27
23.940        40
23.960        40
23.980        43
24.000        23
24.020        27
24.040        23
24.060        47
24.080        33
24.100        27
24.120        27
24.140        30
24.160        40
24.180        30
24.200        10
24.220        40
24.240        43
24.260        40
24.280        27
24.300        37
24.320        27
24.340        30
24.360        17
24.380        23
24.400        13
24.420        27
24.440        43
24.460        27
24.480        27
24.500        23
24.520        57
24.540        30
24.560        13
24.580        20
24.600        37
24.620        47
24.640        17
24.660        23
24.680        17
24.700        30
24.720        37
24.740        27
24.760        20
24.780        27
24.800        33
24.820        30
24.840        33
24.860        50
24.880        13
24.900        47
24.920        13
24.940        37
24.960        23
24.980        20
25.000        40
25.020        27
25.040        20
25.060        20
25.080        23
25.100        50
25.120        40
25.140        17
25.160        27
25.180        23
25.200        30
25.220        37
25.240        23
25.260        13
25.280        33
25.300        30
25.320        47
25.340        33
25.360        17
25.380        53
25.400        37
25.420        20
25.440        33
25.460        43
25.480        27
25.500        27
25.520        27
25.540        20
25.560        40
25.580        30
25.600        27
25.620        30
25.640        33
25.660        10
25.680        33
25.700        23
25.720        27
25.740        40
25.760        30
25.780        33
25.800        33
25.820        30
25.840        27
25.860        57
25.880        37
25.900        30
25.920        37
25.940        20
25.960        30
25.980        23
26.000        23
26.020         7
26.040        23
26.060        33
26.080        23
26.100        40
26.120        27
26.140        27
26.160        17
26.180        30
26.200        37
26.220        37
26.240        17
26.260        27
26.280        20
26.300        13
26.320        33
26.340        27
26.360        47
26.380        30
26.400        30
26.420        37
26.440        30
26.460        27
26.480        33
26.500        23
26.520        40
26.540        20
26.560        27
26.580        37
26.600        27
26.620         7
26.640        23
26.660        33
26.680        30
26.700        57
26.720        47
26.740        23
26.760        17
26.780        33
26.800        37
26.820        30
26.840        17
26.860        40
26.880        33
26.900        27
26.920        17
26.940        13
26.960        17
26.980        33
27.000        40
27.020        20
27.040        23
27.060        13
27.080        40
27.100        10
27.120        23
27.140        23
27.160        20
27.180        17
27.200        23
27.220        27
27.240        43
27.260        13
27.280        30
27.300        20
27.320        23
27.340        30
27.360        23
27.380        53
27.400        40
27.420        33
27.440        23
27.460        23
27.480        17
27.500        30
27.520        40
27.540        27
27.560        20
27.580        10
27.600        33
27.620        37
27.640        30
27.660        20
27.680        20
27.700        17
27.720        30
27.740        30
27.760        20
27.780        40
27.800        30
27.820        50
27.840        40
27.860        30
27.880        23
27.900        17
27.920        23
27.940        37
27.960        23
27.980        23
28.000        33
28.020        33
28.040        27
28.060        23
28.080        30
28.100        43
28.120        50
28.140        23
28.160        40
28.180        20
28.200        27
28.220        37
28.240        20
28.260        37
28.280        27
28.300        17
28.320        33
28.340        33
28.360        33
28.380        20
28.400        40
28.420        23
28.440        37
28.460        23
28.480        17
28.500        40
28.520        27
28.540        30
28.560        37
28.580        23
28.600        20
28.620        27
28.640        33
28.660        30
28.680        40
28.700         7
28.720        13
28.740        10
28.760        13
28.780        27
28.800        33
28.820        30
28.840        17
28.860        17
28.880        27
28.900        27
28.920        17
28.940        37
28.960        20
28.980        37
29.000        20
29.020        20
29.040        30
29.060        40
29.080        33
29.100        30
29.120        40
29.140        13
29.160        17
29.180        30
29.200        23
29.220        27
29.240        17
29.260        17
29.280        23
29.300        30
29.320        37
29.340         7
29.360        27
29.380        30
29.400        23
29.420        37
29.440        27
29.460        37
29.480        20
29.500        30
29.520        23
29.540        27
29.560        27
29.580        30
29.600        13
29.620        33
29.640        37
29.660        30
29.680        37
29.700        33
29.720        27
29.740        43
29.760        13
29.780        43
29.800        27
29.820        33
29.840        17
29.860        33
29.880        30
29.900        23
29.920        30
29.940        33
29.960        30
29.980        20
30.000        27
30.020        40
30.040        20
30.060        20
30.080        37
30.100        27
30.120        37
30.140        40
30.160        23
30.180        40
30.200        27
30.220        20
30.240        23
30.260        17
30.280        43
30.300        30
30.320        37
30.340        40
30.360        27
30.380        60
30.400        13
30.420        37
30.440        30
30.460        43
30.480        37
30.500        33
30.520        20
30.540        47
30.560        33
30.580        43
30.600        47
30.620        33
30.640        23
30.660        40
30.680        87
30.700        27
30.720        30
30.740        33
30.760        43
30.780        60
30.800        30
30.820        40
30.840        53
30.860        47
30.880        70
30.900        57
30.920        90
30.940        97
30.960       100
30.980       120
31.000       163
31.020       213
31.040       220
31.060       333
31.080       327
31.100       463
31.120       556
31.140       736
31.160       976
31.180      1066
31.200      1206
31.220      1519
31.240      1383
31.260      1429
31.280      1223
31.300      1103
31.320       856
31.340       580
31.360       466
31.380       320
31.400       233
31.420       193
31.440       127
31.460       163
31.480        90
31.500        60
31.520       103
31.540        90
31.560        63
31.580        80
31.600        33
31.620        47
31.640        47
31.660        60
31.680        40
31.700        60
31.720        47
31.740        27
31.760        27
31.780        40
31.800        43
31.820        53
31.840        30
31.860        23
31.880        20
31.900        23
31.920        53
31.940        23
31.960        27
31.980        33
32.000        33
32.020        40
32.040        40
32.060        43
32.080        33
32.100        20
32.120        40
32.140        30
32.160        20
32.180        23
32.200        37
32.220        37
32.240        43
32.260        47
32.280        27
32.300        33
32.320        27
32.340        13
32.360        23
32.380        17
32.400        33
32.420        17
32.440        37
32.460        30
32.480        17
32.500        27
32.520        33
32.540        20
32.560        43
32.580        37
32.600        33
32.620        27
32.640        33
32.660        30
32.680        17
32.700        33
32.720        17
32.740        33
32.760        43
32.780        20
32.800        33
32.820        43
32.840        27
32.860        23
32.880        33
32.900        17
32.920        37
32.940        20
32.960        23
32.980        10
33.000        20
33.020        13
33.040        33
33.060        47
33.080        17
33.100        27
33.120        17
33.140        47
33.160        23
33.180        23
33.200        23
33.220        13
33.240        40
33.260        37
33.280        37
33.300        17
33.320        27
33.340        17
33.360        13
33.380        20
33.400        23
33.420        23
33.440        20
33.460        17
33.480        30
33.500        30
33.520        37
33.540        37
33.560        17
33.580        17
33.600        23
33.620        17
33.640        17
33.660        20
33.680        33
33.700        20
33.720        23
33.740        37
33.760        27
33.780        40
33.800        37
33.820        33
33.840        30
33.860        23
33.880        37
33.900        30
33.920        40
33.940        53
33.960        50
33.980        33
34.000        63
34.020        60
34.040        73
34.060        40
34.080        67
34.100        57
34.120        57
34.140        63
34.160        63
34.180        37
34.200        37
34.220        70
34.240        53
34.260        60
34.280        40
34.300        30
34.320        20
34.340        50
34.360        23
34.380        30
34.400        20
34.420        33
34.440        23
34.460        37
34.480        27
34.500        33
34.520        27
34.540        20
34.560        40
34.580        23
34.600        20
34.620        13
34.640        27
34.660        23
34.680        30
34.700        17
34.720        27
34.740         3
34.760        20
34.780        10
34.800        57
34.820        37
34.840        20
34.860        13
34.880        17
34.900        13
34.920        33
34.940        23
34.960        33
34.980        17
35.000        33
35.020        23
35.040        30
35.060        27
35.080        13
35.100        30
35.120        30
35.140        33
35.160        23
35.180        13
35.200        33
35.220        33
35.240        20
35.260         3
35.280        20
35.300        20
35.320        13
35.340        33
35.360        27
35.380        17
35.400        23
35.420        20
35.440        23
35.460        33
35.480        37
35.500         7
35.520        27
35.540        17
35.560        23
35.580        37
35.600        23
35.620        20
35.640        17
35.660        20
35.680        23
35.700        23
35.720        20
35.740        13
35.760        13
35.780        20
35.800        20
35.820        17
35.840        13
35.860        30
35.880        17
35.900        23
35.920        17
35.940        40
35.960        20
35.980        33
36.000        17
36.020        10
36.040        13
36.060        23
36.080         0
36.100        30
36.120        10
36.140        33
36.160        23
36.180        20
36.200        20
36.220        17
36.240        20
36.260        27
36.280        13
36.300        43
36.320        33
36.340        30
36.360        20
36.380        30
36.400        17
36.420        27
36.440        23
36.460        17
36.480        37
36.500        50
36.520        37
36.540        20
36.560        27
36.580        10
36.600        23
36.620        13
36.640        37
36.660        23
36.680        40
36.700        30
36.720        20
36.740        27
36.760        23
36.780        17
36.800        17
36.820        27
36.840        30
36.860        20
36.880        27
36.900        10
36.920        17
36.940        33
36.960        17
36.980        17
37.000        30
37.020        20
37.040        13
37.060        30
37.080        27
37.100        33
37.120        23
37.140        20
37.160        20
37.180        10
37.200        27
37.220        10
37.240        17
37.260        17
37.280        17
37.300        27
37.320        17
37.340        10
37.360        13
37.380        20
37.400        17
37.420        27
37.440        20
37.460        13
37.480        20
37.500        27
37.520        20
37.540        27
37.560        33
37.580        27
37.600        10
37.620         7
37.640        13
37.660         7
37.680        13
37.700        30
37.720        27
37.740        23
37.760        30
37.780        23
37.800        23
37.820        47
37.840        17
37.860        23
37.880        23
37.900        20
37.920        37
37.940        23
37.960        17
37.980        17
38.000        40
38.020        40
38.040        23
38.060        30
38.080        30
38.100        33
38.120        23
38.140        27
38.160        20
38.180        30
38.200        20
38.220        37
38.240        23
38.260        17
38.280        27
38.300        43
38.320        30
38.340        30
38.360        50
38.380        30
38.400        47
38.420        30
38.440        60
38.460        27
38.480        47
38.500        67
38.520        73
38.540        73
38.560        63
38.580        77
38.600        20
38.620        43
38.640        37
38.660        23
38.680        33
38.700        23
38.720        13
38.740        23
38.760        53
38.780        33
38.800        20
38.820        27
38.840        17
38.860        33
38.880        20
38.900        37
38.920        20
38.940        20
38.960        20
38.980        20
39.000        13
39.020        10
39.040        17
39.060        17
39.080        37
39.100        30
39.120        13
39.140        27
39.160        27
39.180        17
39.200        23
39.220        20
39.240        17
39.260        10
39.280        23
39.300        23
39.320        10
39.340        20
39.360        20
39.380        17
39.400        20
39.420        23
39.440        17
39.460        10
39.480        10
39.500        17
39.520        23
39.540        23
39.560        13
39.580        17
39.600         3
39.620        20
39.640        20
39.660        30
39.680        23
39.700        10
39.720        17
39.740        27
39.760        30
39.780        23
39.800        13
39.820        23
39.840         3
39.860        10
39.880        33
39.900        10
39.920        17
39.940        20
39.960        17
39.980        30
40.000        20
40.020        20
40.040        27
40.060        27
40.080         7
40.100        23
40.120        20
40.140        23
40.160        23
40.180        23
40.200        20
40.220        10
40.240        20
40.260        23
40.280        17
40.300        27
40.320        50
40.340        13
40.360        13
40.380        13
40.400         7
40.420        17
40.440        23
40.460        27
40.480         7
40.500        33
40.520        10
40.540        10
40.560        30
40.580        20
40.600        13
40.620        27
40.640        30
40.660        27
40.680        33
40.700        30
40.720        17
40.740        23
40.760        23
40.780        17
40.800        17
40.820        20
40.840        17
40.860        20
40.880        17
40.900        27
40.920        10
40.940        23
40.960        17
40.980         3
41.000        27
41.020        17
41.040        20
41.060         7
41.080        10
41.100         7
41.120        10
41.140        23
41.160        17
41.180        10
41.200        10
41.220        13
41.240        17
41.260        17
41.280        10
41.300        17
41.320        17
41.340        23
41.360        23
41.380        13
41.400        33
41.420        23
41.440        20
41.460        13
41.480        20
41.500        33
41.520        10
41.540        33
41.560        27
41.580        30
41.600        23
41.620        23
41.640        27
41.660        40
41.680        50
41.700        40
41.720        43
41.740        50
41.760        30
41.780        30
41.800        47
41.820        23
41.840        13
41.860        23
41.880        10
41.900        17
41.920        27
41.940        23
41.960        20
41.980        17
42.000         3
42.020        20
42.040        10
42.060        20
42.080        20
42.100        10
42.120        27
42.140        37
42.160        23
42.180        17
42.200        17
42.220         3
42.240        23
42.260        10
42.280        17
42.300        20
42.320        17
42.340         7
42.360        17
42.380        13
42.400        10
42.420        17
42.440        30
42.460        23
42.480        17
42.500        17
42.520        17
42.540        23
42.560        20
42.580        10
42.600        30
42.620        13
42.640        13
42.660        17
42.680        13
42.700        23
42.720        27
42.740        13
42.760        13
42.780        20
42.800        10
42.820         7
42.840         3
42.860        17
42.880        13
42.900        20
42.920        20
42.940        23
42.960        30
42.980        13
43.000        40
43.020        20
43.040        23
43.060        33
43.080        13
43.100        20
43.120        13
43.140        13
43.160        17
43.180        17
43.200        27
43.220        17
43.240        20
43.260        17
43.280        13
43.300        13
43.320        17
43.340        10
43.360        20
43.380        20
43.400         3
43.420        13
43.440        17
43.460        20
43.480         3
43.500        20
43.520        17
43.540        27
43.560        20
43.580        30
43.600         3
43.620        20
43.640        10
43.660         7
43.680        33
43.700         3
43.720         7
43.740        17
43.760        17
43.780        10
43.800        13
43.820        33
43.840        23
43.860        23
43.880        20
43.900        13
43.920        13
43.940        10
43.960        13
43.980        13
44.000        10
44.020        27
44.040         7
44.060        13
44.080        17
44.100        17
44.120         7
44.140        20
44.160         7
44.180        13
44.200        20
44.220        17
44.240        17
44.260        43
44.280        27
44.300        23
44.320        10
44.340        20
44.360         3
44.380        13
44.400        17
44.420        10
44.440        13
44.460        23
44.480        13
44.500        30
44.520        30
44.540        20
44.560        13
44.580         0
44.600        23
44.620        17
44.640        23
44.660        33
44.680        17
44.700        23
44.720        33
44.740        33
44.760        17
44.780        23
44.800        10
44.820        23
44.840        20
44.860        43
44.880        37
44.900        20
44.920        17
44.940        17
44.960        13
44.980        40
45.000        13
45.020        17
45.040        23
45.060        23
45.080        13
45.100        20
45.120         3
45.140        10
45.160        33
45.180        23
45.200        17
45.220        17
45.240        20
45.260        13
45.280        17
45.300        33
45.320        17
45.340        17
45.360        23
45.380        10
45.400        23
45.420         7
45.440        13
45.460        17
45.480        10
45.500        17
45.520        10
45.540        13
45.560        17
45.580        27
45.600        20
45.620        13
45.640        10
45.660         7
45.680        23
45.700        27
45.720        23
45.740        13
45.760        23
45.780        13
45.800        13
45.820        17
45.840        10
45.860        27
45.880        37
45.900        10
45.920        17
45.940        17
45.960        23
45.980        13
46.000        10
46.020         7
46.040        30
46.060        13
46.080        27
46.100        17
46.120         3
46.140        10
46.160        23
46.180        27
46.200        27
46.220         7
46.240        17
46.260        20
46.280        20
46.300        23
46.320        30
46.340        27
46.360        33
46.380        13
46.400        13
46.420        20
46.440        13
46.460        13
46.480        13
46.500        30
46.520        17
46.540        17
46.560        17
46.580        10
46.600        20
46.620        20
46.640        13
46.660        13
46.680        20
46.700        27
46.720        13
46.740        17
46.760        20
46.780        13
46.800        10
46.820        10
46.840         3
46.860        27
46.880        20
46.900         3
46.920        17
46.940        17
46.960         7
46.980        30
47.000        10
47.020        37
47.040        17
47.060        20
47.080        23
47.100        10
47.120         7
47.140        23
47.160        23
47.180        20
47.200        13
47.220        27
47.240        17
47.260        23
47.280        17
47.300        10
47.320        33
47.340        17
47.360        13
47.380        10
47.400        10
47.420        10
47.440        10
47.460        10
47.480        13
47.500        37
47.520        13
47.540        30
47.560        10
47.580        13
47.600        10
47.620         7
47.640         7
47.660        10
47.680        23
47.700         0
47.720        13
47.740         7
47.760        27
47.780        17
47.800        13
47.820        27
47.840        23
47.860        10
47.880        30
47.900        13
47.920        10
47.940        10
47.960        13
47.980         7
48.000        13
48.020        23
48.040        13
48.060        20
48.080        13
48.100        27
48.120        27
48.140        13
48.160        10
48.180         3
48.200        13
48.220        17
48.240        17
48.260         7
48.280        13
48.300         0
48.320         7
48.340        23
48.360        20
48.380        23
48.400        17
48.420        20
48.440        27
48.460        23
48.480        17
48.500         3
48.520        10
48.540        17
48.560        13
48.580        13
48.600        10
48.620         7
48.640        10
48.660        20
48.680         3
48.700        10
48.720        10
48.740        20
48.760        17
48.780        17
48.800         7
48.820        20
48.840         7
48.860        20
48.880        23
48.900        23
48.920        13
48.940        13
48.960        23
48.980        20
49.000        13
49.020        10
49.040        13
49.060        23
49.080        27
49.100        20
49.120        30
49.140        10
49.160        23
49.180        13
49.200        13
49.220        17
49.240         7
49.260         7
49.280        37
49.300         7
49.320        17
49.340        30
49.360        33
49.380        20
49.400        23
49.420        20
49.440        30
49.460        10
49.480        23
49.500        13
49.520        17
49.540        13
49.560        17
49.580        10
49.600        13
49.620        13
49.640        20
49.660        27
49.680        20
49.700        20
49.720        17
49.740         7
49.760        20
49.780        20
49.800        27
49.820        20
49.840        23
49.860        23
49.880        33
49.900        17
49.920        27
49.940        10
49.960        10
49.980        23
50.000        23
50.020        17
50.040        20
50.060        20
50.080        13
50.100        17
50.120        23
50.140         7
50.160        10
50.180        23
50.200        13
50.220        13
50.240        20
50.260        10
50.280        17
50.300        10
50.320        40
50.340        20
50.360        30
50.380        17
50.400        20
50.420         7
50.440        17
50.460         7
50.480         7
50.500        13
50.520        17
50.540        17
50.560        17
50.580         7
50.600        17
50.620        13
50.640        20
50.660        13
50.680        17
50.700        10
50.720         7
50.740         3
50.760        10
50.780        13
50.800        17
50.820        20
50.840        13
50.860        13
50.880        23
50.900        23
50.920         3
50.940        13
50.960         0
50.980         3
51.000        17
51.020        10
51.040        20
51.060        13
51.080         7
51.100        27
51.120         7
51.140         3
51.160        10
51.180        17
51.200         7
51.220        10
51.240        13
51.260        23
51.280        27
51.300        27
51.320        17
51.340        13
51.360         7
51.380        10
51.400         7
51.420         3
51.440        20
51.460        30
51.480         7
51.500        10
51.520        10
51.540        13
51.560        17
51.580        13
51.600        13
51.620        13
51.640        33
51.660        17
51.680        10
51.700        27
51.720        23
51.740        13
51.760        17
51.780        17
51.800        17
51.820        20
51.840        17
51.860        40
51.880        20
51.900        23
51.920        23
51.940        20
51.960        23
51.980        17
52.000        17
52.020        10
52.040        20
52.060        13
52.080        17
52.100        10
52.120        37
52.140        10
52.160         7
52.180        23
52.200        20
52.220        10
52.240        10
52.260        17
52.280        27
52.300        17
52.320         7
52.340        17
52.360        13
52.380         7
52.400        23
52.420        23
52.440        13
52.460         7
52.480        13
52.500        13
52.520        13
52.540        17
52.560        53
52.580        37
52.600        53
52.620        50
52.640        27
52.660        23
52.680        33
52.700        17
52.720        43
52.740        43
52.760        40
52.780        27
52.800        27
52.820        17
52.840        17
52.860        10
52.880        10
52.900        23
52.920        20
52.940        30
52.960         3
52.980        10
53.000        27
53.020         7
53.040        13
53.060         7
53.080        13
53.100        23
53.120        20
53.140         3
53.160        23
53.180        27
53.200        17
53.220         7
53.240        30
53.260        27
53.280        20
53.300        10
53.320         3
53.340        23
53.360        27
53.380        20
53.400        23
53.420        20
53.440         3
53.460        20
53.480         3
53.500        13
53.520        10
53.540        20
53.560        13
53.580        17
53.600        20
53.620        23
53.640        37
53.660        17
53.680        13
53.700        23
53.720        27
53.740        13
53.760        23
53.780        23
53.800        27
53.820        10
53.840        37
53.860         3
53.880        27
53.900        23
53.920        27
53.940        10
53.960        13
53.980        13
54.000        23
54.020        30
54.040        23
54.060        10
54.080        17
54.100        27
54.120        27
54.140        23
54.160        20
54.180        27
54.200        30
54.220        33
54.240         7
54.260        13
54.280        13
54.300        20
54.320        20
54.340        23
54.360        33
54.380        17
54.400        30
54.420        30
54.440        17
54.460        17
54.480        30
54.500        20
54.520        10
54.540         7
54.560        27
54.580        20
54.600        10
54.620        23
54.640         3
54.660        27
54.680        23
54.700        10
54.720        27
54.740        10
54.760        20
54.780        23
54.800        10
54.820        53
54.840        23
54.860        20
54.880        23
54.900        33
54.920        23
54.940        20
54.960        47
54.980        30
55.000        30
55.020        27
55.040        17
55.060        13
55.080        33
55.100        37
55.120        40
55.140        47
55.160        50
55.180        50
55.200        40
55.220        83
55.240        63
55.260        77
55.280        83
55.300        63
55.320       133
55.340       150
55.360       140
55.380       210
55.400       180
55.420       267
55.440       353
55.460       436
55.480       543
55.500       753
55.520       846
55.540       873
55.560       920
55.580       840
55.600       966
55.620       766
55.640       773
55.660       650
55.680       703
55.700       593
55.720       613
55.740       530
55.760       450
55.780       360
55.800       340
55.820       243
55.840       177
55.860       140
55.880       153
55.900       117
55.920        77
55.940       110
55.960        87
55.980        70
56.000        50
56.020        57
56.040        53
56.060        27
56.080        27
56.100        47
56.120        43
56.140        40
56.160        33
56.180        33
56.200        37
56.220        33
56.240        13
56.260        47
56.280        20
56.300        17
56.320        23
56.340        30
56.360        27
56.380        17
56.400        30
56.420        13
56.440        13
56.460        10
56.480        23
56.500        30
56.520        30
56.540        30
56.560        23
56.580        17
56.600        33
56.620        27
56.640        30
56.660        10
56.680        13
56.700        17
56.720        20
56.740        23
56.760        13
56.780        20
56.800        23
56.820        17
56.840        27
56.860        27
56.880        10
56.900        13
56.920        13
56.940        13
56.960        20
56.980        27
57.000        17
57.020        17
57.040        13
57.060        27
57.080        10
57.100        23
57.120        20
57.140        23
57.160        27
57.180        20
57.200        13
57.220        13
57.240        10
57.260        20
57.280        17
57.300        40
57.320         7
57.340        23
57.360        17
57.380        17
57.400        23
57.420        17
57.440        30
57.460        23
57.480        43
57.500        43
57.520        47
57.540        57
57.560        37
57.580        43
57.600        37
57.620        27
57.640        23
57.660        47
57.680        40
57.700        27
57.720        23
57.740        23
57.760        20
57.780        17
57.800        23
57.820        10
57.840        13
57.860        27
57.880        17
57.900        20
57.920        13
57.940        10
57.960        20
57.980        17
58.000        17
58.020        27
58.040        17
58.060        23
58.080        10
58.100        23
58.120        13
58.140         3
58.160        17
58.180        23
58.200        30
58.220        30
58.240        13
58.260         7
58.280        17
58.300        13
58.320        13
58.340        20
58.360        23
58.380        33
58.400        30
58.420        23
58.440        27
58.460        20
58.480        17
58.500        27
58.520         7
58.540        13
58.560        23
58.580        13
58.600        13
58.620        13
58.640        23
58.660        27
58.680        17
58.700        10
58.720        13
58.740        23
58.760        30
58.780        23
58.800        10
58.820        17
58.840         3
58.860        23
58.880        20
58.900        17
58.920        23
58.940        13
58.960        20
58.980         7
59.000        20
59.020        20
59.040        13
59.060        20
59.080        10
59.100        13
59.120        30
59.140         3
59.160         7
59.180        17
59.200        13
59.220        10
59.240         7
59.260        23
59.280        10
59.300         7
59.320        20
59.340        13
59.360        10
59.380        13
59.400         7
59.420        10
59.440        17
59.460         7
59.480        17
59.500         3
59.520        13
59.540        13
59.560         0
59.580        27
59.600        10
59.620        13
59.640        10
59.660         7
59.680        17
59.700        13
59.720         7
59.740        23
59.760        17
59.780        13
59.800        13
59.820        23
59.840        23
59.860        20
59.880         7
59.900        10
59.920        13
59.940        17
59.960        10
59.980         3
60.000         3
