20.000        40
20.020        40
20.040        53
20.060        40
20.080        70
20.100        47
20.120        40
20.140        30
20.160        53
20.180        40
20.200        50
20.220        57
20.240        33
20.260        33
20.280        53
20.300        50
20.320        47
20.340        43
20.360        47
20.380        40
20.400        53
20.420        47
20.440        50
20.460        17
20.480        30
20.500        67
20.520        53
20.540        53
20.560        47
20.580        47
20.600        33
20.620        60
20.640        40
20.660        33
20.680        50
20.700        47
20.720        53
20.740        40
20.760        30
20.780        37
20.800        47
20.820        50
20.840        43
20.860        30
20.880        40
20.900        17
20.920        50
20.940        40
20.960        53
20.980        27
21.000        43
21.020        47
21.040        33
21.060        57
21.080        37
21.100        40
21.120        53
21.140        47
21.160        30
21.180        50
21.200        47
21.220        27
21.240        47
21.260        57
21.280        33
21.300        40
21.320        50
21.340        60
21.360        40
21.380        27
21.400        43
21.420        47
21.440        57
21.460        47
21.480        37
21.500        40
21.520        43
21.540        50
21.560        47
21.580        43
21.600        70
21.620        67
21.640        40
21.660        77
21.680        70
21.700       103
21.720       127
21.740       137
21.760       177
21.780       163
21.800       193
21.820       137
21.840       130
21.860       117
21.880       110
21.900        67
21.920        43
21.940        67
21.960        67
21.980        57
22.000        43
22.020        53
22.040        47
22.060        33
22.080        43
22.100        43
22.120        40
22.140        27
22.160        60
22.180        63
22.200        63
22.220        30
22.240        43
22.260        50
22.280        53
22.300        37
22.320        47
22.340        30
22.360        37
22.380        43
22.400        37
22.420        33
22.440        37
22.460        20
22.480        57
22.500        47
22.520        33
22.540        23
22.560        33
22.580        50
22.600        57
22.620        30
22.640        30
22.660        47
22.680        20
22.700        27
22.720        47
22.740        43
22.760        47
22.780        30
22.800        30
22.820        37
22.840        33
22.860        30
22.880        53
22.900        40
22.920        30
22.940        30
22.960        27
22.980        40
23.000        40
23.020        40
23.040        47
23.060        30
23.080        37
23.100        37
23.120        37
23.140        17
23.160        37
23.180        30
23.200        40
23.220        17
23.240        37
23.260        30
23.280        23
23.300        53
23.320        20
23.340        40
23.360        47
23.380        30
23.400        23
23.420        33
23.440        37
23.460        33
23.480        40
23.500        43
23.520        23
23.540        40
23.560        47
23.580        33
23.600        40
23.620        37
23.640        23
23.660        43
23.680        43
23.700        33
23.720        53
23.740        37
23.760        30
23.780        43
23.800        30
23.820        30
23.840        30
23.860        30
23.880        43
23.900        37
23.920        47
23.940        40
23.960        47
23.980        67
24.000        33
24.020        40
24.040        57
24.060        30
24.080        43
24.100        23
24.120        13
24.140        37
24.160        27
24.180        40
24.200        33
24.220        47
24.240        37
24.260        53
24.280        33
24.300        23
24.320        30
24.340        27
24.360        30
24.380        17
24.400        23
24.420        37
24.440        30
24.460        27
24.480        37
24.500        23
24.520        43
24.540        40
24.560        33
24.580        23
24.600        53
24.620        37
24.640        23
24.660        33
24.680        30
24.700        40
24.720        33
24.740        30
24.760        47
24.780        17
24.800        50
24.820        47
24.840        27
24.860        27
24.880        43
24.900        40
24.920        30
24.940        23
24.960        47
24.980        57
25.000        37
25.020        33
25.040        43
25.060        23
25.080        43
25.100        13
25.120        40
25.140        13
25.160        40
25.180        30
25.200        20
25.220        43
25.240        37
25.260        37
25.280        30
25.300        33
25.320        17
25.340        27
25.360        37
25.380        10
25.400        40
25.420        40
25.440        27
25.460        47
25.480        50
25.500        40
25.520        27
25.540        27
25.560        30
25.580        43
25.600        70
25.620        43
25.640        30
25.660        40
25.680        30
25.700        23
25.720        27
25.740        47
25.760        30
25.780        40
25.800        30
25.820        40
25.840        23
25.860        17
25.880        23
25.900        33
25.920        43
25.940        27
25.960        13
25.980        20
26.000        27
26.020        20
26.040        30
26.060        63
26.080        43
26.100        27
26.120        23
26.140        23
26.160        30
26.180        23
26.200        23
26.220        60
26.240        37
26.260        27
26.280        50
26.300        43
26.320        37
26.340        17
26.360        20
26.380        43
26.400        17
26.420        40
26.440        40
26.460        13
26.480        20
26.500        23
26.520        33
26.540        33
26.560        50
26.580        33
26.600        23
26.620        40
26.640        10
26.660        23
26.680        50
26.700        23
26.720        47
26.740        33
26.760        33
26.780        30
26.800        17
26.820        30
26.840        17
26.860        57
26.880        57
26.900        33
26.920        37
26.940        30
26.960        23
26.980        20
27.000        57
27.020        43
27.040        60
27.060        47
27.080        20
27.100        43
27.120        30
27.140        27
27.160        33
27.180        43
27.200        27
27.220        43
27.240        27
27.260        10
27.280        43
27.300        27
27.320        37
27.340        30
27.360        23
27.380        40
27.400        27
27.420        33
27.440        17
27.460        43
27.480        43
27.500        30
27.520        33
27.540        20
27.560        13
27.580        37
27.600        47
27.620        33
27.640        13
27.660        47
27.680        27
27.700        20
27.720        40
27.740        13
27.760        20
27.780        33
27.800        47
27.820        37
27.840        77
27.860        40
27.880        73
27.900        50
27.920        83
27.940        57
27.960        37
27.980        40
28.000        53
28.020        40
28.040        27
28.060        23
28.080        40
28.100        17
28.120        43
28.140        47
28.160        20
28.180        33
28.200        27
28.220        33
28.240        30
28.260        33
28.280        33
28.300        17
28.320        40
28.340         7
28.360        33
28.380        20
28.400        13
28.420        17
28.440        17
28.460        20
28.480        37
28.500        20
28.520        20
28.540        30
28.560        47
28.580        27
28.600        33
28.620        30
28.640        30
28.660        37
28.680        33
28.700        23
28.720        47
28.740        30
28.760        60
28.780        30
28.800        63
28.820        20
28.840        20
28.860        27
28.880        30
28.900        30
28.920        10
28.940        47
28.960        20
28.980        47
29.000        33
29.020        27
29.040        50
29.060        17
29.080        23
29.100        30
29.120        27
29.140        33
29.160        50
29.180        17
29.200        37
29.220        53
29.240        40
29.260        43
29.280        33
29.300        43
29.320        23
29.340        10
29.360        33
29.380        47
29.400        33
29.420        37
29.440        43
29.460        40
29.480        50
29.500        20
29.520        40
29.540        40
29.560        47
29.580        37
29.600        40
29.620        40
29.640        40
29.660        37
29.680        20
29.700        47
29.720        40
29.740        10
29.760        37
29.780        20
29.800        70
29.820        23
29.840        33
29.860        37
29.880        40
29.900        47
29.920        33
29.940        47
29.960        53
29.980        73
30.000        67
30.020        57
30.040        37
30.060        37
30.080        43
30.100        50
30.120        70
30.140        57
30.160        50
30.180        50
30.200        77
30.220        37
30.240        63
30.260        57
30.280        50
30.300        43
30.320        33
30.340        63
30.360        33
30.380        60
30.400        33
30.420        70
30.440        57
30.460        60
30.480        50
30.500        57
30.520        67
30.540        63
30.560        87
30.580        50
30.600        70
30.620        77
30.640        80
30.660       143
30.680       110
30.700       200
30.720       207
30.740       240
30.760       313
30.780       483
30.800       506
30.820       733
30.840      1043
30.860      1299
30.880      1633
30.900      2252
30.920      3099
30.940      4062
30.960      4651
30.980      4685
31.000      4718
31.020      3978
31.040      3022
31.060      2452
31.080      1816
31.100      1286
31.120       703
31.140       450
31.160       287
31.180       207
31.200       193
31.220       150
31.240        87
31.260        63
31.280       120
31.300       103
31.320        87
31.340        70
31.360        63
31.380        67
31.400        60
31.420        53
31.440        40
31.460        60
31.480        77
31.500        53
31.520        47
31.540        43
31.560        63
31.580        37
31.600        60
31.620        43
31.640        47
31.660        50
31.680        43
31.700        57
31.720        37
31.740        57
31.760        60
31.780        53
31.800        53
31.820        33
31.840        37
31.860        40
31.880        33
31.900        40
31.920        33
31.940        33
31.960        43
31.980        47
32.000        40
32.020        63
32.040        33
32.060        63
32.080        30
32.100        47
32.120        33
32.140        50
32.160        40
32.180        50
32.200        33
32.220        37
32.240        40
32.260        53
32.280        43
32.300        37
32.320        50
32.340        37
32.360        50
32.380        27
32.400        33
32.420        40
32.440        47
32.460        43
32.480        67
32.500        40
32.520        30
32.540        40
32.560        33
32.580        37
32.600        70
32.620        27
32.640        50
32.660        40
32.680        30
32.700        40
32.720        43
32.740        40
32.760        23
32.780        27
32.800        27
32.820        27
32.840        30
32.860        40
32.880        33
32.900        40
32.920        43
32.940        30
32.960        43
32.980        40
33.000        27
33.020        23
33.040        30
33.060        43
33.080        23
33.100        37
33.120        30
33.140        37
33.160        30
33.180        23
33.200        33
33.220        37
33.240        50
33.260        57
33.280        40
33.300        33
33.320        23
33.340        40
33.360        50
33.380        30
33.400        33
33.420        33
33.440        37
33.460        30
33.480        43
33.500        57
33.520        30
33.540        40
33.560        43
33.580        50
33.600        30
33.620        27
33.640        30
33.660        33
33.680        30
33.700        33
33.720        63
33.740        13
33.760        30
33.780        23
33.800        40
33.820        33
33.840        27
33.860        27
33.880        47
33.900        33
33.920        30
33.940        30
33.960        30
33.980        17
34.000        13
34.020        30
34.040        10
34.060        33
34.080        37
34.100        27
34.120        57
34.140        33
34.160        13
34.180        37
34.200        37
34.220        30
34.240        30
34.260        30
34.280        30
34.300        33
34.320        40
34.340        33
34.360        27
34.380        17
34.400        30
34.420        23
34.440        43
34.460        20
34.480        23
34.500        17
34.520        27
34.540        13
34.560        27
34.580        40
34.600        17
34.620        17
34.640        27
34.660        27
34.680        30
34.700        30
34.720        33
34.740        50
34.760        43
34.780        17
34.800        37
34.820        20
34.840        10
34.860        10
34.880        20
34.900        33
34.920        33
34.940        17
34.960        20
34.980        37
35.000        40
35.020        20
35.040        30
35.060        33
35.080        37
35.100        23
35.120        30
35.140        60
35.160        43
35.180        30
35.200        33
35.220        13
35.240        40
35.260        47
35.280        50
35.300        33
35.320        23
35.340        27
35.360        17
35.380        40
35.400        60
35.420        23
35.440        23
35.460        33
35.480        20
35.500        17
35.520        27
35.540        30
35.560        27
35.580        17
35.600        17
35.620        27
35.640        23
35.660        10
35.680        43
35.700        17
35.720        60
35.740        33
35.760        33
35.780        30
35.800        30
35.820        37
35.840        33
35.860        10
35.880        23
35.900        20
35.920        40
35.940        40
35.960        40
35.980        40
36.000        27
36.020        27
36.040        27
36.060        17
36.080        27
36.100         7
36.120        30
36.140        27
36.160        23
36.180        37
36.200        13
36.220        13
36.240        23
36.260        33
36.280        43
36.300        13
36.320        30
36.340        33
36.360        37
36.380        10
36.400        30
36.420        23
36.440        27
36.460         7
36.480        47
36.500        27
36.520        20
36.540        30
36.560        17
36.580        43
36.600        17
36.620        30
36.640        20
36.660        27
36.680        37
36.700        23
36.720        23
36.740        33
36.760        10
36.780        17
36.800        20
36.820        23
36.840        27
36.860        27
36.880        23
36.900        13
36.920        23
36.940        30
36.960        13
36.980        20
37.000        33
37.020        20
37.040        23
37.060        10
37.080        27
37.100        33
37.120        27
37.140        23
37.160        27
37.180        27
37.200        27
37.220        23
37.240        23
37.260        23
37.280        13
37.300        23
37.320        10
37.340        13
37.360         7
37.380        20
37.400        20
37.420        20
37.440        30
37.460        27
37.480        20
37.500        23
37.520        20
37.540        37
37.560        27
37.580        33
37.600        10
37.620        30
37.640        33
37.660        23
37.680        20
37.700        20
37.720        37
37.740        37
37.760        17
37.780        20
37.800        17
37.820        27
37.840        47
37.860        47
37.880        33
37.900        53
37.920        23
37.940        33
37.960        27
37.980        37
38.000        27
38.020        47
38.040        37
38.060        77
38.080        50
38.100        60
38.120       117
38.140       167
38.160       193
38.180       137
38.200       117
38.220       153
38.240       140
38.260       167
38.280       130
38.300       110
38.320        87
38.340        53
38.360        60
38.380        27
38.400        17
38.420        20
38.440        33
38.460        30
38.480         7
38.500        33
38.520        37
38.540        33
38.560        33
38.580        13
38.600        23
38.620        10
38.640        23
38.660        13
38.680        27
38.700        33
38.720        27
38.740        37
38.760        17
38.780        23
38.800        40
38.820        13
38.840        20
38.860        10
38.880        20
38.900        27
38.920        20
38.940        23
38.960        40
38.980        17
39.000        27
39.020        23
39.040        23
39.060        20
39.080        27
39.100        17
39.120        23
39.140        27
39.160        20
39.180        20
39.200        17
39.220        30
39.240        20
39.260        33
39.280        23
39.300        17
39.320        13
39.340        30
39.360        20
39.380        30
39.400        13
39.420        17
39.440        10
39.460        27
39.480        27
39.500        10
39.520        23
39.540        20
39.560        23
39.580        27
39.600        13
39.620        20
39.640        30
39.660        20
39.680        10
39.700        13
39.720        30
39.740        23
39.760        20
39.780        30
39.800        10
39.820        17
39.840        23
39.860        10
39.880        27
39.900        23
39.920        30
39.940        47
39.960        13
39.980        47
40.000        33
40.020        13
40.040        17
40.060        33
40.080        20
40.100        17
40.120        20
40.140        20
40.160        20
40.180        13
40.200        30
40.220        17
40.240        20
40.260        17
40.280        20
40.300        17
40.320        20
40.340        20
40.360        13
40.380        10
40.400        10
40.420        20
40.440        10
40.460         7
40.480        17
40.500        23
40.520        27
40.540        27
40.560        23
40.580        13
40.600        20
40.620        13
40.640        33
40.660        17
40.680        20
40.700        17
40.720        20
40.740        23
40.760        20
40.780        17
40.800        23
40.820        30
40.840        30
40.860        33
40.880        23
40.900        20
40.920        37
40.940        17
40.960        20
40.980        10
41.000        10
41.020        23
41.040        23
41.060        23
41.080        20
41.100        37
41.120        27
41.140        33
41.160        27
41.180        23
41.200        27
41.220        20
41.240        20
41.260        23
41.280        10
41.300        13
41.320        27
41.340        20
41.360        27
41.380        27
41.400        33
41.420        17
41.440        13
41.460        17
41.480        20
41.500        10
41.520        23
41.540        20
41.560        13
41.580        23
41.600        17
41.620        43
41.640        30
41.660        20
41.680        37
41.700        33
41.720        37
41.740        53
41.760        13
41.780        47
41.800        23
41.820        17
41.840        23
41.860        30
41.880        13
41.900        23
41.920        23
41.940        30
41.960        27
41.980        13
42.000         7
42.020        30
42.040        17
42.060        23
42.080        27
42.100        27
42.120         3
42.140        17
42.160        17
42.180        10
42.200        23
42.220        10
42.240        13
42.260        17
42.280        23
42.300        10
42.320        13
42.340        13
42.360        20
42.380        17
42.400        17
42.420        33
42.440        13
42.460        23
42.480        20
42.500        13
42.520        20
42.540        13
42.560        27
42.580        23
42.600        17
42.620        17
42.640        20
42.660         7
42.680        13
42.700        17
42.720        23
42.740        17
42.760        20
42.780        17
42.800        33
42.820        13
42.840        30
42.860        10
42.880        20
42.900        17
42.920        40
42.940        37
42.960        33
42.980        23
43.000        20
43.020        23
43.040        17
43.060        23
43.080        37
43.100        23
43.120        30
43.140        27
43.160        30
43.180        17
43.200        20
43.220        30
43.240        10
43.260        13
43.280        23
43.300        23
43.320        30
43.340        33
43.360        27
43.380        37
43.400        50
43.420        50
43.440        40
43.460        33
43.480        43
43.500        63
43.520        27
43.540        53
43.560        33
43.580        30
43.600        17
43.620        20
43.640        33
43.660        20
43.680        17
43.700        17
43.720        27
43.740        43
43.760        20
43.780        23
43.800        33
43.820        33
43.840        23
43.860        43
43.880        43
43.900        33
43.920        40
43.940        50
43.960        23
43.980        27
44.000        47
44.020        37
44.040        57
44.060        60
44.080        50
44.100        60
44.120       103
44.140        53
44.160       110
44.180       117
44.200       147
44.220       203
44.240       213
44.260       307
44.280       413
44.300       433
44.320       606
44.340       686
44.360       823
44.380       986
44.400       986
44.420       810
44.440       746
44.460       663
44.480       616
44.500       630
44.520       473
44.540       353
44.560       313
44.580       237
44.600       133
44.620       140
44.640        77
44.660        67
44.680        97
44.700        60
44.720        57
44.740        83
44.760        30
44.780        47
44.800        27
44.820        50
44.840        50
44.860        37
44.880        27
44.900        40
44.920        33
44.940        47
44.960        47
44.980        37
45.000        20
45.020        23
45.040        23
45.060        37
45.080        17
45.100        30
45.120        23
45.140        23
45.160        27
45.180        17
45.200        33
45.220        30
45.240        30
45.260        10
45.280        37
45.300        37
45.320        20
45.340        13
45.360        33
45.380         0
45.400        17
45.420        27
45.440        17
45.460        30
45.480        13
45.500        10
45.520        17
45.540        17
45.560        23
45.580        23
45.600        20
45.620        23
45.640        37
45.660        20
45.680        27
45.700        13
45.720        30
45.740        20
45.760        13
45.780         7
45.800        23
45.820        20
45.840        17
45.860        43
45.880        23
45.900        23
45.920        13
45.940        17
45.960        17
45.980        27
46.000        20
46.020        23
46.040        13
46.060         7
46.080        27
46.100        13
46.120        13
46.140        23
46.160        20
46.180        27
46.200        17
46.220        23
46.240        40
46.260        20
46.280        40
46.300        33
46.320        17
46.340        20
46.360        23
46.380        10
46.400        17
46.420        10
46.440        27
46.460         7
46.480        37
46.500        20
46.520        40
46.540        13
46.560        20
46.580        30
46.600        10
46.620        13
46.640        33
46.660        27
46.680        27
46.700        10
46.720        27
46.740        33
46.760        43
46.780        23
46.800        27
46.820        20
46.840        27
46.860        13
46.880        20
46.900        27
46.920        27
46.940        13
46.960        27
46.980        13
47.000        27
47.020        20
47.040        10
47.060        23
47.080        17
47.100        20
47.120        10
47.140        30
47.160        30
47.180        33
47.200        23
47.220        17
47.240         7
47.260        17
47.280        10
47.300        13
47.320        17
47.340        10
47.360        30
47.380        23
47.400        13
47.420        23
47.440        13
47.460        10
47.480        17
47.500        13
47.520        10
47.540        30
47.560        17
47.580        13
47.600        27
47.620        33
47.640        17
47.660         0
47.680        23
47.700        30
47.720        17
47.740        30
47.760        27
47.780        17
47.800        17
47.820        10
47.840         3
47.860        27
47.880        23
47.900        10
47.920        10
47.940        20
47.960        17
47.980        10
48.000        20
48.020        20
48.040        20
48.060        27
48.080        30
48.100        23
48.120        13
48.140        10
48.160        10
48.180        27
48.200        30
48.220        37
48.240        13
48.260        17
48.280        20
48.300        17
48.320        27
48.340        17
48.360        30
48.380        33
48.400        27
48.420        13
48.440        10
48.460        17
48.480        20
48.500        13
48.520        20
48.540        20
48.560        17
48.580        17
48.600        37
48.620        13
48.640        20
48.660        20
48.680        17
48.700        10
48.720        27
48.740        13
48.760        20
48.780        17
48.800        30
48.820        17
48.840        17
48.860        23
48.880        20
48.900        17
48.920        13
48.940         7
48.960         0
48.980         3
49.000        10
49.020        10
49.040         3
49.060        23
49.080        10
49.100         7
49.120        10
49.140         7
49.160        20
49.180        13
49.200         0
49.220        13
49.240        17
49.260        13
49.280        13
49.300        17
49.320        27
49.340        23
49.360        23
49.380        17
49.400        30
49.420        23
49.440        30
49.460         7
49.480        17
49.500         3
49.520        17
49.540        10
49.560        33
49.580        10
49.600        33
49.620        20
49.640        33
49.660        20
49.680        17
49.700        10
49.720        10
49.740        13
49.760        13
49.780        23
49.800        20
49.820        23
49.840        20
49.860        23
49.880        27
49.900        23
49.920        20
49.940        13
49.960        27
49.980        13
50.000        20
50.020        30
50.040        13
50.060        13
50.080        20
50.100        13
50.120        20
50.140        13
50.160        27
50.180        17
50.200        20
50.220        10
50.240         7
50.260        13
50.280        20
50.300        20
50.320        23
50.340        10
50.360        17
50.380         7
50.400        10
50.420        10
50.440        20
50.460        20
50.480        13
50.500        20
50.520        17
50.540        23
50.560        20
50.580        20
50.600        33
50.620        23
50.640        17
50.660        17
50.680         7
50.700         7
50.720         7
50.740        17
50.760         3
50.780         7
50.800        10
50.820        10
50.840        23
50.860         7
50.880        30
50.900        20
50.920         7
50.940        27
50.960        23
50.980        13
51.000        17
51.020        13
51.040        17
51.060         3
51.080        23
51.100        13
51.120        10
51.140        27
51.160         7
51.180        10
51.200        20
51.220        10
51.240        17
51.260        10
51.280        17
51.300        30
51.320        13
51.340         3
51.360        17
51.380        13
51.400        13
51.420        10
51.440        17
51.460        13
51.480        27
51.500        13
51.520        23
51.540        23
51.560         3
51.580        10
51.600        13
51.620        13
51.640        17
51.660         3
51.680        10
51.700        17
51.720        23
51.740        17
51.760        13
51.780        20
51.800        20
51.820        10
51.840        23
51.860        10
51.880        10
51.900        37
51.920        13
51.940         3
51.960        13
51.980        20
52.000         7
52.020        30
52.040        23
52.060        17
52.080        23
52.100        13
52.120        13
52.140        13
52.160        13
52.180        17
52.200        30
52.220        10
52.240        13
52.260        20
52.280        20
52.300        23
52.320        23
52.340        10
52.360        23
52.380        10
52.400        10
52.420        10
52.440        23
52.460        13
52.480        23
52.500        17
52.520        23
52.540        10
52.560        27
52.580        47
52.600        63
52.620        83
52.640        67
52.660        70
52.680        23
52.700        13
52.720        33
52.740        43
52.760        60
52.780        57
52.800        17
52.820        33
52.840        23
52.860        20
52.880         7
52.900         7
52.920        13
52.940        10
52.960        27
52.980        10
53.000        23
53.020        20
53.040         7
53.060        10
53.080        23
53.100        17
53.120        13
53.140        20
53.160         3
53.180        13
53.200        27
53.220         7
53.240        13
53.260        13
53.280        17
53.300        10
53.320         7
53.340        23
53.360        10
53.380        13
53.400        20
53.420         7
53.440        20
53.460        20
53.480        30
53.500        20
53.520        33
53.540         0
53.560         7
53.580        30
53.600         3
53.620        17
53.640        33
53.660        13
53.680        17
53.700         7
53.720        10
53.740        13
53.760         7
53.780         7
53.800        13
53.820        20
53.840        17
53.860         7
53.880        33
53.900        23
53.920         7
53.940        27
53.960        20
53.980        27
54.000        27
54.020        13
54.040        23
54.060        20
54.080         7
54.100        13
54.120        17
54.140        13
54.160        10
54.180        20
54.200        23
54.220        13
54.240        33
54.260        13
54.280        13
54.300        27
54.320        10
54.340        20
54.360        37
54.380        17
54.400        23
54.420        13
54.440         3
54.460        23
54.480        13
54.500        10
54.520        20
54.540        10
54.560        10
54.580        33
54.600        20
54.620        30
54.640        23
54.660        20
54.680        20
54.700        20
54.720        37
54.740        23
54.760        30
54.780        33
54.800        37
54.820        30
54.840        30
54.860        43
54.880        63
54.900        73
54.920        77
54.940        87
54.960       193
54.980       163
55.000       237
55.020       277
55.040       353
55.060       350
55.080       327
55.100       357
55.120       290
55.140       257
55.160       230
55.180       230
55.200       243
55.220       220
55.240       177
55.260       153
55.280       137
55.300       133
55.320        93
55.340        70
55.360        53
55.380        37
55.400        43
55.420        13
55.440        27
55.460        33
55.480        33
55.500        37
55.520        23
55.540        30
55.560        23
55.580        30
55.600        17
55.620        40
55.640        13
55.660        33
55.680        17
55.700        17
55.720        33
55.740        17
55.760        10
55.780        13
55.800        27
55.820        10
55.840        20
55.860        10
55.880        17
55.900        20
55.920        13
55.940        17
55.960        17
55.980        30
56.000        27
56.020        17
56.040        17
56.060         3
56.080        10
56.100        13
56.120        13
56.140        17
56.160        13
56.180        13
56.200        17
56.220        17
56.240        27
56.260        13
56.280        17
56.300        30
56.320        17
56.340        13
56.360        20
56.380        23
56.400        10
56.420        23
56.440        17
56.460        13
56.480        17
56.500         7
56.520        33
56.540        10
56.560        23
56.580        17
56.600        23
56.620        13
56.640         3
56.660        17
56.680        10
56.700        23
56.720        17
56.740        13
56.760        23
56.780        10
56.800         3
56.820        17
56.840        13
56.860         7
56.880        10
56.900        10
56.920        23
56.940        23
56.960        47
56.980        23
57.000        17
57.020         3
57.040        13
57.060        17
57.080        27
57.100        20
57.120        10
57.140         7
57.160        10
57.180        13
57.200        17
57.220        23
57.240        13
57.260        23
57.280         0
57.300        17
57.320        10
57.340        13
57.360        17
57.380        13
57.400        23
57.420        17
57.440        27
57.460        43
57.480        57
57.500        30
57.520        57
57.540        47
57.560        27
57.580        20
57.600        30
57.620        23
57.640        40
57.660        47
57.680        40
57.700        30
57.720        30
57.740        17
57.760        20
57.780        20
57.800         3
57.820        17
57.840        10
57.860        20
57.880        13
57.900        10
57.920        20
57.940        17
57.960        20
57.980        23
58.000        17
58.020        10
58.040        17
58.060        17
58.080        10
58.100        13
58.120        17
58.140        10
58.160         0
58.180        17
58.200        10
58.220        23
58.240        10
58.260        17
58.280         3
58.300        13
58.320        17
58.340        13
58.360        17
58.380         7
58.400        13
58.420        23
58.440        10
58.460        13
58.480        10
58.500        20
58.520        17
58.540        13
58.560        13
58.580        20
58.600        13
58.620        17
58.640         7
58.660        17
58.680         7
58.700        10
58.720        20
58.740        13
58.760        10
58.780        10
58.800        17
58.820        13
58.840         7
58.860        17
58.880        10
58.900        20
58.920        10
58.940         3
58.960        13
58.980        23
59.000        13
59.020        10
59.040        20
59.060        17
59.080        13
59.100        13
59.120        10
59.140        13
59.160         7
59.180        10
59.200         3
59.220         7
59.240        27
59.260        13
59.280        10
59.300        20
59.320        20
59.340        10
59.360         7
59.380        10
59.400        17
59.420        27
59.440        10
59.460         3
59.480        10
59.500        17
59.520        20
59.540        10
59.560         7
59.580        20
59.600        37
59.620        23
59.640        17
59.660        17
59.680        10
59.700        17
59.720        10
59.740        10
59.760        23
59.780        10
59.800         7
59.820        13
59.840         3
59.860        10
59.880        10
59.900        17
59.920        10
59.940         7
59.960        17
59.980         3
60.000         7
