20.000        40
20.020        57
20.040        33
20.060        50
20.080        53
20.100        37
20.120        20
20.140        33
20.160        50
20.180        37
20.200        37
20.220        60
20.240        67
20.260        40
20.280        70
20.300        40
20.320        33
20.340        37
20.360        33
20.380        53
20.400        53
20.420        30
20.440        33
20.460        40
20.480        37
20.500        33
20.520        50
20.540        70
20.560        40
20.580        47
20.600        57
20.620        37
20.640        50
20.660        50
20.680        23
20.700        57
20.720        40
20.740        37
20.760        47
20.780        50
20.800        30
20.820        53
20.840        37
20.860        33
20.880        43
20.900        27
20.920        43
20.940        50
20.960        43
20.980        27
21.000        57
21.020        50
21.040        33
21.060        33
21.080        53
21.100        43
21.120        37
21.140        43
21.160        50
21.180        53
21.200        30
21.220        43
21.240        43
21.260        50
21.280        27
21.300        50
21.320        37
21.340        60
21.360        40
21.380        30
21.400        47
21.420        40
21.440        43
21.460        50
21.480        20
21.500        53
21.520        40
21.540        27
21.560        43
21.580        60
21.600        40
21.620        63
21.640        70
21.660        57
21.680        63
21.700        77
21.720       103
21.740        63
21.760       110
21.780        77
21.800        53
21.820        63
21.840        67
21.860        40
21.880        63
21.900        37
21.920        40
21.940        37
21.960        40
21.980        37
22.000        50
22.020        47
22.040        27
22.060        40
22.080        37
22.100        17
22.120        30
22.140        20
22.160        23
22.180        37
22.200        43
22.220        37
22.240        23
22.260        23
22.280        27
22.300        53
22.320        37
22.340        23
22.360        70
22.380        27
22.400        23
22.420        40
22.440        33
22.460        30
22.480        57
22.500        37
22.520        23
22.540        40
22.560        47
22.580        30
22.600        43
22.620        40
22.640        43
22.660        30
22.680        17
22.700        30
22.720        33
22.740        40
22.760        33
22.780        33
22.800        33
22.820        27
22.840        50
22.860        67
22.880        37
22.900        47
22.920        37
22.940        37
22.960        43
22.980        23
23.000        50
23.020        50
23.040        43
23.060        40
23.080        27
23.100        30
23.120        53
23.140        60
23.160        30
23.180        40
23.200        43
23.220        37
23.240        50
23.260        30
23.280        37
23.300        63
23.320        43
23.340        33
23.360        17
23.380        43
23.400        43
23.420        43
23.440        50
23.460        33
23.480        33
23.500        43
23.520        37
23.540        37
23.560        17
23.580        40
23.600        43
23.620        37
23.640        50
23.660        33
23.680        20
23.700        40
23.720        37
23.740        40
23.760        47
23.780        60
23.800        27
23.820        43
23.840        30
23.860        57
23.880        30
23.900        33
23.920        37
23.940        33
23.960        37
23.980        33
24.000        33
24.020        33
24.040        30
24.060        43
24.080        57
24.100        27
24.120        43
24.140        53
24.160        50
24.180        20
24.200        33
24.220        20
24.240        10
24.260         0
24.280        43
24.300        57
24.320        33
24.340        23
24.360        50
24.380        30
24.400        33
24.420        27
24.440        37
24.460        47
24.480         7
24.500        23
24.520        40
24.540        33
24.560        17
24.580        23
24.600        33
24.620        60
24.640        37
24.660        30
24.680        37
24.700        23
24.720        27
24.740        30
24.760        37
24.780        43
24.800        43
24.820        37
24.840        33
24.860        27
24.880        37
24.900        40
24.920        40
24.940        30
24.960        47
24.980        27
25.000        50
25.020        30
25.040        37
25.060        43
25.080        50
25.100        37
25.120        30
25.140        30
25.160        27
25.180        37
25.200        30
25.220        23
25.240        37
25.260        40
25.280        37
25.300        20
25.320        37
25.340        40
25.360        20
25.380        40
25.400        27
25.420        30
25.440        33
25.460        30
25.480        37
25.500        13
25.520        27
25.540        37
25.560        20
25.580        43
25.600        23
25.620        30
25.640        23
25.660        33
25.680        47
25.700        30
25.720        27
25.740        17
25.760        40
25.780        43
25.800        30
25.820        13
25.840        27
25.860        30
25.880        33
25.900        57
25.920        30
25.940        37
25.960        27
25.980        20
26.000        40
26.020        27
26.040        30
26.060        20
26.080        13
26.100        33
26.120        37
26.140        27
26.160        33
26.180        30
26.200        10
26.220        43
26.240        33
26.260        13
26.280        33
26.300        57
26.320        33
26.340        20
26.360        40
26.380        30
26.400        30
26.420        37
26.440        20
26.460        33
26.480        30
26.500        17
26.520        37
26.540        37
26.560        37
26.580        17
26.600        17
26.620        33
26.640        37
26.660        33
26.680        13
26.700        20
26.720        20
26.740        23
26.760        40
26.780        30
26.800        33
26.820        37
26.840        33
26.860        13
26.880        33
26.900        37
26.920        40
26.940        33
26.960        30
26.980        37
27.000        30
27.020        27
27.040        53
27.060        30
27.080        30
27.100        43
27.120        47
27.140        40
27.160        30
27.180        33
27.200        30
27.220        30
27.240        30
27.260        27
27.280        27
27.300        23
27.320        20
27.340        27
27.360        27
27.380        40
27.400        50
27.420        33
27.440        33
27.460        33
27.480        30
27.500        23
27.520        10
27.540        30
27.560        33
27.580        30
27.600        23
27.620        20
27.640        33
27.660        40
27.680        37
27.700        50
27.720        27
27.740        17
27.760        33
27.780        37
27.800        20
27.820        20
27.840        27
27.860        27
27.880        27
27.900        30
27.920        30
27.940        20
27.960        33
27.980        27
28.000        40
28.020        27
28.040        30
28.060        33
28.080        27
28.100        33
28.120        40
28.140        27
28.160        47
28.180        20
28.200        30
28.220        30
28.240        20
28.260        40
28.280        20
28.300        40
28.320        40
28.340        10
28.360        33
28.380        27
28.400        40
28.420        27
28.440        43
28.460        43
28.480        33
28.500        40
28.520        17
28.540        27
28.560        37
28.580        27
28.600        33
28.620        30
28.640        40
28.660        17
28.680        37
28.700        23
28.720        33
28.740        60
28.760        40
28.780        20
28.800        27
28.820        33
28.840        33
28.860        43
28.880        27
28.900        33
28.920        43
28.940        23
28.960        33
28.980        27
29.000        33
29.020        20
29.040        17
29.060        23
29.080        43
29.100        20
29.120        23
29.140        23
29.160        30
29.180        23
29.200        37
29.220        33
29.240        13
29.260        40
29.280        33
29.300        33
29.320        33
29.340        33
29.360        23
29.380        30
29.400        43
29.420        50
29.440        27
29.460        23
29.480        37
29.500        37
29.520        30
29.540        33
29.560        33
29.580        33
29.600        40
29.620        40
29.640        37
29.660        30
29.680        30
29.700        40
29.720        20
29.740        20
29.760        17
29.780        33
29.800        50
29.820        50
29.840        30
29.860        17
29.880        37
29.900        20
29.920        30
29.940        20
29.960        43
29.980        27
30.000        13
30.020        20
30.040        30
30.060        27
30.080        27
30.100        23
30.120        27
30.140        37
30.160        30
30.180        33
30.200        43
30.220        40
30.240        27
30.260        40
30.280        27
30.300        33
30.320        40
30.340        40
30.360        30
30.380        27
30.400        17
30.420        13
30.440        33
30.460        13
30.480        20
30.500        20
30.520        40
30.540        67
30.560        30
30.580        37
30.600        40
30.620        40
30.640        33
30.660        33
30.680        23
30.700        57
30.720        70
30.740        30
30.760        63
30.780        57
30.800        83
30.820        93
30.840       103
30.860       140
30.880       193
30.900       197
30.920       207
30.940       223
30.960       287
30.980       177
31.000       167
31.020       120
31.040        87
31.060        57
31.080        43
31.100        43
31.120        57
31.140        30
31.160        33
31.180        17
31.200        40
31.220        27
31.240        37
31.260        30
31.280        33
31.300        33
31.320        37
31.340        50
31.360        50
31.380        20
31.400        20
31.420        27
31.440        50
31.460        27
31.480        23
31.500        27
31.520        30
31.540        47
31.560        20
31.580        33
31.600        33
31.620        33
31.640        47
31.660        23
31.680        13
31.700        27
31.720        30
31.740        40
31.760        30
31.780        47
31.800        23
31.820        33
31.840        27
31.860        40
31.880        33
31.900        27
31.920        37
31.940        27
31.960        20
31.980        23
32.000        37
32.020        30
32.040        33
32.060        27
32.080        23
32.100        30
32.120        33
32.140        23
32.160        17
32.180        30
32.200        20
32.220        17
32.240        23
32.260        17
32.280        27
32.300        30
32.320        10
32.340        27
32.360        30
32.380        23
32.400        30
32.420        23
32.440        10
32.460        27
32.480        43
32.500        17
32.520        20
32.540        17
32.560        23
32.580        20
32.600        27
32.620        43
32.640        33
32.660        27
32.680        30
32.700        20
32.720        27
32.740        17
32.760        40
32.780        23
32.800        23
32.820        30
32.840        23
32.860        30
32.880        20
32.900        17
32.920        37
32.940        27
32.960        33
32.980        23
33.000        27
33.020        10
33.040        17
33.060        20
33.080        27
33.100        17
33.120        27
33.140        30
33.160        43
33.180        20
33.200        23
33.220        20
33.240        33
33.260        23
33.280        27
33.300        23
33.320        30
33.340        37
33.360        20
33.380        23
33.400        20
33.420        33
33.440        30
33.460        30
33.480        33
33.500        40
33.520        40
33.540        17
33.560        33
33.580        23
33.600        43
33.620        40
33.640        17
33.660        33
33.680        27
33.700        27
33.720        17
33.740        33
33.760        20
33.780        33
33.800         3
33.820        23
33.840        17
33.860        20
33.880        30
33.900        20
33.920        33
33.940        23
33.960        30
33.980        23
34.000        37
34.020        33
34.040        40
34.060        17
34.080        33
34.100        30
34.120        13
34.140        30
34.160        17
34.180        10
34.200        23
34.220        20
34.240        27
34.260        37
34.280        23
34.300        50
34.320        17
34.340        43
34.360        27
34.380        40
34.400        40
34.420        33
34.440        20
34.460        17
34.480        17
34.500        33
34.520        33
34.540        20
34.560        17
34.580        17
34.600        23
34.620        37
34.640        20
34.660        20
34.680        13
34.700        20
34.720        13
34.740        17
34.760        20
34.780        27
34.800        27
34.820        17
34.840        23
34.860        17
34.880        30
34.900        20
34.920        37
34.940        23
34.960        27
34.980        13
35.000        23
35.020        20
35.040        23
35.060        47
35.080        40
35.100        27
35.120        43
35.140        63
35.160        50
35.180        30
35.200        17
35.220        37
35.240        33
35.260        23
35.280        37
35.300        33
35.320         7
35.340        20
35.360        50
35.380        23
35.400        10
35.420        43
35.440        10
35.460        17
35.480        27
35.500        30
35.520        20
35.540        23
35.560        33
35.580        43
35.600        17
35.620        27
35.640        20
35.660        23
35.680        23
35.700        17
35.720        27
35.740        17
35.760        23
35.780        30
35.800        33
35.820        23
35.840        40
35.860        50
35.880        13
35.900        20
35.920        30
35.940        20
35.960        37
35.980        10
36.000        17
36.020        27
36.040        20
36.060        40
36.080        33
36.100        13
36.120        23
36.140        27
36.160        17
36.180        37
36.200        20
36.220        23
36.240        10
36.260        10
36.280        23
36.300        20
36.320        17
36.340        20
36.360        27
36.380         7
36.400        13
36.420        23
36.440        23
36.460        13
36.480        27
36.500        20
36.520        20
36.540        33
36.560        30
36.580        10
36.600        10
36.620        23
36.640        10
36.660        33
36.680        27
36.700        30
36.720        10
36.740        13
36.760        23
36.780        43
36.800        20
36.820        17
36.840        20
36.860        10
36.880        30
36.900        10
36.920        20
36.940        33
36.960        53
36.980        27
37.000        27
37.020        20
37.040        37
37.060        20
37.080        30
37.100        20
37.120        40
37.140        30
37.160        23
37.180        27
37.200        20
37.220        30
37.240        30
37.260        20
37.280        30
37.300        30
37.320        20
37.340        43
37.360        37
37.380        40
37.400        23
37.420        27
37.440        10
37.460        30
37.480        63
37.500        30
37.520        33
37.540        43
37.560        37
37.580        30
37.600        30
37.620        30
37.640        43
37.660        43
37.680        47
37.700        23
37.720        57
37.740        33
37.760        50
37.780        50
37.800        47
37.820        73
37.840        63
37.860        60
37.880        80
37.900       123
37.920       113
37.940       120
37.960       137
37.980       227
38.000       240
38.020       320
38.040       377
38.060       387
38.080       573
38.100       716
38.120       880
38.140       973
38.160       856
38.180       820
38.200       666
38.220       620
38.240       540
38.260       330
38.280       380
38.300       250
38.320       203
38.340       153
38.360       103
38.380        67
38.400        67
38.420        63
38.440        50
38.460        43
38.480        70
38.500        57
38.520        83
38.540        50
38.560        47
38.580        37
38.600        40
38.620        53
38.640        50
38.660        57
38.680        40
38.700        30
38.720        33
38.740        27
38.760        10
38.780        33
38.800        37
38.820        43
38.840        47
38.860        23
38.880        27
38.900        47
38.920        33
38.940        53
38.960        20
38.980        33
39.000        27
39.020        47
39.040        30
39.060        30
39.080        30
39.100        23
39.120        43
39.140        37
39.160        27
39.180        17
39.200        37
39.220        30
39.240        27
39.260        23
39.280        27
39.300        37
39.320        23
39.340        17
39.360        17
39.380        33
39.400        57
39.420        23
39.440        33
39.460        23
39.480        30
39.500        33
39.520        20
39.540        27
39.560        27
39.580        30
39.600        37
39.620        40
39.640        43
39.660        43
39.680        33
39.700        33
39.720        17
39.740        37
39.760        13
39.780        17
39.800        10
39.820        23
39.840        17
39.860        23
39.880        37
39.900        23
39.920        37
39.940        10
39.960        33
39.980        37
40.000        30
40.020        23
40.040        33
40.060        33
40.080        23
40.100        17
40.120        20
40.140         7
40.160        37
40.180        30
40.200        33
40.220        37
40.240        13
40.260        17
40.280        33
40.300        33
40.320        30
40.340        40
40.360        33
40.380        20
40.400        37
40.420        23
40.440        10
40.460        40
40.480        13
40.500        13
40.520        20
40.540        40
40.560        30
40.580        30
40.600        13
40.620        17
40.640        37
40.660        33
40.680        27
40.700        33
40.720        23
40.740        23
40.760        20
40.780        23
40.800        27
40.820        20
40.840        23
40.860        27
40.880        13
40.900        20
40.920        40
40.940        13
40.960        30
40.980        20
41.000        17
41.020        20
41.040        30
41.060        20
41.080        37
41.100        13
41.120        20
41.140        30
41.160        23
41.180        20
41.200        10
41.220        27
41.240        23
41.260        27
41.280        17
41.300        20
41.320        17
41.340        10
41.360        20
41.380        20
41.400        33
41.420         7
41.440        37
41.460        23
41.480        13
41.500        20
41.520        27
41.540        37
41.560        37
41.580        20
41.600        20
41.620        30
41.640        13
41.660        47
41.680        43
41.700        33
41.720        53
41.740        47
41.760        50
41.780        40
41.800        50
41.820        43
41.840        33
41.860        30
41.880        23
41.900        20
41.920        40
41.940        27
41.960        23
41.980        23
42.000        20
42.020         7
42.040        20
42.060        23
42.080        23
42.100        17
42.120        20
42.140        17
42.160        10
42.180        10
42.200         0
42.220        27
42.240        17
42.260        17
42.280        20
42.300        20
42.320        17
42.340        20
42.360        30
42.380        20
42.400         7
42.420        10
42.440        10
42.460        30
42.480        30
42.500        20
42.520        20
42.540         7
42.560        17
42.580        33
42.600        17
42.620        13
42.640        20
42.660        13
42.680        20
42.700        33
42.720        33
42.740        20
42.760        17
42.780         7
42.800        20
42.820        23
42.840         7
42.860        20
42.880        37
42.900         3
42.920        40
42.940        30
42.960        20
42.980        23
43.000        30
43.020        30
43.040        30
43.060        27
43.080        13
43.100        23
43.120        33
43.140        40
43.160        30
43.180        27
43.200        30
43.220        23
43.240        23
43.260        37
43.280        20
43.300        20
43.320        47
43.340        53
43.360        67
43.380        37
43.400       100
43.420        50
43.440        40
43.460        47
43.480        37
43.500        60
43.520        40
43.540        27
43.560        47
43.580        20
43.600        13
43.620        47
43.640        37
43.660        33
43.680        30
43.700        23
43.720        33
43.740        27
43.760        30
43.780        40
43.800        23
43.820        50
43.840        33
43.860        17
43.880        27
43.900        40
43.920        27
43.940        43
43.960        53
43.980        40
44.000        57
44.020        57
44.040        73
44.060        37
44.080        77
44.100        83
44.120        67
44.140       110
44.160       143
44.180       153
44.200       127
44.220       183
44.240       203
44.260       257
44.280       303
44.300       240
44.320       230
44.340       163
44.360       180
44.380       227
44.400       220
44.420       157
44.440       110
44.460       133
44.480       127
44.500        90
44.520        53
44.540        57
44.560        63
44.580        40
44.600        50
44.620        43
44.640        67
44.660        13
44.680        30
44.700        47
44.720        47
44.740        43
44.760        30
44.780        50
44.800        37
44.820        30
44.840        30
44.860        27
44.880        33
44.900        37
44.920        53
44.940        23
44.960        33
44.980        27
45.000        27
45.020        33
45.040        47
45.060        13
45.080        27
45.100        10
45.120        37
45.140        40
45.160        33
45.180        37
45.200        13
45.220        30
45.240        33
45.260        43
45.280        30
45.300        40
45.320        40
45.340        57
45.360        20
45.380        17
45.400        23
45.420        57
45.440        13
45.460        37
45.480        33
45.500        37
45.520        33
45.540        30
45.560        30
45.580        53
45.600        30
45.620        33
45.640        27
45.660        27
45.680        33
45.700        17
45.720        20
45.740        20
45.760        47
45.780        20
45.800        20
45.820        20
45.840        37
45.860        23
45.880        43
45.900        17
45.920        23
45.940        37
45.960        27
45.980        17
46.000        23
46.020        17
46.040        23
46.060        23
46.080        17
46.100        13
46.120        23
46.140        37
46.160        17
46.180        20
46.200        23
46.220        20
46.240        23
46.260        20
46.280        33
46.300        27
46.320        13
46.340        30
46.360        33
46.380        20
46.400        37
46.420        43
46.440         3
46.460        27
46.480        27
46.500        17
46.520        33
46.540        20
46.560        23
46.580        17
46.600        27
46.620        23
46.640        17
46.660        23
46.680        37
46.700        13
46.720        23
46.740        10
46.760        27
46.780        17
46.800        20
46.820        13
46.840        20
46.860        20
46.880        17
46.900        20
46.920        23
46.940        33
46.960        10
46.980        30
47.000        23
47.020        13
47.040        27
47.060        23
47.080        23
47.100        10
47.120        17
47.140        13
47.160        13
47.180        20
47.200        23
47.220        17
47.240         7
47.260        20
47.280        23
47.300        13
47.320        30
47.340        17
47.360        13
47.380        20
47.400        40
47.420        17
47.440        27
47.460        23
47.480        40
47.500        17
47.520        20
47.540        20
47.560        30
47.580         7
47.600        50
47.620        13
47.640        30
47.660        13
47.680         7
47.700         3
47.720        30
47.740        10
47.760        20
47.780        13
47.800        10
47.820        23
47.840        17
47.860        17
47.880        10
47.900        20
47.920        20
47.940        40
47.960        10
47.980         7
48.000        13
48.020        10
48.040        20
48.060        27
48.080        13
48.100        10
48.120        20
48.140        10
48.160        30
48.180        27
48.200        27
48.220        20
48.240        33
48.260        23
48.280        17
48.300        23
48.320        10
48.340        13
48.360        10
48.380        40
48.400        30
48.420        20
48.440        30
48.460        20
48.480        17
48.500        20
48.520        13
48.540        30
48.560        33
48.580        20
48.600        10
48.620        23
48.640        27
48.660        20
48.680        23
48.700        30
48.720        10
48.740        20
48.760        20
48.780        30
48.800        20
48.820        17
48.840        17
48.860        10
48.880        27
48.900        17
48.920        30
48.940        20
48.960        20
48.980        13
49.000        23
49.020        13
49.040         3
49.060        13
49.080        23
49.100        33
49.120        20
49.140        13
49.160        17
49.180        20
49.200        20
49.220        23
49.240        20
49.260        20
49.280        23
49.300        27
49.320        23
49.340        13
49.360        13
49.380        10
49.400        17
49.420        10
49.440        13
49.460        10
49.480         3
49.500        27
49.520        27
49.540        20
49.560        10
49.580        10
49.600        33
49.620        13
49.640        13
49.660        17
49.680        13
49.700        23
49.720        17
49.740        17
49.760        23
49.780        10
49.800        17
49.820        17
49.840        33
49.860        17
49.880        27
49.900        30
49.920        17
49.940        27
49.960        37
49.980        20
50.000        23
50.020        20
50.040        10
50.060        20
50.080        27
50.100        10
50.120        20
50.140        30
50.160        20
50.180         3
50.200        27
50.220        17
50.240        17
50.260        20
50.280        13
50.300         7
50.320        20
50.340         7
50.360        17
50.380        20
50.400        17
50.420        17
50.440        27
50.460        17
50.480        17
50.500         7
50.520        17
50.540        20
50.560         0
50.580        17
50.600        30
50.620        17
50.640        10
50.660        27
50.680        10
50.700        20
50.720        27
50.740        20
50.760        10
50.780        17
50.800        10
50.820        17
50.840        17
50.860        20
50.880        23
50.900        17
50.920        20
50.940        10
50.960        17
50.980        23
51.000        10
51.020         0
51.040        13
51.060        13
51.080        17
51.100        23
51.120        10
51.140         7
51.160        13
51.180        10
51.200        10
51.220        20
51.240        13
51.260        13
51.280        17
51.300         7
51.320        17
51.340         3
51.360        20
51.380        13
51.400        10
51.420        10
51.440        10
51.460        17
51.480         7
51.500        10
51.520        10
51.540        20
51.560        17
51.580        27
51.600        30
51.620        20
51.640        13
51.660        13
51.680        13
51.700        27
51.720        30
51.740        20
51.760        20
51.780        10
51.800         7
51.820        20
51.840        13
51.860        17
51.880        23
51.900        17
51.920         7
51.940        13
51.960        17
51.980        30
52.000        20
52.020        13
52.040        17
52.060        20
52.080        13
52.100        13
52.120        20
52.140        20
52.160        10
52.180        20
52.200         3
52.220        13
52.240        13
52.260        13
52.280        13
52.300        17
52.320        13
52.340        13
52.360        33
52.380        17
52.400        13
52.420        13
52.440        13
52.460        20
52.480        23
52.500        13
52.520        33
52.540        33
52.560        17
52.580        20
52.600        17
52.620        10
52.640        27
52.660        30
52.680        20
52.700        27
52.720        27
52.740        23
52.760        27
52.780        10
52.800        20
52.820        37
52.840         7
52.860        23
52.880        20
52.900        17
52.920        27
52.940        10
52.960        20
52.980        10
53.000        17
53.020         7
53.040        27
53.060        13
53.080        23
53.100        20
53.120        20
53.140        20
53.160         3
53.180        23
53.200        33
53.220        20
53.240        10
53.260        20
53.280        20
53.300        13
53.320        13
53.340        17
53.360        17
53.380        10
53.400        13
53.420        27
53.440        13
53.460        20
53.480        10
53.500        20
53.520        17
53.540        13
53.560        20
53.580        27
53.600         7
53.620         0
53.640        40
53.660        27
53.680        17
53.700        13
53.720        13
53.740        17
53.760         7
53.780        23
53.800        23
53.820         7
53.840        23
53.860        20
53.880        20
53.900        13
53.920        13
53.940        20
53.960        40
53.980        20
54.000        17
54.020         3
54.040        13
54.060        20
54.080        20
54.100        17
54.120        20
54.140        27
54.160        10
54.180        33
54.200        13
54.220        13
54.240        23
54.260        13
54.280        33
54.300        23
54.320        17
54.340        33
54.360        30
54.380        10
54.400        20
54.420        10
54.440        23
54.460        33
54.480        37
54.500        33
54.520        20
54.540        10
54.560        40
54.580        20
54.600        47
54.620        30
54.640        23
54.660        30
54.680        40
54.700        27
54.720        63
54.740        60
54.760        47
54.780        47
54.800        87
54.820        87
54.840       117
54.860       137
54.880       193
54.900       183
54.920       287
54.940       347
54.960       377
54.980       373
55.000       393
55.020       367
55.040       310
55.060       313
55.080       267
55.100       250
55.120       273
55.140       270
55.160       247
55.180       187
55.200       147
55.220       113
55.240        93
55.260        83
55.280        87
55.300        53
55.320        87
55.340        27
55.360        40
55.380        20
55.400        23
55.420        17
55.440        33
55.460        23
55.480        10
55.500        33
55.520        37
55.540        33
55.560        27
55.580        27
55.600        30
55.620        23
55.640        17
55.660        27
55.680         7
55.700        10
55.720        20
55.740        13
55.760        17
55.780        20
55.800        17
55.820        10
55.840        17
55.860        10
55.880        23
55.900        40
55.920        20
55.940        27
55.960        27
55.980        13
56.000        13
56.020        13
56.040        13
56.060        20
56.080        33
56.100        23
56.120        17
56.140        27
56.160        40
56.180        17
56.200        23
56.220        10
56.240        17
56.260        17
56.280        13
56.300        23
56.320        10
56.340        20
56.360        23
56.380         7
56.400        30
56.420        23
56.440        13
56.460        23
56.480        33
56.500        30
56.520        17
56.540        20
56.560        17
56.580        20
56.600        27
56.620        13
56.640        33
56.660        30
56.680        13
56.700        20
56.720        27
56.740        30
56.760        13
56.780        20
56.800        13
56.820        10
56.840        30
56.860        20
56.880        30
56.900        27
56.920        10
56.940        23
56.960        20
56.980        33
57.000         7
57.020        23
57.040        30
57.060        17
57.080        13
57.100        17
57.120        23
57.140        20
57.160        27
57.180        17
57.200        20
57.220        20
57.240        17
57.260        20
57.280        17
57.300        20
57.320        40
57.340         3
57.360        13
57.380         7
57.400        20
57.420        27
57.440        13
57.460        17
57.480        43
57.500        57
57.520        70
57.540        73
57.560        97
57.580        60
57.600        33
57.620        33
57.640        33
57.660        50
57.680        63
57.700        37
57.720        43
57.740        40
57.760        30
57.780        43
57.800        20
57.820         3
57.840        27
57.860        10
57.880        30
57.900         7
57.920         7
57.940         7
57.960        13
57.980        20
58.000        10
58.020        27
58.040         3
58.060        37
58.080        20
58.100        20
58.120        20
58.140        10
58.160        17
58.180         3
58.200        17
58.220        20
58.240         7
58.260        20
58.280         3
58.300        10
58.320        10
58.340        10
58.360        20
58.380        10
58.400        10
58.420        27
58.440        20
58.460         7
58.480        13
58.500        17
58.520        13
58.540         3
58.560        10
58.580        17
58.600         7
58.620        23
58.640        17
58.660        13
58.680        20
58.700        10
58.720        10
58.740        23
58.760        20
58.780        17
58.800        17
58.820        23
58.840         7
58.860        10
58.880        13
58.900        13
58.920        23
58.940        13
58.960        13
58.980         7
59.000        10
59.020         7
59.040        13
59.060         7
59.080         7
59.100        17
59.120        13
59.140        10
59.160         7
59.180        27
59.200         3
59.220        10
59.240         7
59.260        13
59.280         0
59.300        13
59.320        20
59.340        13
59.360        20
59.380         7
59.400        13
59.420        10
59.440        17
59.460        17
59.480        10
59.500        10
59.520        10
59.540        23
59.560        20
59.580        17
59.600        23
59.620        13
59.640        27
59.660        27
59.680        20
59.700        17
59.720        10
59.740        13
59.760        13
59.780        13
59.800        20
59.820        17
59.840         3
59.860        17
59.880        13
59.900        23
59.920        37
59.940        27
59.960        17
59.980         3
60.000         3
