20.000        40
20.020        20
20.040        37
20.060        27
20.080        40
20.100        53
20.120        47
20.140        30
20.160        50
20.180        50
20.200        50
20.220        37
20.240        43
20.260        30
20.280        30
20.300        23
20.320        43
20.340        33
20.360        40
20.380        47
20.400        70
20.420        40
20.440        33
20.460        40
20.480        23
20.500        43
20.520        50
20.540        27
20.560        37
20.580        53
20.600        30
20.620        43
20.640        37
20.660        53
20.680        63
20.700        53
20.720        47
20.740        17
20.760        37
20.780        13
20.800        23
20.820        50
20.840        33
20.860        33
20.880        43
20.900        63
20.920        47
20.940        27
20.960        43
20.980        23
21.000        40
21.020        30
21.040        37
21.060        37
21.080        30
21.100        63
21.120        30
21.140        43
21.160        53
21.180        30
21.200        37
21.220        43
21.240        33
21.260        43
21.280        33
21.300        63
21.320        53
21.340        27
21.360        37
21.380        33
21.400        47
21.420        43
21.440        27
21.460        47
21.480        33
21.500        50
21.520        27
21.540        27
21.560        43
21.580        37
21.600        20
21.620        47
21.640        50
21.660        47
21.680        43
21.700        47
21.720        40
21.740        50
21.760        17
21.780        43
21.800        40
21.820        37
21.840        27
21.860        37
21.880        40
21.900        47
21.920        57
21.940        37
21.960        60
21.980        93
22.000        53
22.020        63
22.040        57
22.060        63
22.080        47
22.100        40
22.120        57
22.140        33
22.160        40
22.180        53
22.200        33
22.220        33
22.240        50
22.260        53
22.280        20
22.300        33
22.320        40
22.340        43
22.360        37
22.380        33
22.400        47
22.420        67
22.440        47
22.460        30
22.480        53
22.500        47
22.520        33
22.540        47
22.560        17
22.580        27
22.600        37
22.620        43
22.640        33
22.660        20
22.680        50
22.700        30
22.720        27
22.740        37
22.760        60
22.780        50
22.800        37
22.820        33
22.840        27
22.860        17
22.880        23
22.900        47
22.920        23
22.940        40
22.960        33
22.980        40
23.000        60
23.020        27
23.040        40
23.060        13
23.080        27
23.100        33
23.120        30
23.140        33
23.160        43
23.180        20
23.200        47
23.220        53
23.240        40
23.260        43
23.280        30
23.300        30
23.320        20
23.340        27
23.360        27
23.380        17
23.400        33
23.420        47
23.440        20
23.460        33
23.480        27
23.500        37
23.520        33
23.540        17
23.560        27
23.580        30
23.600        23
23.620        20
23.640        37
23.660        27
23.680        50
23.700        37
23.720        23
23.740        23
23.760        33
23.780        50
23.800        33
23.820        40
23.840        20
23.860        27
23.880        33
23.900        33
23.920        30
23.940        40
23.960        23
23.980        23
24.000        40
24.020        23
24.040        20
24.060        13
24.080        27
24.100        30
24.120        27
24.140        20
24.160        17
24.180        33
24.200        23
24.220        37
24.240        30
24.260        47
24.280        23
24.300        40
24.320        30
24.340        23
24.360        33
24.380        27
24.400        33
24.420        20
24.440        47
24.460        27
24.480        47
24.500        43
24.520        13
24.540        30
24.560        30
24.580        10
24.600        17
24.620        30
24.640        43
24.660        40
24.680        37
24.700        33
24.720        50
24.740        33
24.760        23
24.780        37
24.800        33
24.820        33
24.840        27
24.860        50
24.880        37
24.900        40
24.920        40
24.940        33
24.960        23
24.980        23
25.000        27
25.020        17
25.040        30
25.060        37
25.080        27
25.100        23
25.120        17
25.140        30
25.160        17
25.180        33
25.200        20
25.220        33
25.240        40
25.260        33
25.280        33
25.300        33
25.320        30
25.340        20
25.360        30
25.380        33
25.400        27
25.420        37
25.440        20
25.460        20
25.480        27
25.500        27
25.520        30
25.540        37
25.560        30
25.580        37
25.600        37
25.620        53
25.640        57
25.660        40
25.680        17
25.700        40
25.720        37
25.740        23
25.760        13
25.780        43
25.800        37
25.820        33
25.840        23
25.860        33
25.880        33
25.900        37
25.920        27
25.940        50
25.960        33
25.980        40
26.000        30
26.020        13
26.040        23
26.060        40
26.080        27
26.100        27
26.120        20
26.140        27
26.160        30
26.180        30
26.200        47
26.220        27
26.240        20
26.260        27
26.280        37
26.300        27
26.320        50
26.340        40
26.360        23
26.380        47
26.400        37
26.420        37
26.440        17
26.460        33
26.480        20
26.500        60
26.520        17
26.540        23
26.560        20
26.580        33
26.600        57
26.620        20
26.640        20
26.660        37
26.680        30
26.700        33
26.720        27
26.740        17
26.760        17
26.780        33
26.800        23
26.820        30
26.840        27
26.860        23
26.880        40
26.900        30
26.920        23
26.940        13
26.960        27
26.980        37
27.000        17
27.020        17
27.040        27
27.060        20
27.080        20
27.100        20
27.120        23
27.140        47
27.160        40
27.180        43
27.200        43
27.220        27
27.240        23
27.260        23
27.280        30
27.300        20
27.320        30
27.340        50
27.360        37
27.380        30
27.400        30
27.420        17
27.440        23
27.460        10
27.480        30
27.500        17
27.520        23
27.540        23
27.560        23
27.580        27
27.600        27
27.620        17
27.640        47
27.660        30
27.680        17
27.700        27
27.720        20
27.740        13
27.760        30
27.780        27
27.800        27
27.820        10
27.840        27
27.860        33
27.880        33
27.900        27
27.920        33
27.940        37
27.960        20
27.980        27
28.000        23
28.020        30
28.040        30
28.060        27
28.080        20
28.100        20
28.120        27
28.140        43
28.160        43
28.180        60
28.200        30
28.220        50
28.240        30
28.260        30
28.280        43
28.300        33
28.320        20
28.340        13
28.360        20
28.380        20
28.400        23
28.420        27
28.440        33
28.460        30
28.480        20
28.500        20
28.520        13
28.540        20
28.560        23
28.580        23
28.600        17
28.620        17
28.640        13
28.660        33
28.680        13
28.700        13
28.720        33
28.740        17
28.760        33
28.780        30
28.800        23
28.820        23
28.840        27
28.860        20
28.880        23
28.900        13
28.920        23
28.940        33
28.960        23
28.980        40
29.000        33
29.020        17
29.040        40
29.060        30
29.080        30
29.100        33
29.120        37
29.140        13
29.160        27
29.180        33
29.200        43
29.220        17
29.240        33
29.260        40
29.280        50
29.300        43
29.320        60
29.340        47
29.360        50
29.380        50
29.400        50
29.420        47
29.440        13
29.460        43
29.480        40
29.500        27
29.520        17
29.540        13
29.560        33
29.580        10
29.600        17
29.620        20
29.640        27
29.660        17
29.680        30
29.700        43
29.720        20
29.740        40
29.760        23
29.780        30
29.800        27
29.820        17
29.840        17
29.860        17
29.880        13
29.900        17
29.920        37
29.940        23
29.960        10
29.980        23
30.000        17
30.020        23
30.040        30
30.060        10
30.080        23
30.100        47
30.120        20
30.140        37
30.160        40
30.180        17
30.200        13
30.220        47
30.240        43
30.260        40
30.280        27
30.300        20
30.320        27
30.340        23
30.360        30
30.380        27
30.400        37
30.420        40
30.440        27
30.460        33
30.480        27
30.500        37
30.520        30
30.540        23
30.560        20
30.580        20
30.600        33
30.620        33
30.640        60
30.660        40
30.680        30
30.700        43
30.720        37
30.740        67
30.760        47
30.780        57
30.800        33
30.820        43
30.840        50
30.860        53
30.880        60
30.900        60
30.920        57
30.940        70
30.960       143
30.980       120
31.000       103
31.020       240
31.040       250
31.060       307
31.080       337
31.100       626
31.120       730
31.140       850
31.160      1263
31.180      1469
31.200      2029
31.220      2259
31.240      2073
31.260      2166
31.280      1729
31.300      1436
31.320      1329
31.340       990
31.360       650
31.380       463
31.400       287
31.420       260
31.440       197
31.460       163
31.480       147
31.500       143
31.520       117
31.540        97
31.560        63
31.580        47
31.600        87
31.620        47
31.640        73
31.660        57
31.680        53
31.700        50
31.720        47
31.740        60
31.760        43
31.780        37
31.800        43
31.820        20
31.840        27
31.860        17
31.880        43
31.900        40
31.920        50
31.940        43
31.960        30
31.980        37
32.000        43
32.020        27
32.040        23
32.060        47
32.080        27
32.100        50
32.120        23
32.140        33
32.160        40
32.180        30
32.200        37
32.220        27
32.240        23
32.260        47
32.280        37
32.300        10
32.320        20
32.340        47
32.360        17
32.380        27
32.400        33
32.420        43
32.440        27
32.460        27
32.480        30
32.500        20
32.520        10
32.540        20
32.560        20
32.580        10
32.600        20
32.620        33
32.640        37
32.660        27
32.680        20
32.700        23
32.720        40
32.740        30
32.760        13
32.780        27
32.800        20
32.820        20
32.840        43
32.860        23
32.880        13
32.900        10
32.920        17
32.940        20
32.960        30
32.980        27
33.000        30
33.020        43
33.040        13
33.060        30
33.080        30
33.100        27
33.120        10
33.140        20
33.160        20
33.180        33
33.200        23
33.220        30
33.240        43
33.260        20
33.280        27
33.300        33
33.320        17
33.340        27
33.360        17
33.380        20
33.400        47
33.420        17
33.440         7
33.460        20
33.480        13
33.500        13
33.520        20
33.540        30
33.560        20
33.580        30
33.600        23
33.620        37
33.640        20
33.660        10
33.680        17
33.700         7
33.720        23
33.740        27
33.760        23
33.780        13
33.800        33
33.820        17
33.840        13
33.860        27
33.880        23
33.900        17
33.920        13
33.940        20
33.960        20
33.980        17
34.000        20
34.020        27
34.040        27
34.060        10
34.080        17
34.100        17
34.120        17
34.140        20
34.160        13
34.180        27
34.200        10
34.220        43
34.240        27
34.260         7
34.280        20
34.300        13
34.320        13
34.340        33
34.360        27
34.380        27
34.400        17
34.420        17
34.440        13
34.460        20
34.480        10
34.500        27
34.520        10
34.540        27
34.560        33
34.580        23
34.600        33
34.620        23
34.640        17
34.660        20
34.680        20
34.700        17
34.720        30
34.740        13
34.760        33
34.780        30
34.800        27
34.820        20
34.840        17
34.860        10
34.880        17
34.900        27
34.920        10
34.940        30
34.960        10
34.980        27
35.000        20
35.020         7
35.040        40
35.060        30
35.080        37
35.100        20
35.120         7
35.140        17
35.160        23
35.180        10
35.200        23
35.220        33
35.240        23
35.260        13
35.280        27
35.300        17
35.320        23
35.340        17
35.360        20
35.380        23
35.400        10
35.420        13
35.440        23
35.460        17
35.480        23
35.500        27
35.520         7
35.540        20
35.560        17
35.580        30
35.600        13
35.620        10
35.640        17
35.660        33
35.680        33
35.700        10
35.720        23
35.740        23
35.760        20
35.780         3
35.800        13
35.820         3
35.840        23
35.860        17
35.880        33
35.900        17
35.920        17
35.940        30
35.960        23
35.980        40
36.000        10
36.020        20
36.040        13
36.060        23
36.080        20
36.100        27
36.120        17
36.140        27
36.160        13
36.180        13
36.200        23
36.220        23
36.240        20
36.260        10
36.280        13
36.300        27
36.320        10
36.340        30
36.360         7
36.380        17
36.400        13
36.420        30
36.440        23
36.460        20
36.480        17
36.500        20
36.520        27
36.540        17
36.560        20
36.580        23
36.600        27
36.620         3
36.640        23
36.660        10
36.680        33
36.700        20
36.720        23
36.740        13
36.760        17
36.780         3
36.800         7
36.820        20
36.840        20
36.860        17
36.880        17
36.900        17
36.920        10
36.940        10
36.960        33
36.980        13
37.000        27
37.020        23
37.040        10
37.060        20
37.080        20
37.100        20
37.120         7
37.140        20
37.160         3
37.180         7
37.200        13
37.220        30
37.240        13
37.260        40
37.280        10
37.300        23
37.320         7
37.340        20
37.360        10
37.380        23
37.400        13
37.420        13
37.440         3
37.460        20
37.480        17
37.500         3
37.520        13
37.540        27
37.560        13
37.580        13
37.600        20
37.620        30
37.640        10
37.660        23
37.680        10
37.700         3
37.720        13
37.740        27
37.760        30
37.780        17
37.800        23
37.820        27
37.840        27
37.860        10
37.880        23
37.900        23
37.920        13
37.940         3
37.960        13
37.980        23
38.000        17
38.020        27
38.040         7
38.060         7
38.080        33
38.100        13
38.120         7
38.140        20
38.160        13
38.180        20
38.200         7
38.220        13
38.240        17
38.260         3
38.280        23
38.300        13
38.320        37
38.340        13
38.360        17
38.380        33
38.400        53
38.420        23
38.440        50
38.460        40
38.480        60
38.500        43
38.520        50
38.540        43
38.560        33
38.580        33
38.600        27
38.620        27
38.640        23
38.660        20
38.680        43
38.700        37
38.720        23
38.740        30
38.760        17
38.780        30
38.800        20
38.820        50
38.840        20
38.860        33
38.880        30
38.900        23
38.920        30
38.940        13
38.960        20
38.980        30
39.000         7
39.020        10
39.040         7
39.060        20
39.080         7
39.100        30
39.120        17
39.140        10
39.160        10
39.180        13
39.200        17
39.220        17
39.240        13
39.260        20
39.280        20
39.300        37
39.320        27
39.340        30
39.360        20
39.380        27
39.400        30
39.420        10
39.440        27
39.460        23
39.480        37
39.500        33
39.520        17
39.540        27
39.560        53
39.580        30
39.600        37
39.620        27
39.640        30
39.660        23
39.680        50
39.700        33
39.720        20
39.740        10
39.760        13
39.780        13
39.800        17
39.820        23
39.840        17
39.860        17
39.880        13
39.900        10
39.920         7
39.940        17
39.960        20
39.980         7
40.000        13
40.020        17
40.040        17
40.060        10
40.080         7
40.100         0
40.120        20
40.140        17
40.160        20
40.180        17
40.200        13
40.220        30
40.240        17
40.260        13
40.280        13
40.300        33
40.320        17
40.340        13
40.360        20
40.380        13
40.400        13
40.420        17
40.440        13
40.460         7
40.480         7
40.500        10
40.520        17
40.540         7
40.560        13
40.580        10
40.600        20
40.620        13
40.640        13
40.660        17
40.680         7
40.700         0
40.720        10
40.740        17
40.760         0
40.780        17
40.800        20
40.820        23
40.840        20
40.860         7
40.880         3
40.900        17
40.920         7
40.940        23
40.960        17
40.980         7
41.000        17
41.020        20
41.040        10
41.060        13
41.080        17
41.100        17
41.120        13
41.140        10
41.160        10
41.180         7
41.200        10
41.220        23
41.240        10
41.260         7
41.280        27
41.300        37
41.320        13
41.340         7
41.360        20
41.380        13
41.400        20
41.420         7
41.440        10
41.460        17
41.480        13
41.500        17
41.520        10
41.540        13
41.560        20
41.580        10
41.600         7
41.620        13
41.640        13
41.660        20
41.680         3
41.700        17
41.720        20
41.740        20
41.760         3
41.780        27
41.800         3
41.820        27
41.840        17
41.860        27
41.880        20
41.900         3
41.920        20
41.940         3
41.960        23
41.980        20
42.000        23
42.020        20
42.040        20
42.060        10
42.080        17
42.100         7
42.120         3
42.140        10
42.160        10
42.180        10
42.200        20
42.220        20
42.240        10
42.260        17
42.280        20
42.300        13
42.320         0
42.340        37
42.360         3
42.380        13
42.400        43
42.420        13
42.440        13
42.460        27
42.480         3
42.500        20
42.520        23
42.540        17
42.560         7
42.580         7
42.600        13
42.620        37
42.640         7
42.660         7
42.680        17
42.700        17
42.720        17
42.740         7
42.760         7
42.780         7
42.800        17
42.820        17
42.840         3
42.860        27
42.880        17
42.900        20
42.920        10
42.940        20
42.960        30
42.980        33
43.000        23
43.020        33
43.040        30
43.060        20
43.080         7
43.100        13
43.120        27
43.140        13
43.160        23
43.180        20
43.200        23
43.220        10
43.240        23
43.260         7
43.280        20
43.300        20
43.320         3
43.340        17
43.360         7
43.380         7
43.400        10
43.420        17
43.440        20
43.460        10
43.480         0
43.500        20
43.520        23
43.540        23
43.560        13
43.580        20
43.600        13
43.620        17
43.640        17
43.660        10
43.680        23
43.700        10
43.720        17
43.740        20
43.760        13
43.780         7
43.800         3
43.820        20
43.840        13
43.860        20
43.880        20
43.900         7
43.920        17
43.940        20
43.960        10
43.980        20
44.000        20
44.020        20
44.040        17
44.060        33
44.080        10
44.100        20
44.120        13
44.140        23
44.160        17
44.180         7
44.200        17
44.220         7
44.240        13
44.260        17
44.280        23
44.300        17
44.320        27
44.340        30
44.360        37
44.380        20
44.400        13
44.420        17
44.440        30
44.460        43
44.480        23
44.500        47
44.520        67
44.540        17
44.560        40
44.580        40
44.600        50
44.620        90
44.640        97
44.660       167
44.680       163
44.700       223
44.720       337
44.740       340
44.760       267
44.780       407
44.800       307
44.820       300
44.840       303
44.860       327
44.880       317
44.900       200
44.920       230
44.940       183
44.960       173
44.980       103
45.000        83
45.020        53
45.040        67
45.060        67
45.080        33
45.100        43
45.120        23
45.140        33
45.160        37
45.180        27
45.200        43
45.220        13
45.240        20
45.260        23
45.280        43
45.300        30
45.320        20
45.340        20
45.360        23
45.380        17
45.400        37
45.420        23
45.440        17
45.460        37
45.480        20
45.500        27
45.520        23
45.540        10
45.560        10
45.580        13
45.600        20
45.620        17
45.640        23
45.660        23
45.680         7
45.700        20
45.720        33
45.740        30
45.760        20
45.780        17
45.800        20
45.820        20
45.840        33
45.860        10
45.880        17
45.900        33
45.920        33
45.940        23
45.960        27
45.980        40
46.000        27
46.020        23
46.040        30
46.060        17
46.080        37
46.100        27
46.120        23
46.140        23
46.160        23
46.180        20
46.200        27
46.220        17
46.240        27
46.260        17
46.280        20
46.300        27
46.320         7
46.340        17
46.360        17
46.380        10
46.400        17
46.420        20
46.440        27
46.460        20
46.480        27
46.500        13
46.520        27
46.540        13
46.560        10
46.580        20
46.600        13
46.620        27
46.640        23
46.660        17
46.680        20
46.700        20
46.720        20
46.740        30
46.760        13
46.780        30
46.800        10
46.820        23
46.840        17
46.860        13
46.880        13
46.900        17
46.920         0
46.940        20
46.960        13
46.980         7
47.000        10
47.020        23
47.040        20
47.060        20
47.080         7
47.100         3
47.120        23
47.140        20
47.160        10
47.180        13
47.200        13
47.220        10
47.240        10
47.260        13
47.280        30
47.300        13
47.320        17
47.340        13
47.360        17
47.380        20
47.400         3
47.420        13
47.440        33
47.460        23
47.480        23
47.500        27
47.520        17
47.540        30
47.560        17
47.580         7
47.600        20
47.620        13
47.640        30
47.660        20
47.680        10
47.700        30
47.720        10
47.740        43
47.760        13
47.780         7
47.800        20
47.820        23
47.840        17
47.860        20
47.880         0
47.900         7
47.920        17
47.940        33
47.960        13
47.980        20
48.000         7
48.020        17
48.040         3
48.060         7
48.080        20
48.100         7
48.120        13
48.140        33
48.160        33
48.180        20
48.200        17
48.220        10
48.240        10
48.260        20
48.280        13
48.300        30
48.320        20
48.340        17
48.360        37
48.380        27
48.400        23
48.420        30
48.440        17
48.460        13
48.480        23
48.500         7
48.520        23
48.540        20
48.560        23
48.580        13
48.600        23
48.620         7
48.640        10
48.660        20
48.680        13
48.700        10
48.720        10
48.740        17
48.760        17
48.780        30
48.800        17
48.820        20
48.840        27
48.860        17
48.880        13
48.900        23
48.920        13
48.940        13
48.960        17
48.980        17
49.000        10
49.020         7
49.040        10
49.060        13
49.080        13
49.100        10
49.120        10
49.140        13
49.160        20
49.180        20
49.200         7
49.220        30
49.240        17
49.260        27
49.280        13
49.300        20
49.320        17
49.340        13
49.360         3
49.380        10
49.400        27
49.420        13
49.440         7
49.460        13
49.480         7
49.500        10
49.520        23
49.540        13
49.560        17
49.580        23
49.600         7
49.620        10
49.640        17
49.660         0
49.680        10
49.700         7
49.720        10
49.740        17
49.760        23
49.780        20
49.800        27
49.820        20
49.840         7
49.860        30
49.880         7
49.900         7
49.920        17
49.940        10
49.960         7
49.980        37
50.000        20
50.020        10
50.040        23
50.060        27
50.080        17
50.100        17
50.120         7
50.140        20
50.160        10
50.180        10
50.200        13
50.220        27
50.240        13
50.260        13
50.280        23
50.300        10
50.320         3
50.340        13
50.360        23
50.380        13
50.400        17
50.420         7
50.440        20
50.460        10
50.480         7
50.500        17
50.520        23
50.540        37
50.560        10
50.580        13
50.600        30
50.620        17
50.640         3
50.660        17
50.680        17
50.700        23
50.720        23
50.740        10
50.760        13
50.780        10
50.800        37
50.820        13
50.840        10
50.860        13
50.880         3
50.900        17
50.920        13
50.940        27
50.960        13
50.980        20
51.000        13
51.020        17
51.040        37
51.060         7
51.080        20
51.100        13
51.120        17
51.140        10
51.160         7
51.180        20
51.200        23
51.220        10
51.240         7
51.260        10
51.280        13
51.300        20
51.320        23
51.340        23
51.360        10
51.380        20
51.400        17
51.420        23
51.440         3
51.460         7
51.480        13
51.500        20
51.520         7
51.540        13
51.560         7
51.580        23
51.600        23
51.620        27
51.640        17
51.660        17
51.680        13
51.700        30
51.720        10
51.740        17
51.760        20
51.780        37
51.800        20
51.820        17
51.840        30
51.860        33
51.880        17
51.900        20
51.920        43
51.940        33
51.960        33
51.980        13
52.000        23
52.020        30
52.040        23
52.060        30
52.080        33
52.100        10
52.120        17
52.140        30
52.160        10
52.180         7
52.200        17
52.220        23
52.240        23
52.260        27
52.280        30
52.300        40
52.320        23
52.340        33
52.360        17
52.380        33
52.400        40
52.420        23
52.440        63
52.460        23
52.480        27
52.500        60
52.520        50
52.540        43
52.560        63
52.580        93
52.600        60
52.620        83
52.640        60
52.660        70
52.680        67
52.700        70
52.720        47
52.740        50
52.760        37
52.780        70
52.800        23
52.820        40
52.840        30
52.860        10
52.880        37
52.900        33
52.920        27
52.940        20
52.960        20
52.980        27
53.000        33
53.020        33
53.040        17
53.060        20
53.080        40
53.100        17
53.120        27
53.140        10
53.160        17
53.180        17
53.200        30
53.220        27
53.240        17
53.260        13
53.280        10
53.300        20
53.320        33
53.340        17
53.360         7
53.380        20
53.400        20
53.420        27
53.440        43
53.460        20
53.480        10
53.500        17
53.520        27
53.540        20
53.560         7
53.580        17
53.600        17
53.620        13
53.640        13
53.660        20
53.680        10
53.700        13
53.720        10
53.740        10
53.760        23
53.780        17
53.800        13
53.820         0
53.840        17
53.860        40
53.880        17
53.900        23
53.920        20
53.940        20
53.960        10
53.980         7
54.000        13
54.020        23
54.040        27
54.060        13
54.080        10
54.100        17
54.120        10
54.140         7
54.160        13
54.180        10
54.200        13
54.220        13
54.240        23
54.260         0
54.280        20
54.300        13
54.320        17
54.340        10
54.360        17
54.380         3
54.400         7
54.420        17
54.440        13
54.460         7
54.480        10
54.500        20
54.520        10
54.540        27
54.560        17
54.580         7
54.600        10
54.620         3
54.640        17
54.660         7
54.680        17
54.700        13
54.720        20
54.740        17
54.760        17
54.780        10
54.800        23
54.820        17
54.840        17
54.860        20
54.880        17
54.900        27
54.920        23
54.940        10
54.960        20
54.980         7
55.000        13
55.020        20
55.040        10
55.060        17
55.080         7
55.100        13
55.120         3
55.140        20
55.160         7
55.180        20
55.200        17
55.220        10
55.240         7
55.260         7
55.280        13
55.300        33
55.320        13
55.340        27
55.360        23
55.380        23
55.400        23
55.420        33
55.440        47
55.460        43
55.480        30
55.500        87
55.520        60
55.540        80
55.560        77
55.580        80
55.600        93
55.620        70
55.640        40
55.660        43
55.680        50
55.700        57
55.720        53
55.740        67
55.760        50
55.780        33
55.800        40
55.820        43
55.840        37
55.860        40
55.880        23
55.900        23
55.920        27
55.940        23
55.960        33
55.980        17
56.000        33
56.020        30
56.040        10
56.060        30
56.080        13
56.100        17
56.120        20
56.140        17
56.160        17
56.180        23
56.200        13
56.220        17
56.240        17
56.260        10
56.280         7
56.300        27
56.320        17
56.340        13
56.360        20
56.380         7
56.400        10
56.420        13
56.440        27
56.460        10
56.480        17
56.500        13
56.520         3
56.540         3
56.560         3
56.580        23
56.600        13
56.620         7
56.640        23
56.660        10
56.680        17
56.700        13
56.720        37
56.740        10
56.760        23
56.780        10
56.800         7
56.820        20
56.840         7
56.860        10
56.880         0
56.900        13
56.920        10
56.940        13
56.960        20
56.980         7
57.000         7
57.020        13
57.040        23
57.060        13
57.080        10
57.100         7
57.120        20
57.140        13
57.160        23
57.180        17
57.200        30
57.220         3
57.240        27
57.260        13
57.280         7
57.300        17
57.320        23
57.340        20
57.360        10
57.380        13
57.400        13
57.420         3
57.440        27
57.460         7
57.480        33
57.500         7
57.520        17
57.540         0
57.560        23
57.580         3
57.600         7
57.620        23
57.640        13
57.660        27
57.680         0
57.700         3
57.720         7
57.740         3
57.760         3
57.780        13
57.800         0
57.820         7
57.840        23
57.860        13
57.880         7
57.900        10
57.920        13
57.940        17
57.960         3
57.980         3
58.000        13
58.020        13
58.040        23
58.060        20
58.080        13
58.100        90
58.120        10
58.140         0
58.160        13
58.180        10
58.200        10
58.220         7
58.240         7
58.260        13
58.280         7
58.300         7
58.320        10
58.340        17
58.360        13
58.380        17
58.400         7
58.420        13
58.440        27
58.460        23
58.480         7
58.500        13
58.520         7
58.540         0
58.560         7
58.580        17
58.600        13
58.620        10
58.640        13
58.660        13
58.680        10
58.700         3
58.720        20
58.740         3
58.760        20
58.780        20
58.800        17
58.820        23
58.840        20
58.860         7
58.880         7
58.900        10
58.920        10
58.940        10
58.960         3
58.980        30
59.000        13
59.020         3
59.040         7
59.060        20
59.080        10
59.100        13
59.120         7
59.140        17
59.160         0
59.180        13
59.200        10
59.220        17
59.240        13
59.260        17
59.280         0
59.300        10
59.320        13
59.340        17
59.360        17
59.380         7
59.400        17
59.420         7
59.440         7
59.460        13
59.480         7
59.500        13
59.520         7
59.540        10
59.560        13
59.580        10
59.600        10
59.620         7
59.640        17
59.660         7
59.680         3
59.700         7
59.720         3
59.740        13
59.760        23
59.780        17
59.800         7
59.820        10
59.840        10
59.860        10
59.880        23
59.900        10
59.920         7
59.940        13
59.960        17
59.980         7
60.000         7
