20.000        30
20.020        30
20.040        37
20.060        37
20.080        60
20.100        37
20.120        33
20.140        43
20.160        37
20.180        60
20.200        40
20.220        40
20.240        53
20.260        30
20.280        43
20.300        50
20.320        27
20.340        43
20.360        37
20.380        37
20.400        57
20.420        60
20.440        27
20.460        40
20.480        20
20.500        23
20.520        53
20.540        67
20.560        43
20.580        23
20.600        37
20.620        33
20.640        60
20.660        20
20.680        27
20.700        27
20.720        43
20.740        37
20.760        33
20.780        50
20.800        53
20.820        33
20.840        50
20.860        50
20.880        60
20.900        37
20.920        20
20.940        50
20.960        40
20.980        47
21.000        40
21.020        60
21.040        20
21.060        23
21.080        30
21.100        50
21.120        40
21.140        27
21.160        30
21.180        23
21.200        47
21.220        30
21.240        27
21.260        37
21.280        33
21.300        30
21.320        20
21.340        30
21.360        40
21.380        63
21.400        57
21.420        30
21.440        43
21.460        50
21.480        43
21.500        30
21.520        40
21.540        27
21.560        30
21.580        33
21.600        37
21.620        27
21.640        53
21.660        33
21.680        40
21.700        37
21.720        27
21.740        37
21.760        20
21.780        33
21.800        37
21.820        50
21.840        50
21.860        30
21.880        33
21.900        47
21.920        53
21.940        57
21.960        50
21.980        30
22.000        63
22.020        30
22.040        30
22.060        30
22.080        53
22.100        63
22.120        43
22.140        40
22.160        43
22.180        53
22.200        63
22.220        10
22.240        47
22.260        33
22.280        30
22.300        20
22.320        33
22.340        33
22.360        37
22.380        37
22.400        50
22.420        50
22.440        40
22.460        23
22.480        27
22.500        43
22.520        40
22.540        43
22.560        40
22.580        50
22.600        43
22.620        53
22.640        37
22.660        40
22.680        30
22.700        43
22.720        30
22.740        67
22.760        43
22.780        33
22.800        37
22.820        43
22.840        43
22.860        30
22.880        13
22.900        37
22.920        27
22.940        47
22.960        33
22.980        27
23.000        40
23.020        37
23.040        60
23.060        20
23.080        10
23.100        37
23.120        20
23.140        27
23.160        53
23.180        43
23.200        27
23.220        37
23.240        47
23.260        40
23.280        30
23.300        30
23.320        13
23.340        23
23.360        50
23.380        13
23.400        27
23.420        33
23.440        47
23.460        40
23.480        37
23.500        23
23.520        20
23.540        30
23.560        13
23.580        27
23.600        43
23.620        30
23.640        57
23.660        27
23.680        27
23.700        23
23.720        13
23.740        37
23.760        37
23.780        50
23.800        27
23.820        27
23.840        60
23.860        27
23.880       140
23.900        30
23.920        13
23.940        23
23.960        30
23.980        27
24.000        53
24.020        23
24.040        23
24.060        37
24.080        30
24.100        17
24.120        23
24.140        30
24.160        33
24.180        60
24.200        37
24.220        17
24.240        43
24.260        40
24.280        37
24.300        27
24.320        17
24.340        13
24.360        33
24.380        30
24.400        30
24.420        43
24.440        43
24.460        33
24.480        47
24.500        53
24.520        43
24.540        23
24.560        17
24.580        13
24.600        10
24.620        40
24.640        47
24.660        30
24.680        30
24.700        30
24.720        27
24.740        50
24.760        33
24.780        40
24.800        30
24.820        27
24.840        30
24.860        37
24.880        13
24.900        37
24.920        37
24.940        30
24.960        23
24.980        33
25.000        30
25.020        43
25.040        30
25.060        30
25.080        17
25.100        40
25.120        23
25.140        30
25.160        33
25.180        20
25.200        43
25.220        27
25.240        33
25.260        43
25.280        37
25.300        30
25.320        27
25.340        40
25.360        40
25.380        23
25.400        20
25.420        27
25.440        33
25.460        27
25.480        30
25.500        47
25.520        27
25.540        27
25.560        20
25.580        20
25.600        33
25.620        47
25.640        17
25.660        23
25.680        27
25.700        33
25.720        37
25.740        30
25.760        27
25.780        40
25.800        23
25.820        17
25.840        27
25.860        17
25.880        43
25.900        27
25.920        23
25.940        23
25.960        17
25.980        23
26.000        13
26.020        27
26.040        33
26.060        27
26.080        37
26.100        30
26.120        33
26.140        33
26.160        37
26.180        17
26.200        57
26.220        20
26.240        20
26.260        30
26.280        30
26.300        40
26.320        30
26.340        40
26.360        43
26.380        37
26.400        17
26.420        13
26.440        40
26.460        27
26.480        30
26.500        53
26.520        17
26.540        33
26.560        30
26.580        43
26.600        20
26.620        37
26.640        27
26.660        33
26.680        27
26.700        27
26.720        33
26.740        27
26.760        40
26.780        23
26.800        17
26.820        27
26.840        37
26.860        33
26.880        40
26.900        33
26.920        23
26.940        40
26.960        23
26.980        23
27.000        27
27.020        50
27.040        33
27.060        20
27.080        37
27.100        23
27.120        47
27.140        37
27.160        27
27.180        27
27.200        43
27.220        13
27.240        30
27.260        23
27.280        20
27.300        20
27.320        27
27.340        27
27.360        17
27.380        20
27.400        23
27.420        20
27.440        10
27.460        33
27.480        23
27.500        40
27.520        13
27.540        27
27.560        13
27.580        27
27.600        37
27.620        27
27.640        20
27.660        20
27.680        37
27.700        27
27.720        20
27.740        20
27.760        17
27.780        57
27.800        27
27.820        20
27.840        20
27.860        27
27.880        37
27.900        30
27.920        30
27.940        30
27.960        33
27.980        30
28.000        23
28.020        27
28.040        40
28.060        33
28.080        30
28.100        20
28.120        43
28.140        33
28.160        47
28.180        57
28.200        30
28.220        47
28.240        70
28.260        40
28.280        23
28.300        30
28.320        27
28.340        30
28.360        30
28.380        40
28.400        30
28.420        43
28.440        17
28.460        20
28.480        33
28.500        30
28.520        43
28.540        30
28.560        47
28.580        33
28.600        37
28.620        20
28.640        30
28.660        27
28.680        23
28.700        33
28.720        30
28.740        17
28.760        27
28.780        23
28.800        23
28.820        20
28.840        17
28.860        33
28.880        23
28.900        13
28.920        27
28.940        27
28.960        20
28.980        20
29.000        40
29.020        17
29.040        23
29.060        47
29.080        30
29.100        20
29.120        17
29.140        37
29.160        17
29.180        37
29.200        60
29.220        37
29.240        20
29.260        50
29.280        37
29.300        33
29.320        23
29.340        30
29.360        37
29.380         3
29.400        37
29.420        37
29.440        17
29.460        13
29.480        43
29.500        27
29.520        43
29.540        20
29.560        13
29.580        43
29.600        23
29.620        23
29.640        27
29.660        33
29.680        20
29.700        37
29.720        20
29.740        30
29.760        43
29.780        17
29.800        27
29.820        43
29.840        27
29.860        47
29.880        10
29.900        37
29.920        27
29.940        40
29.960        33
29.980        27
30.000        30
30.020        13
30.040        17
30.060        43
30.080        37
30.100        47
30.120        33
30.140        37
30.160        30
30.180        23
30.200        37
30.220        30
30.240        30
30.260        40
30.280        60
30.300        30
30.320        37
30.340        43
30.360        37
30.380        50
30.400        40
30.420        27
30.440        37
30.460        53
30.480        43
30.500        50
30.520        30
30.540        60
30.560        30
30.580        40
30.600        47
30.620        63
30.640        37
30.660        37
30.680        47
30.700        50
30.720        50
30.740        83
30.760        73
30.780        67
30.800        70
30.820        40
30.840        67
30.860        80
30.880        70
30.900       100
30.920       123
30.940       140
30.960       140
30.980       167
31.000       210
31.020       253
31.040       310
31.060       380
31.080       500
31.100       590
31.120       776
31.140      1160
31.160      1403
31.180      2126
31.200      2646
31.220      2929
31.240      3112
31.260      2806
31.280      2409
31.300      1983
31.320      1803
31.340      1349
31.360       843
31.380       670
31.400       463
31.420       260
31.440       180
31.460       227
31.480       160
31.500       133
31.520       107
31.540       103
31.560        93
31.580       113
31.600       100
31.620       103
31.640        43
31.660        67
31.680        73
31.700        73
31.720        67
31.740        50
31.760        73
31.780        53
31.800        53
31.820        63
31.840        33
31.860        57
31.880        37
31.900        33
31.920        40
31.940        23
31.960        30
31.980        37
32.000        43
32.020        27
32.040        27
32.060        40
32.080        33
32.100        53
32.120        53
32.140        17
32.160        43
32.180        57
32.200        50
32.220        30
32.240        27
32.260        37
32.280        23
32.300        43
32.320        23
32.340        67
32.360        37
32.380        47
32.400        33
32.420        37
32.440        43
32.460        27
32.480        20
32.500        33
32.520        40
32.540        43
32.560        43
32.580        37
32.600        30
32.620        20
32.640        40
32.660        37
32.680        37
32.700        37
32.720        30
32.740        30
32.760        20
32.780        27
32.800        27
32.820        47
32.840        30
32.860        33
32.880        33
32.900        30
32.920        43
32.940        47
32.960        37
32.980        40
33.000        40
33.020        33
33.040        23
33.060        30
33.080        63
33.100        27
33.120        20
33.140        30
33.160        33
33.180        10
33.200        13
33.220        17
33.240        27
33.260        33
33.280        37
33.300        33
33.320        17
33.340        13
33.360        33
33.380         7
33.400        30
33.420        40
33.440        43
33.460        40
33.480        47
33.500        20
33.520        37
33.540        50
33.560        20
33.580        20
33.600        33
33.620        23
33.640        43
33.660        23
33.680        40
33.700        37
33.720        60
33.740        10
33.760        37
33.780        43
33.800        57
33.820        43
33.840        47
33.860        50
33.880        43
33.900        33
33.920        33
33.940        57
33.960        73
33.980        60
34.000        57
34.020        50
34.040        60
34.060        57
34.080        63
34.100        27
34.120        70
34.140        60
34.160        57
34.180        70
34.200        80
34.220        40
34.240        70
34.260        33
34.280        43
34.300        40
34.320        33
34.340        37
34.360        50
34.380        27
34.400        33
34.420        40
34.440        33
34.460        47
34.480        37
34.500        23
34.520        23
34.540        33
34.560        23
34.580        23
34.600        43
34.620        23
34.640        33
34.660        23
34.680        30
34.700        33
34.720        13
34.740        30
34.760        23
34.780        33
34.800        27
34.820        30
34.840        27
34.860        30
34.880        20
34.900        37
34.920        43
34.940        30
34.960        23
34.980        27
35.000        60
35.020        30
35.040        37
35.060        17
35.080        20
35.100        30
35.120        40
35.140        20
35.160        27
35.180        47
35.200        33
35.220        37
35.240        17
35.260        33
35.280        13
35.300        27
35.320        33
35.340        27
35.360        30
35.380        23
35.400        17
35.420        20
35.440        10
35.460        33
35.480        30
35.500        30
35.520        27
35.540        17
35.560        43
35.580        20
35.600        10
35.620        43
35.640        23
35.660        23
35.680        23
35.700        40
35.720        20
35.740         7
35.760        20
35.780        23
35.800        17
35.820        20
35.840        33
35.860        27
35.880        20
35.900        23
35.920        20
35.940        30
35.960        33
35.980        23
36.000        10
36.020        33
36.040        27
36.060        13
36.080        23
36.100        17
36.120        23
36.140        27
36.160        37
36.180        33
36.200        17
36.220        10
36.240        23
36.260        30
36.280        43
36.300        27
36.320        33
36.340        20
36.360        17
36.380        27
36.400        20
36.420        13
36.440        13
36.460        23
36.480        33
36.500        33
36.520        27
36.540        17
36.560        40
36.580        17
36.600        17
36.620        47
36.640        20
36.660        10
36.680        20
36.700        20
36.720        17
36.740        30
36.760        30
36.780        23
36.800        13
36.820        13
36.840        20
36.860        23
36.880        20
36.900        40
36.920        37
36.940        40
36.960        20
36.980        27
37.000        37
37.020        20
37.040        37
37.060        30
37.080        13
37.100        27
37.120        33
37.140         7
37.160        13
37.180        27
37.200        30
37.220        27
37.240        20
37.260        33
37.280        20
37.300        33
37.320        33
37.340        17
37.360        27
37.380        30
37.400        20
37.420        23
37.440        13
37.460        37
37.480        10
37.500        27
37.520        27
37.540        23
37.560        10
37.580        27
37.600        33
37.620        33
37.640        23
37.660        13
37.680        27
37.700        30
37.720        37
37.740        20
37.760        30
37.780        27
37.800        50
37.820        27
37.840        13
37.860        27
37.880        10
37.900        17
37.920        40
37.940        30
37.960        23
37.980        27
38.000        40
38.020        17
38.040        37
38.060        17
38.080        13
38.100        37
38.120        37
38.140        30
38.160        60
38.180        23
38.200        20
38.220        13
38.240        17
38.260        13
38.280        30
38.300        43
38.320        23
38.340        37
38.360        27
38.380        23
38.400        43
38.420        27
38.440        43
38.460        47
38.480        47
38.500        57
38.520        53
38.540        70
38.560        43
38.580        37
38.600        50
38.620        53
38.640        37
38.660        37
38.680        20
38.700        33
38.720        10
38.740        33
38.760        43
38.780        17
38.800        27
38.820        37
38.840        30
38.860        10
38.880         7
38.900        10
38.920        33
38.940        17
38.960        13
38.980        13
39.000        13
39.020        20
39.040        27
39.060        23
39.080        10
39.100        20
39.120        30
39.140        27
39.160        20
39.180        10
39.200        33
39.220        23
39.240        20
39.260        30
39.280        40
39.300        17
39.320        13
39.340        30
39.360        23
39.380        10
39.400         7
39.420        20
39.440        23
39.460        27
39.480        23
39.500        33
39.520        27
39.540        13
39.560        20
39.580         7
39.600        13
39.620        20
39.640        27
39.660        23
39.680        13
39.700        17
39.720        10
39.740        43
39.760         3
39.780        23
39.800        13
39.820        27
39.840        20
39.860         7
39.880        20
39.900        23
39.920        17
39.940        20
39.960         3
39.980        17
40.000        30
40.020        17
40.040        23
40.060        17
40.080        13
40.100        17
40.120        10
40.140        23
40.160        17
40.180         7
40.200        17
40.220        17
40.240         0
40.260        27
40.280        20
40.300        30
40.320         3
40.340         3
40.360        27
40.380        27
40.400        13
40.420        30
40.440        23
40.460        30
40.480        17
40.500        23
40.520        30
40.540        13
40.560        13
40.580        30
40.600        10
40.620        17
40.640        13
40.660        23
40.680        17
40.700        30
40.720        23
40.740        20
40.760        30
40.780        17
40.800        27
40.820        13
40.840        17
40.860        27
40.880        17
40.900        23
40.920        10
40.940        20
40.960        13
40.980        13
41.000        17
41.020        30
41.040        10
41.060        20
41.080        17
41.100        27
41.120        33
41.140        17
41.160         7
41.180        30
41.200        10
41.220        33
41.240        10
41.260        27
41.280        27
41.300        17
41.320        13
41.340        10
41.360        20
41.380        20
41.400        10
41.420        13
41.440        23
41.460         7
41.480        17
41.500        33
41.520        17
41.540        23
41.560        17
41.580        33
41.600        10
41.620        17
41.640        30
41.660        37
41.680        60
41.700        50
41.720        70
41.740        47
41.760        37
41.780        30
41.800        43
41.820        23
41.840        23
41.860        37
41.880        33
41.900        27
41.920        10
41.940        20
41.960        23
41.980        30
42.000        13
42.020        13
42.040         3
42.060        30
42.080        17
42.100        13
42.120        20
42.140        13
42.160        10
42.180        33
42.200        20
42.220        17
42.240        17
42.260        27
42.280        13
42.300        33
42.320        27
42.340        37
42.360        13
42.380         3
42.400         3
42.420        20
42.440        20
42.460        10
42.480        23
42.500        20
42.520        23
42.540         7
42.560        27
42.580        10
42.600        20
42.620        20
42.640        13
42.660        30
42.680        23
42.700        33
42.720        20
42.740        27
42.760        27
42.780         7
42.800         7
42.820        20
42.840        33
42.860         3
42.880        27
42.900        10
42.920        17
42.940        17
42.960        23
42.980        20
43.000        17
43.020        23
43.040        13
43.060        17
43.080        17
43.100        37
43.120        30
43.140        27
43.160        20
43.180        23
43.200        27
43.220        20
43.240        37
43.260        37
43.280        20
43.300        20
43.320        27
43.340        27
43.360        20
43.380         7
43.400        27
43.420        20
43.440        33
43.460        23
43.480        13
43.500        23
43.520        10
43.540         7
43.560        27
43.580        23
43.600        17
43.620        27
43.640        13
43.660        17
43.680        23
43.700        10
43.720        20
43.740        23
43.760         7
43.780        17
43.800        23
43.820        10
43.840        17
43.860        23
43.880        27
43.900        37
43.920         0
43.940        10
43.960        17
43.980        17
44.000        17
44.020        23
44.040        13
44.060        20
44.080        30
44.100         7
44.120        23
44.140         7
44.160        17
44.180        23
44.200        13
44.220         3
44.240        13
44.260        33
44.280        30
44.300        27
44.320        20
44.340        23
44.360        20
44.380        10
44.400        20
44.420        27
44.440        17
44.460         3
44.480        20
44.500        17
44.520        33
44.540        20
44.560        23
44.580        50
44.600        27
44.620        40
44.640        27
44.660        67
44.680        27
44.700        33
44.720        23
44.740        57
44.760        37
44.780        47
44.800        33
44.820        43
44.840        43
44.860        37
44.880        13
44.900        30
44.920        23
44.940        40
44.960        17
44.980        30
45.000        30
45.020        27
45.040        23
45.060        17
45.080        17
45.100        27
45.120        17
45.140        17
45.160        10
45.180        27
45.200        20
45.220        20
45.240        17
45.260        37
45.280        10
45.300        27
45.320        17
45.340        20
45.360         7
45.380        23
45.400        20
45.420         7
45.440        10
45.460        23
45.480        20
45.500        10
45.520        67
45.540        17
45.560        20
45.580        10
45.600        20
45.620         3
45.640        17
45.660        20
45.680        20
45.700        20
45.720        20
45.740         7
45.760        17
45.780        20
45.800        13
45.820        20
45.840        30
45.860        13
45.880        17
45.900        27
45.920        10
45.940         7
45.960         3
45.980         7
46.000        33
46.020        27
46.040        27
46.060        17
46.080        40
46.100        13
46.120        17
46.140        20
46.160        20
46.180        13
46.200        20
46.220        13
46.240        23
46.260        20
46.280        30
46.300        17
46.320        27
46.340        13
46.360         7
46.380        23
46.400        10
46.420        17
46.440        13
46.460        10
46.480        20
46.500        17
46.520        20
46.540        10
46.560        20
46.580        27
46.600        23
46.620        17
46.640         7
46.660        13
46.680        13
46.700        10
46.720        13
46.740        23
46.760        20
46.780        17
46.800        20
46.820         7
46.840        17
46.860        20
46.880        13
46.900        23
46.920        10
46.940        17
46.960        17
46.980        23
47.000        20
47.020        20
47.040        20
47.060        20
47.080        20
47.100        27
47.120        23
47.140        20
47.160        23
47.180        13
47.200        30
47.220        17
47.240        40
47.260        23
47.280        27
47.300        17
47.320        23
47.340        17
47.360         7
47.380        37
47.400         7
47.420        23
47.440        13
47.460        27
47.480         7
47.500        23
47.520        13
47.540        17
47.560        23
47.580        10
47.600        13
47.620        13
47.640        10
47.660        17
47.680        30
47.700        17
47.720        33
47.740        10
47.760        13
47.780         7
47.800        13
47.820        13
47.840        13
47.860         0
47.880        23
47.900        23
47.920        23
47.940        13
47.960        23
47.980        27
48.000        27
48.020         7
48.040        17
48.060         7
48.080        17
48.100        13
48.120        13
48.140        23
48.160        20
48.180        23
48.200        20
48.220        23
48.240         7
48.260        27
48.280        17
48.300        27
48.320        17
48.340        20
48.360         3
48.380        20
48.400        13
48.420        17
48.440        10
48.460        20
48.480        13
48.500        30
48.520         7
48.540        10
48.560        13
48.580        10
48.600         7
48.620        17
48.640        10
48.660        17
48.680         3
48.700        13
48.720        10
48.740         7
48.760        17
48.780        10
48.800        13
48.820        17
48.840        17
48.860        27
48.880        17
48.900         7
48.920        40
48.940        23
48.960        30
48.980        20
49.000         7
49.020        17
49.040         3
49.060        10
49.080        30
49.100        10
49.120         3
49.140        20
49.160        23
49.180         3
49.200        13
49.220        17
49.240        17
49.260         3
49.280        13
49.300         3
49.320        17
49.340        10
49.360         3
49.380         3
49.400        10
49.420        20
49.440        23
49.460        10
49.480        20
49.500         0
49.520        17
49.540        27
49.560        13
49.580        20
49.600        13
49.620        20
49.640        27
49.660        13
49.680        20
49.700        20
49.720        17
49.740        13
49.760        20
49.780        13
49.800        30
49.820        30
49.840        27
49.860        17
49.880        13
49.900        10
49.920        23
49.940        10
49.960        33
49.980        13
50.000         7
50.020        27
50.040        23
50.060        13
50.080        10
50.100        27
50.120         3
50.140         7
50.160         7
50.180        20
50.200        20
50.220        17
50.240         7
50.260        17
50.280        33
50.300        27
50.320        10
50.340        27
50.360        17
50.380        23
50.400        20
50.420        20
50.440        20
50.460        17
50.480        10
50.500        13
50.520        17
50.540        17
50.560        20
50.580        13
50.600        10
50.620         7
50.640        23
50.660        13
50.680        17
50.700        17
50.720        17
50.740        17
50.760        20
50.780        23
50.800        17
50.820        20
50.840         7
50.860         7
50.880        27
50.900        20
50.920        23
50.940        13
50.960        17
50.980        33
51.000        10
51.020        10
51.040        13
51.060        17
51.080        33
51.100        20
51.120        27
51.140        27
51.160        20
51.180         7
51.200        13
51.220         7
51.240        20
51.260        13
51.280        20
51.300        17
51.320        10
51.340        20
51.360        17
51.380        17
51.400        23
51.420        10
51.440        17
51.460        17
51.480        10
51.500        13
51.520        17
51.540        17
51.560        20
51.580         7
51.600        20
51.620        10
51.640         7
51.660         7
51.680        17
51.700         7
51.720        23
51.740        23
51.760        33
51.780        13
51.800        17
51.820        10
51.840        13
51.860        23
51.880        10
51.900        23
51.920        17
51.940        17
51.960        17
51.980        30
52.000        10
52.020        17
52.040        13
52.060        13
52.080        40
52.100         3
52.120        27
52.140        27
52.160        13
52.180        20
52.200        10
52.220        17
52.240         7
52.260        17
52.280        20
52.300         7
52.320        20
52.340         3
52.360        33
52.380         7
52.400        17
52.420        20
52.440        13
52.460        17
52.480        20
52.500        30
52.520        37
52.540        20
52.560        23
52.580        17
52.600        13
52.620        13
52.640        20
52.660        30
52.680        40
52.700        20
52.720        20
52.740        27
52.760         7
52.780        27
52.800        13
52.820        17
52.840        10
52.860        17
52.880        20
52.900        30
52.920        17
52.940        13
52.960        33
52.980         7
53.000        13
53.020        20
53.040        17
53.060        20
53.080        13
53.100        10
53.120        13
53.140        10
53.160        10
53.180        10
53.200        20
53.220        23
53.240        17
53.260        10
53.280         7
53.300        23
53.320         7
53.340         7
53.360        10
53.380         7
53.400         7
53.420        17
53.440         3
53.460         7
53.480        27
53.500        10
53.520        13
53.540        10
53.560        17
53.580        10
53.600        13
53.620        20
53.640        20
53.660        17
53.680        20
53.700        20
53.720        17
53.740        13
53.760        30
53.780        23
53.800        17
53.820        23
53.840         7
53.860        17
53.880        10
53.900        13
53.920        27
53.940        13
53.960        27
53.980        23
54.000        20
54.020        20
54.040        33
54.060        10
54.080        17
54.100        10
54.120        13
54.140         0
54.160        13
54.180        20
54.200        33
54.220        27
54.240        27
54.260        13
54.280        17
54.300        27
54.320        30
54.340        13
54.360        30
54.380        30
54.400        13
54.420        10
54.440         3
54.460        27
54.480        23
54.500        20
54.520        33
54.540        23
54.560        17
54.580        20
54.600        27
54.620        20
54.640        10
54.660        17
54.680        17
54.700        20
54.720        13
54.740        17
54.760        27
54.780        17
54.800        10
54.820        17
54.840        13
54.860        37
54.880        27
54.900        27
54.920        37
54.940        23
54.960        33
54.980        27
55.000        23
55.020        40
55.040        33
55.060        23
55.080        20
55.100        30
55.120        17
55.140        37
55.160        40
55.180        50
55.200        47
55.220        63
55.240        47
55.260        73
55.280        57
55.300        77
55.320        80
55.340       117
55.360       140
55.380       150
55.400       223
55.420       297
55.440       273
55.460       393
55.480       543
55.500       606
55.520       613
55.540       733
55.560       866
55.580       796
55.600       706
55.620       640
55.640       660
55.660       590
55.680       566
55.700       436
55.720       510
55.740       383
55.760       363
55.780       350
55.800       303
55.820       203
55.840       203
55.860       123
55.880        80
55.900        97
55.920        83
55.940        70
55.960        80
55.980        73
56.000        47
56.020        50
56.040        33
56.060        53
56.080        37
56.100        27
56.120        43
56.140        40
56.160        23
56.180        23
56.200        40
56.220        23
56.240        30
56.260        27
56.280        17
56.300         3
56.320        27
56.340        33
56.360        27
56.380        23
56.400        50
56.420        20
56.440        23
56.460        20
56.480        30
56.500        37
56.520        17
56.540        20
56.560        33
56.580        10
56.600        23
56.620        30
56.640        27
56.660        10
56.680         7
56.700        20
56.720         7
56.740        30
56.760         7
56.780         3
56.800        20
56.820        20
56.840        17
56.860        13
56.880        23
56.900        17
56.920        27
56.940        10
56.960        17
56.980        30
57.000        17
57.020        23
57.040        10
57.060        27
57.080        27
57.100        27
57.120        13
57.140        27
57.160         3
57.180        20
57.200        17
57.220        17
57.240         7
57.260        17
57.280        30
57.300        10
57.320         7
57.340        17
57.360        20
57.380        20
57.400        20
57.420        23
57.440        13
57.460        27
57.480        17
57.500        10
57.520        13
57.540        20
57.560        30
57.580        27
57.600        20
57.620        13
57.640        17
57.660        27
57.680        33
57.700        30
57.720        17
57.740        13
57.760        27
57.780        20
57.800        20
57.820        13
57.840         7
57.860        17
57.880        20
57.900        17
57.920        13
57.940        20
57.960        23
57.980        10
58.000        23
58.020        20
58.040         7
58.060        17
58.080        10
58.100        20
58.120        20
58.140        17
58.160        13
58.180        10
58.200        20
58.220        30
58.240        30
58.260        23
58.280        27
58.300         7
58.320        17
58.340        13
58.360        13
58.380        20
58.400        33
58.420        13
58.440        17
58.460         7
58.480        30
58.500        13
58.520        23
58.540        30
58.560        10
58.580        17
58.600        20
58.620        27
58.640         7
58.660        27
58.680        17
58.700        10
58.720        17
58.740         7
58.760        17
58.780        20
58.800        13
58.820         7
58.840        10
58.860        17
58.880         7
58.900        20
58.920        20
58.940        17
58.960        20
58.980        13
59.000        13
59.020        10
59.040        10
59.060        10
59.080         7
59.100        13
59.120        13
59.140        23
59.160        23
59.180        17
59.200        33
59.220        23
59.240        17
59.260        23
59.280        13
59.300        20
59.320        10
59.340        17
59.360        13
59.380         7
59.400        30
59.420        10
59.440        23
59.460         7
59.480        20
59.500        13
59.520        17
59.540         7
59.560         7
59.580        13
59.600        10
59.620        20
59.640         3
59.660        13
59.680         7
59.700         7
59.720        13
59.740        10
59.760        13
59.780        20
59.800        10
59.820        23
59.840        17
59.860         3
59.880        33
59.900        23
59.920        13
59.940         3
59.960        13
59.980        10
60.000        13
