20.000       253
20.020       267
20.040       257
20.060       243
20.080       260
20.100       313
20.120       230
20.140       193
20.160       280
20.180       303
20.200       273
20.220       273
20.240       277
20.260       337
20.280       330
20.300       283
20.320       277
20.340       290
20.360       253
20.380       280
20.400       197
20.420       223
20.440       243
20.460       243
20.480       307
20.500       290
20.520       233
20.540       227
20.560       250
20.580       187
20.600       217
20.620       213
20.640       260
20.660       213
20.680       290
20.700       247
20.720       237
20.740       253
20.760       213
20.780       183
20.800       217
20.820       297
20.840       207
20.860       317
20.880       243
20.900       277
20.920       213
20.940       190
20.960       240
20.980       173
21.000       257
21.020       193
21.040       217
21.060       257
21.080       247
21.100       210
21.120       223
21.140       193
21.160       203
21.180       237
21.200       253
21.220       227
21.240       223
21.260       237
21.280       187
21.300       233
21.320       197
21.340       217
21.360       197
21.380       240
21.400       217
21.420       220
21.440       173
21.460       197
21.480       230
21.500       187
21.520       213
21.540       233
21.560       220
21.580       147
21.600       200
21.620       193
21.640       210
21.660       187
21.680       207
21.700       217
21.720       213
21.740       170
21.760       207
21.780       160
21.800       160
21.820       190
21.840       237
21.860       193
21.880       160
21.900       207
21.920       173
21.940       187
21.960       137
21.980       187
22.000       190
22.020       140
22.040       147
22.060       193
22.080       150
22.100       163
22.120       183
22.140       170
22.160       200
22.180       120
22.200       180
22.220       193
22.240       197
22.260       153
22.280       187
22.300       160
22.320       147
22.340       167
22.360       130
22.380       137
22.400       197
22.420       170
22.440       167
22.460       120
22.480       117
22.500       167
22.520       133
22.540       113
22.560       123
22.580       137
22.600       167
22.620       147
22.640       167
22.660       143
22.680       120
22.700       127
22.720       180
22.740       133
22.760       153
22.780       153
22.800       160
22.820       103
22.840       157
22.860       147
22.880       187
22.900       130
22.920       177
22.940       153
22.960       153
22.980       173
23.000       157
23.020       147
23.040       127
23.060       123
23.080       177
23.100       130
23.120       133
23.140       150
23.160       167
23.180       107
23.200       140
23.220       137
23.240       143
23.260       140
23.280       140
23.300       160
23.320       190
23.340       140
23.360       117
23.380       180
23.400       117
23.420       167
23.440       137
23.460       193
23.480       137
23.500       170
23.520       120
23.540       153
23.560       173
23.580       130
23.600       127
23.620       187
23.640       153
23.660       177
23.680       180
23.700       127
23.720       180
23.740       163
23.760       157
23.780       157
23.800       147
23.820       170
23.840       170
23.860       143
23.880       160
23.900       190
23.920       163
23.940       150
23.960       170
23.980       140
24.000       160
24.020       123
24.040       120
24.060       103
24.080       163
24.100       170
24.120       140
24.140       133
24.160       180
24.180       117
24.200       170
24.220       130
24.240       167
24.260       147
24.280       177
24.300       153
24.320       170
24.340       187
24.360       117
24.380       140
24.400       137
24.420       177
24.440       140
24.460       170
24.480       120
24.500       153
24.520       130
24.540       153
24.560       120
24.580       143
24.600       123
24.620       183
24.640       163
24.660       153
24.680       150
24.700       153
24.720       157
24.740       133
24.760       150
24.780       153
24.800       160
24.820       157
24.840       120
24.860       177
24.880       143
24.900       170
24.920       180
24.940       140
24.960       107
24.980       137
25.000       117
25.020       183
25.040       120
25.060       150
25.080       120
25.100       117
25.120       103
25.140       127
25.160       120
25.180       110
25.200       157
25.220       100
25.240       113
25.260       150
25.280       123
25.300       173
25.320       117
25.340       103
25.360       117
25.380       150
25.400       120
25.420       117
25.440       107
25.460       130
25.480        93
25.500       127
25.520       103
25.540       120
25.560        97
25.580       117
25.600        77
25.620       107
25.640        67
25.660       103
25.680        67
25.700        93
25.720        90
25.740        47
25.760        40
25.780        97
25.800        80
25.820        60
25.840        80
25.860        60
25.880        60
25.900        67
25.920        43
25.940        77
25.960        70
25.980        77
26.000        57
26.020        73
26.040        50
26.060        63
26.080        67
26.100        90
26.120        57
26.140        57
26.160        47
26.180        77
26.200        63
26.220        67
26.240        60
26.260        73
26.280        47
26.300        43
26.320        60
26.340        60
26.360        50
26.380        53
26.400        67
26.420        67
26.440        53
26.460        57
26.480        77
26.500        77
26.520        50
26.540        33
26.560        47
26.580        63
26.600        43
26.620        43
26.640        60
26.660        53
26.680        77
26.700        47
26.720        90
26.740        40
26.760        57
26.780        70
26.800        53
26.820        50
26.840        37
26.860        40
26.880        70
26.900        20
26.920        73
26.940        63
26.960        43
26.980        43
27.000        60
27.020        47
27.040        60
27.060        70
27.080        50
27.100        63
27.120        57
27.140        40
27.160        50
27.180        77
27.200        47
27.220        53
27.240        43
27.260        57
27.280        63
27.300        57
27.320        70
27.340        50
27.360        37
27.380        60
27.400        77
27.420        40
27.440        53
27.460        27
27.480        43
27.500        67
27.520        80
27.540        30
27.560        60
27.580        27
27.600        33
27.620        83
27.640        47
27.660        57
27.680        37
27.700        53
27.720        27
27.740        70
27.760        63
27.780        90
27.800        50
27.820        53
27.840        60
27.860        47
27.880        43
27.900        27
27.920        80
27.940        47
27.960        53
27.980        40
28.000        47
28.020        53
28.040        70
28.060        50
28.080        33
28.100        23
28.120        50
28.140        57
28.160        40
28.180        50
28.200        47
28.220        53
28.240        47
28.260        40
28.280        60
28.300        57
28.320        60
28.340        87
28.360        57
28.380        27
28.400        50
28.420        63
28.440        47
28.460        50
28.480        53
28.500        60
28.520        33
28.540        40
28.560        40
28.580        60
28.600        33
28.620        40
28.640        57
28.660        73
28.680        57
28.700        60
28.720        40
28.740        57
28.760        23
28.780        47
28.800        53
28.820        53
28.840        57
28.860        43
28.880        47
28.900        53
28.920        87
28.940        53
28.960        53
28.980        63
29.000        67
29.020        57
29.040        67
29.060        43
29.080        60
29.100        60
29.120        53
29.140        70
29.160        70
29.180        80
29.200        67
29.220        60
29.240        83
29.260        80
29.280        90
29.300       103
29.320        77
29.340       110
29.360        87
29.380       130
29.400       140
29.420        97
29.440        80
29.460        87
29.480        83
29.500        67
29.520        47
29.540        73
29.560        70
29.580        57
29.600        73
29.620        60
29.640        60
29.660        77
29.680        33
29.700        60
29.720        53
29.740        53
29.760        73
29.780        50
29.800        67
29.820        67
29.840        77
29.860        53
29.880        40
29.900        40
29.920        50
29.940        73
29.960        67
29.980        57
30.000        70
30.020        60
30.040        70
30.060        67
30.080        43
30.100        57
30.120        50
30.140        70
30.160        43
30.180        67
30.200        47
30.220        67
30.240        63
30.260        53
30.280        40
30.300       110
30.320        50
30.340        57
30.360        53
30.380        60
30.400        53
30.420        90
30.440        47
30.460        73
30.480        73
30.500        83
30.520        43
30.540        47
30.560        63
30.580        57
30.600       110
30.620        80
30.640        83
30.660       123
30.680       113
30.700        83
30.720       130
30.740       127
30.760       130
30.780       120
30.800       183
30.820       217
30.840       203
30.860       287
30.880       353
30.900       393
30.920       377
30.940       353
30.960       277
30.980       250
31.000       230
31.020       173
31.040       203
31.060        80
31.080       137
31.100        93
31.120        83
31.140       103
31.160        73
31.180        83
31.200       130
31.220        87
31.240        73
31.260       103
31.280        97
31.300        93
31.320        67
31.340        90
31.360       117
31.380        53
31.400        67
31.420        93
31.440        80
31.460        77
31.480        80
31.500        67
31.520        83
31.540        90
31.560        80
31.580        80
31.600       113
31.620        73
31.640        90
31.660        83
31.680        70
31.700       117
31.720        90
31.740        87
31.760        87
31.780        93
31.800        93
31.820        67
31.840        87
31.860       110
31.880       100
31.900       133
31.920       127
31.940       110
31.960        97
31.980       140
32.000        90
32.020       113
32.040       113
32.060       147
32.080       200
32.100       220
32.120       340
32.140       423
32.160       283
32.180       163
32.200       130
32.220       120
32.240       120
32.260       100
32.280        83
32.300       127
32.320        73
32.340        83
32.360        60
32.380        90
32.400       110
32.420        83
32.440        67
32.460        87
32.480        80
32.500        83
32.520        73
32.540        83
32.560        77
32.580       113
32.600        70
32.620       110
32.640        80
32.660        97
32.680        90
32.700        80
32.720        57
32.740        93
32.760        90
32.780       110
32.800        90
32.820        90
32.840       110
32.860       100
32.880        70
32.900        70
32.920        97
32.940        70
32.960        77
32.980        90
33.000        83
33.020        90
33.040        80
33.060        83
33.080        67
33.100        93
33.120        83
33.140        53
33.160        97
33.180        97
33.200       103
33.220        97
33.240        93
33.260       103
33.280        67
33.300        97
33.320        80
33.340        77
33.360        77
33.380       100
33.400        70
33.420        87
33.440        87
33.460        93
33.480        60
33.500       107
33.520        63
33.540        73
33.560        90
33.580        83
33.600       110
33.620       100
33.640       120
33.660        93
33.680        90
33.700        80
33.720       100
33.740       103
33.760        67
33.780        90
33.800       110
33.820        87
33.840       110
33.860        87
33.880        47
33.900        90
33.920        87
33.940        87
33.960        70
33.980        83
34.000       103
34.020       103
34.040        80
34.060        87
34.080       103
34.100        70
34.120        80
34.140       117
34.160       110
34.180        90
34.200       103
34.220        57
34.240        97
34.260        73
34.280       127
34.300       100
34.320        90
34.340        87
34.360        67
34.380       123
34.400       127
34.420       123
34.440       143
34.460       130
34.480       130
34.500       150
34.520       183
34.540       183
34.560       213
34.580       147
34.600       150
34.620       160
34.640       157
34.660       173
34.680       143
34.700       123
34.720       130
34.740       153
34.760       160
34.780       140
34.800       130
34.820       133
34.840       153
34.860       163
34.880       150
34.900       160
34.920       173
34.940       173
34.960       163
34.980       173
35.000       163
35.020       143
35.040       193
35.060       150
35.080       153
35.100       147
35.120       167
35.140       133
35.160       223
35.180       150
35.200       203
35.220       193
35.240       183
35.260       220
35.280       210
35.300       237
35.320       167
35.340       213
35.360       287
35.380       327
35.400       420
35.420       703
35.440      1070
35.460      1383
35.480      1889
35.500      2066
35.520      2092
35.540      2379
35.560      2586
35.580      3465
35.600      6461
35.620     16167
35.640     26669
35.660     32750
35.680     31704
35.700     18429
35.720     13578
35.740     15984
35.760     17936
35.780     14058
35.800      5281
35.820      2059
35.840      1180
35.860       823
35.880       583
35.900       470
35.920       436
35.940       350
35.960       340
35.980       330
36.000       263
36.020       293
36.040       270
36.060       173
36.080       177
36.100       183
36.120       190
36.140       173
36.160       193
36.180       160
36.200       157
36.220       160
36.240       167
36.260       227
36.280       157
36.300       180
36.320       170
36.340       157
36.360       170
36.380       133
36.400       153
36.420       147
36.440       157
36.460       150
36.480       147
36.500       123
36.520       130
36.540       157
36.560       153
36.580       103
36.600       177
36.620       117
36.640       157
36.660       143
36.680       163
36.700       110
36.720       133
36.740       127
36.760       133
36.780       133
36.800       153
36.820       153
36.840       100
36.860       137
36.880       100
36.900       123
36.920       113
36.940       120
36.960       110
36.980       143
37.000       147
37.020       107
37.040       127
37.060       157
37.080       113
37.100       120
37.120       123
37.140       133
37.160       103
37.180       130
37.200       123
37.220       100
37.240       113
37.260       113
37.280       167
37.300       130
37.320       120
37.340       133
37.360       130
37.380       103
37.400        97
37.420        97
37.440        97
37.460        67
37.480       120
37.500       140
37.520       127
37.540       117
37.560       117
37.580       107
37.600       110
37.620       113
37.640       130
37.660       127
37.680       110
37.700       117
37.720       100
37.740       140
37.760       130
37.780        87
37.800       130
37.820       107
37.840       137
37.860        77
37.880       130
37.900       167
37.920       133
37.940       107
37.960       133
37.980       140
38.000        93
38.020       110
38.040       140
38.060       127
38.080       203
38.100       173
38.120       177
38.140       203
38.160       203
38.180       147
38.200       170
38.220       147
38.240       160
38.260       173
38.280       160
38.300       117
38.320       140
38.340       137
38.360       113
38.380       107
38.400       113
38.420       160
38.440       127
38.460       137
38.480       100
38.500       103
38.520        90
38.540       103
38.560       153
38.580       107
38.600        87
38.620       110
38.640        87
38.660        93
38.680       100
38.700        90
38.720       100
38.740       103
38.760       100
38.780       120
38.800       103
38.820        93
38.840       117
38.860       110
38.880       117
38.900        93
38.920        80
38.940       120
38.960        73
38.980        87
39.000        87
39.020       100
39.040       100
39.060        93
39.080        80
39.100       130
39.120        80
39.140       103
39.160       120
39.180       110
39.200       117
39.220       113
39.240       100
39.260       113
39.280       130
39.300       130
39.320       150
39.340       127
39.360       143
39.380       123
39.400       153
39.420       110
39.440       120
39.460       113
39.480       117
39.500       113
39.520       130
39.540       107
39.560       127
39.580        83
39.600       103
39.620       110
39.640       130
39.660        77
39.680       113
39.700        87
39.720       110
39.740        70
39.760       123
39.780        67
39.800       117
39.820        87
39.840       130
39.860        57
39.880        90
39.900        83
39.920        77
39.940       100
39.960        97
39.980       127
40.000       123
40.020       100
40.040       123
40.060        83
40.080       100
40.100       110
40.120       123
40.140       117
40.160       100
40.180        67
40.200        87
40.220        90
40.240       113
40.260        70
40.280        83
40.300       110
40.320        93
40.340       110
40.360        90
40.380        83
40.400        80
40.420        93
40.440       107
40.460        87
40.480        83
40.500        83
40.520        70
40.540        83
40.560       113
40.580       107
40.600       100
40.620        87
40.640        57
40.660        87
40.680       103
40.700       127
40.720       107
40.740        83
40.760        57
40.780        63
40.800        57
40.820        67
40.840        87
40.860       100
40.880        57
40.900        67
40.920        80
40.940        80
40.960       110
40.980       103
41.000        73
41.020       107
41.040        90
41.060        83
41.080       107
41.100        77
41.120       103
41.140        73
41.160        93
41.180        87
41.200        93
41.220       100
41.240        87
41.260        70
41.280        80
41.300        93
41.320        93
41.340        80
41.360        83
41.380       110
41.400        77
41.420        67
41.440        87
41.460        73
41.480        80
41.500        43
41.520        80
41.540        93
41.560        77
41.580        67
41.600        83
41.620        77
41.640        53
41.660        87
41.680        90
41.700        80
41.720        93
41.740        67
41.760        80
41.780        73
41.800        93
41.820        90
41.840        77
41.860       143
41.880        67
41.900       113
41.920        87
41.940        83
41.960        83
41.980       107
42.000        73
42.020        83
42.040        93
42.060        93
42.080        90
42.100        77
42.120        57
42.140        77
42.160        57
42.180        70
42.200        50
42.220        93
42.240        97
42.260       100
42.280        50
42.300       113
42.320        80
42.340        83
42.360        83
42.380        73
42.400        47
42.420       100
42.440        73
42.460       107
42.480        80
42.500       103
42.520        57
42.540        67
42.560        73
42.580        90
42.600        77
42.620        57
42.640        93
42.660        60
42.680        80
42.700        77
42.720        97
42.740        80
42.760        77
42.780        67
42.800        60
42.820        63
42.840        27
42.860        83
42.880        60
42.900        77
42.920        70
42.940        80
42.960        90
42.980        90
43.000       107
43.020        63
43.040        87
43.060        87
43.080       100
43.100        97
43.120       100
43.140        80
43.160        83
43.180       103
43.200        73
43.220        97
43.240        77
43.260       103
43.280        77
43.300       100
43.320        93
43.340        63
43.360        90
43.380       110
43.400        87
43.420        87
43.440        60
43.460        77
43.480        63
43.500        80
43.520        60
43.540        93
43.560        73
43.580        77
43.600        63
43.620        87
43.640        80
43.660        60
43.680       100
43.700       107
43.720        77
43.740        67
43.760        93
43.780       110
43.800        53
43.820        90
43.840        90
43.860        30
43.880        97
43.900        63
43.920        47
43.940        87
43.960        77
43.980        83
44.000       103
44.020        97
44.040        60
44.060        73
44.080        53
44.100        90
44.120        90
44.140        53
44.160        70
44.180        67
44.200        73
44.220        73
44.240        67
44.260        90
44.280        63
44.300        63
44.320        83
44.340        70
44.360        63
44.380        63
44.400        87
44.420        80
44.440       103
44.460        43
44.480        80
44.500        80
44.520        60
44.540        73
44.560        83
44.580        90
44.600        47
44.620        67
44.640        63
44.660        77
44.680        80
44.700        50
44.720        90
44.740        53
44.760        40
44.780        77
44.800        57
44.820        83
44.840        53
44.860        70
44.880        67
44.900        50
44.920        87
44.940        87
44.960        67
44.980        53
45.000       103
45.020        67
45.040        53
45.060        70
45.080        70
45.100        67
45.120        93
45.140        63
45.160        77
45.180        83
45.200        80
45.220        77
45.240       100
45.260        67
45.280        60
45.300        57
45.320        43
45.340        40
45.360        73
45.380        73
45.400        70
45.420        67
45.440        67
45.460        87
45.480        87
45.500        50
45.520        53
45.540        57
45.560        50
45.580        90
45.600        70
45.620       103
45.640        73
45.660        87
45.680       107
45.700        73
45.720        53
45.740        70
45.760        87
45.780        47
45.800        60
45.820        63
45.840        83
45.860        57
45.880        53
45.900        90
45.920        93
45.940        77
45.960        67
45.980        60
46.000        87
46.020        70
46.040        53
46.060        57
46.080        63
46.100        77
46.120        43
46.140        33
46.160        50
46.180        83
46.200        73
46.220        30
46.240        60
46.260        60
46.280        70
46.300        93
46.320        63
46.340        43
46.360        83
46.380        57
46.400        67
46.420        70
46.440        50
46.460        63
46.480        77
46.500        63
46.520        67
46.540        60
46.560        57
46.580        60
46.600        73
46.620        67
46.640        67
46.660        67
46.680        80
46.700        60
46.720        40
46.740        73
46.760        80
46.780        73
46.800        37
46.820        70
46.840        67
46.860        53
46.880        83
46.900        53
46.920        70
46.940        63
46.960        70
46.980        63
47.000        63
47.020        43
47.040       103
47.060        67
47.080        40
47.100        60
47.120        73
47.140        67
47.160        57
47.180        73
47.200        57
47.220        57
47.240        70
47.260        43
47.280        63
47.300        57
47.320        97
47.340        50
47.360        83
47.380        63
47.400        50
47.420        77
47.440       113
47.460        87
47.480        90
47.500       107
47.520        77
47.540        63
47.560        67
47.580        73
47.600        57
47.620        87
47.640        73
47.660        80
47.680        60
47.700        80
47.720        70
47.740        57
47.760        70
47.780        60
47.800        70
47.820        43
47.840        57
47.860        73
47.880        63
47.900        50
47.920        63
47.940        53
47.960        93
47.980        67
48.000        37
48.020        73
48.040        43
48.060        70
48.080        50
48.100        67
48.120        67
48.140       130
48.160       163
48.180       137
48.200        90
48.220       100
48.240        43
48.260        80
48.280        67
48.300        70
48.320        83
48.340       113
48.360        63
48.380        63
48.400        73
48.420        77
48.440        77
48.460        57
48.480        60
48.500        73
48.520        87
48.540        53
48.560        77
48.580        60
48.600        63
48.620        53
48.640        53
48.660        83
48.680        63
48.700        63
48.720        83
48.740        67
48.760        50
48.780        57
48.800        57
48.820        90
48.840        80
48.860        63
48.880        60
48.900        53
48.920        53
48.940        53
48.960        60
48.980        47
49.000        43
49.020        40
49.040        60
49.060        70
49.080        67
49.100        73
49.120        63
49.140        50
49.160        67
49.180        53
49.200        73
49.220        53
49.240        37
49.260        57
49.280        67
49.300        53
49.320        53
49.340        57
49.360        47
49.380        50
49.400        57
49.420        33
49.440        50
49.460        43
49.480        50
49.500        77
49.520        80
49.540        40
49.560        70
49.580        60
49.600        77
49.620        87
49.640        67
49.660        67
49.680        57
49.700        33
49.720        67
49.740        57
49.760        67
49.780        43
49.800        53
49.820        60
49.840        60
49.860        57
49.880        50
49.900        70
49.920        47
49.940        47
49.960        70
49.980        47
50.000        57
50.020        60
50.040        80
50.060        80
50.080        73
50.100        53
50.120        53
50.140        37
50.160        67
50.180        67
50.200        47
50.220        50
50.240        63
50.260        47
50.280        90
50.300        67
50.320        50
50.340        50
50.360        57
50.380        67
50.400        60
50.420        60
50.440        83
50.460        33
50.480        43
50.500        30
50.520        53
50.540        60
50.560        47
50.580        43
50.600        43
50.620        50
50.640        47
50.660        50
50.680        67
50.700        57
50.720        70
50.740        47
50.760        37
50.780        43
50.800        53
50.820        50
50.840        63
50.860        67
50.880        40
50.900        43
50.920        73
50.940        57
50.960        63
50.980        33
51.000        40
51.020        50
51.040        70
51.060        40
51.080        60
51.100        47
51.120        57
51.140        57
51.160        73
51.180        50
51.200        80
51.220        43
51.240        50
51.260        53
51.280        47
51.300        53
51.320        47
51.340        43
51.360        33
51.380        47
51.400        43
51.420        40
51.440        60
51.460        43
51.480        43
51.500        40
51.520        50
51.540        60
51.560        57
51.580        77
51.600        80
51.620        70
51.640        47
51.660        50
51.680        57
51.700        60
51.720        50
51.740        47
51.760        57
51.780        57
51.800        83
51.820        57
51.840        67
51.860        63
51.880        73
51.900        77
51.920        43
51.940        40
51.960        40
51.980        50
52.000        47
52.020        60
52.040        63
52.060        37
52.080        53
52.100        70
52.120        57
52.140        47
52.160        77
52.180        40
52.200        43
52.220        67
52.240        50
52.260        53
52.280        57
52.300        27
52.320        43
52.340        50
52.360        43
52.380        47
52.400        57
52.420        40
52.440        43
52.460        47
52.480        33
52.500        50
52.520        67
52.540        73
52.560        37
52.580        43
52.600        50
52.620        47
52.640        47
52.660        47
52.680        43
52.700        43
52.720        50
52.740        33
52.760        47
52.780        60
52.800        50
52.820        47
52.840        47
52.860        33
52.880        57
52.900        30
52.920        43
52.940        47
52.960        40
52.980        70
53.000        60
53.020        70
53.040        60
53.060        77
53.080        50
53.100        87
53.120        67
53.140        37
53.160        50
53.180        53
53.200        23
53.220        70
53.240        50
53.260        70
53.280        50
53.300        83
53.320        70
53.340        43
53.360        37
53.380        50
53.400        43
53.420        43
53.440        53
53.460        73
53.480        27
53.500        60
53.520        27
53.540        50
53.560        53
53.580        47
53.600        73
53.620        70
53.640        73
53.660        40
53.680        57
53.700        47
53.720        60
53.740        53
53.760        67
53.780        63
53.800        43
53.820        50
53.840        70
53.860        43
53.880        37
53.900        73
53.920        60
53.940        33
53.960        40
53.980        40
54.000        63
54.020        50
54.040        47
54.060        60
54.080        60
54.100        47
54.120        37
54.140        50
54.160        33
54.180        67
54.200        43
54.220        63
54.240        53
54.260        77
54.280        47
54.300        37
54.320        33
54.340        57
54.360        43
54.380        63
54.400        43
54.420        57
54.440        70
54.460        57
54.480        70
54.500        60
54.520        67
54.540        50
54.560        80
54.580        43
54.600        77
54.620        70
54.640        87
54.660        90
54.680       133
54.700        93
54.720       130
54.740       110
54.760       120
54.780       157
54.800       160
54.820       180
54.840       170
54.860       267
54.880       270
54.900       333
54.920       397
54.940       400
54.960       453
54.980       413
55.000       423
55.020       460
55.040       347
55.060       377
55.080       353
55.100       327
55.120       263
55.140       267
55.160       220
55.180       177
55.200       167
55.220       113
55.240       130
55.260        87
55.280        80
55.300        63
55.320        90
55.340        83
55.360       100
55.380        70
55.400        53
55.420        70
55.440        53
55.460        53
55.480        73
55.500        83
55.520        47
55.540        63
55.560        47
55.580        83
55.600        43
55.620        63
55.640        53
55.660        47
55.680        57
55.700        47
55.720        47
55.740        37
55.760        67
55.780        50
55.800        77
55.820        53
55.840        57
55.860        73
55.880        43
55.900        50
55.920        57
55.940        73
55.960        43
55.980        87
56.000        60
56.020        40
56.040        47
56.060        30
56.080        63
56.100        73
56.120        60
56.140        67
56.160        43
56.180        67
56.200        47
56.220        50
56.240        77
56.260        43
56.280        53
56.300        57
56.320        53
56.340        43
56.360        70
56.380        57
56.400        57
56.420        70
56.440        57
56.460        40
56.480        83
56.500        47
56.520        70
56.540        47
56.560        83
56.580        57
56.600        67
56.620        53
56.640        47
56.660        67
56.680        73
56.700        60
56.720        50
56.740        70
56.760        40
56.780        67
56.800        53
56.820        40
56.840        43
56.860        50
56.880        40
56.900        67
56.920        43
56.940        60
56.960        53
56.980        27
57.000        50
57.020        43
57.040        77
57.060        63
57.080        63
57.100        60
57.120        53
57.140        40
57.160        53
57.180        60
57.200        47
57.220        43
57.240        43
57.260        57
57.280        43
57.300        50
57.320        27
57.340        47
57.360        57
57.380        73
57.400        73
57.420        53
57.440        47
57.460        43
57.480        40
57.500        50
57.520        60
57.540        63
57.560        53
57.580        70
57.600        57
57.620        33
57.640        50
57.660        33
57.680        33
57.700        47
57.720        50
57.740        50
57.760        57
57.780        60
57.800        77
57.820        60
57.840        50
57.860        63
57.880        53
57.900        23
57.920        47
57.940        33
57.960        57
57.980        43
58.000        40
58.020        50
58.040        60
58.060        37
58.080        47
58.100        47
58.120        30
58.140        43
58.160        23
58.180        43
58.200        43
58.220        57
58.240        63
58.260        50
58.280        53
58.300        70
58.320        33
58.340        60
58.360        60
58.380        37
58.400        63
58.420        33
58.440        40
58.460        27
58.480        60
58.500        27
58.520        40
58.540        47
58.560        47
58.580        43
58.600        80
58.620        50
58.640        67
58.660        33
58.680        77
58.700        43
58.720        50
58.740        57
58.760        33
58.780        43
58.800        50
58.820        33
58.840        53
58.860        33
58.880        50
58.900        47
58.920        33
58.940        43
58.960        43
58.980        43
59.000        50
59.020        47
59.040        20
59.060        37
59.080        37
59.100        37
59.120        53
59.140        50
59.160        43
59.180        40
59.200        37
59.220        60
59.240        87
59.260        40
59.280        67
59.300        13
59.320        63
59.340        47
59.360        43
59.380        63
59.400        20
59.420        47
59.440        80
59.460        57
59.480        60
59.500        43
59.520        47
59.540        47
59.560        47
59.580        67
59.600        63
59.620        63
59.640        53
59.660        43
59.680        33
59.700        33
59.720        47
59.740        40
59.760        33
59.780        43
59.800        43
59.820        53
59.840        53
59.860        57
59.880        37
59.900        47
59.920        37
59.940        37
59.960        50
59.980        33
60.000        33
