20.000        47
20.020        47
20.040        60
20.060        60
20.080        30
20.100        43
20.120        50
20.140        43
20.160        40
20.180        60
20.200        33
20.220        53
20.240        30
20.260        40
20.280        67
20.300        53
20.320        40
20.340        40
20.360        43
20.380        33
20.400        50
20.420        23
20.440        27
20.460        63
20.480        60
20.500        73
20.520        33
20.540        50
20.560        50
20.580        43
20.600        33
20.620        47
20.640        67
20.660        63
20.680        37
20.700        53
20.720        53
20.740        70
20.760        60
20.780        47
20.800        57
20.820        47
20.840        40
20.860        30
20.880        37
20.900        40
20.920        33
20.940        60
20.960        20
20.980        57
21.000        40
21.020        43
21.040        47
21.060        47
21.080        60
21.100        73
21.120        53
21.140        63
21.160        50
21.180        53
21.200        57
21.220        40
21.240        50
21.260        30
21.280        47
21.300        50
21.320        63
21.340        57
21.360        43
21.380        47
21.400        53
21.420        53
21.440        50
21.460        40
21.480        50
21.500        57
21.520        70
21.540        90
21.560        67
21.580        57
21.600        70
21.620        53
21.640        77
21.660        67
21.680        73
21.700       130
21.720       160
21.740       223
21.760       243
21.780       213
21.800       160
21.820       157
21.840        67
21.860        87
21.880        80
21.900        57
21.920        57
21.940        57
21.960        50
21.980        60
22.000        47
22.020        57
22.040        57
22.060        27
22.080        37
22.100        53
22.120        57
22.140        57
22.160        63
22.180        57
22.200        37
22.220        47
22.240        27
22.260        63
22.280        80
22.300        53
22.320        37
22.340        37
22.360        27
22.380        67
22.400        33
22.420        40
22.440        50
22.460        80
22.480        53
22.500        63
22.520        60
22.540        43
22.560        53
22.580        43
22.600        23
22.620        33
22.640        50
22.660        63
22.680        43
22.700        40
22.720        57
22.740        40
22.760        60
22.780        60
22.800        60
22.820        47
22.840        37
22.860        53
22.880        57
22.900        40
22.920        57
22.940        60
22.960        53
22.980        63
23.000        27
23.020        33
23.040        37
23.060        33
23.080        50
23.100        47
23.120        50
23.140        33
23.160        90
23.180        30
23.200        47
23.220        43
23.240        40
23.260        47
23.280        37
23.300        47
23.320        57
23.340        40
23.360        60
23.380        37
23.400        43
23.420        33
23.440        73
23.460        27
23.480        37
23.500        33
23.520        70
23.540        40
23.560        40
23.580        33
23.600        43
23.620        40
23.640        20
23.660        63
23.680        57
23.700        37
23.720        57
23.740        43
23.760        47
23.780        73
23.800        57
23.820        70
23.840        33
23.860        43
23.880        50
23.900        37
23.920        53
23.940        53
23.960        27
23.980        30
24.000        43
24.020        57
24.040        63
24.060        40
24.080        40
24.100        37
24.120        73
24.140        63
24.160        57
24.180        47
24.200        53
24.220        70
24.240        77
24.260        63
24.280        47
24.300        53
24.320        60
24.340        50
24.360        60
24.380        63
24.400        47
24.420        40
24.440        53
24.460        37
24.480        33
24.500        37
24.520        67
24.540        53
24.560        47
24.580        40
24.600        63
24.620        40
24.640        57
24.660        73
24.680        53
24.700        70
24.720        63
24.740        67
24.760        50
24.780        57
24.800        63
24.820        73
24.840        73
24.860        60
24.880        47
24.900        77
24.920        50
24.940        67
24.960        50
24.980        70
25.000        70
25.020        50
25.040        50
25.060        93
25.080        93
25.100        40
25.120       107
25.140        57
25.160        83
25.180        70
25.200        73
25.220        60
25.240        63
25.260        40
25.280        43
25.300        73
25.320        57
25.340        63
25.360        80
25.380        83
25.400        67
25.420        53
25.440        80
25.460        60
25.480       123
25.500        87
25.520       113
25.540        97
25.560       283
25.580       436
25.600       536
25.620       440
25.640       470
25.660       490
25.680       320
25.700       220
25.720       160
25.740       160
25.760       163
25.780       120
25.800       103
25.820       100
25.840        73
25.860        87
25.880        83
25.900        40
25.920        90
25.940        80
25.960        83
25.980        63
26.000        67
26.020        57
26.040        73
26.060        83
26.080        57
26.100        67
26.120        90
26.140        50
26.160        53
26.180       100
26.200        73
26.220        63
26.240        70
26.260        63
26.280        67
26.300        77
26.320        77
26.340        70
26.360        67
26.380        57
26.400        53
26.420        70
26.440        60
26.460       100
26.480        73
26.500        70
26.520        67
26.540        63
26.560        77
26.580       110
26.600        87
26.620        77
26.640        63
26.660        87
26.680        63
26.700        63
26.720       107
26.740        60
26.760        47
26.780        57
26.800        73
26.820        83
26.840        77
26.860        80
26.880        87
26.900        63
26.920        70
26.940        77
26.960        73
26.980        50
27.000        70
27.020        93
27.040        90
27.060        73
27.080        90
27.100        60
27.120        97
27.140        87
27.160        47
27.180        70
27.200        70
27.220        50
27.240        60
27.260        40
27.280        70
27.300        53
27.320        77
27.340        73
27.360        53
27.380       100
27.400        77
27.420        97
27.440        70
27.460        93
27.480        60
27.500        87
27.520        73
27.540        93
27.560        63
27.580        73
27.600        80
27.620        63
27.640        87
27.660        73
27.680        77
27.700        57
27.720        83
27.740        63
27.760       113
27.780        77
27.800        90
27.820       100
27.840       117
27.860       117
27.880       113
27.900       120
27.920       113
27.940        90
27.960        97
27.980        73
28.000        60
28.020       103
28.040       107
28.060        83
28.080        87
28.100       110
28.120        70
28.140        57
28.160       100
28.180       100
28.200        80
28.220        83
28.240       100
28.260        97
28.280        87
28.300        83
28.320       100
28.340        60
28.360        93
28.380        77
28.400       127
28.420        93
28.440        67
28.460       113
28.480        97
28.500       107
28.520        80
28.540        90
28.560       117
28.580        60
28.600        77
28.620        87
28.640       103
28.660       113
28.680        70
28.700        77
28.720        77
28.740        60
28.760        87
28.780        83
28.800        73
28.820        93
28.840        67
28.860        90
28.880        77
28.900        97
28.920        73
28.940        67
28.960        97
28.980        60
29.000        70
29.020        63
29.040        73
29.060        80
29.080        63
29.100        87
29.120        77
29.140        90
29.160        80
29.180       107
29.200       110
29.220       127
29.240       123
29.260        73
29.280       137
29.300       113
29.320       113
29.340        90
29.360       107
29.380        80
29.400        83
29.420       100
29.440        90
29.460        73
29.480        87
29.500       110
29.520        80
29.540        80
29.560       103
29.580        67
29.600       110
29.620        93
29.640        93
29.660        93
29.680        60
29.700        90
29.720       103
29.740        77
29.760       103
29.780        90
29.800        70
29.820        90
29.840       103
29.860        97
29.880       117
29.900        97
29.920        87
29.940       103
29.960        90
29.980        83
30.000       117
30.020        87
30.040        97
30.060        67
30.080       103
30.100       103
30.120       123
30.140        77
30.160        97
30.180       100
30.200        63
30.220        80
30.240       110
30.260        97
30.280       107
30.300       127
30.320       147
30.340        57
30.360        63
30.380        83
30.400       100
30.420       123
30.440        93
30.460        90
30.480       127
30.500       103
30.520       120
30.540       123
30.560       107
30.580       120
30.600       103
30.620       153
30.640       177
30.660       203
30.680       203
30.700       273
30.720       340
30.740       360
30.760       380
30.780       600
30.800       800
30.820       936
30.840      1349
30.860      1676
30.880      2372
30.900      2992
30.920      3692
30.940      3729
30.960      3575
30.980      2972
31.000      2356
31.020      1949
31.040      1593
31.060      1146
31.080       723
31.100       350
31.120       283
31.140       247
31.160       177
31.180       117
31.200       183
31.220       140
31.240       117
31.260        97
31.280        90
31.300       107
31.320        97
31.340        90
31.360       127
31.380        73
31.400       133
31.420       120
31.440        77
31.460        70
31.480        67
31.500        90
31.520        93
31.540        93
31.560        97
31.580        73
31.600       113
31.620       103
31.640        50
31.660        97
31.680        77
31.700        70
31.720        77
31.740        93
31.760        87
31.780        73
31.800        83
31.820        73
31.840        63
31.860        67
31.880        70
31.900       103
31.920       103
31.940        73
31.960       100
31.980        77
32.000        80
32.020        73
32.040        73
32.060        70
32.080        70
32.100        90
32.120        73
32.140        60
32.160        70
32.180        67
32.200        50
32.220        70
32.240        57
32.260        63
32.280        60
32.300        70
32.320        90
32.340        53
32.360        80
32.380        57
32.400        53
32.420        90
32.440        77
32.460        60
32.480        77
32.500        57
32.520        77
32.540        80
32.560       107
32.580        93
32.600        50
32.620        50
32.640        53
32.660        77
32.680        67
32.700        60
32.720        73
32.740        80
32.760        70
32.780        77
32.800        73
32.820        67
32.840        47
32.860        73
32.880        80
32.900        80
32.920        83
32.940        50
32.960        63
32.980        43
33.000        70
33.020        47
33.040        57
33.060        57
33.080        73
33.100        53
33.120        50
33.140        73
33.160        70
33.180        80
33.200        63
33.220        57
33.240        83
33.260        57
33.280        57
33.300        50
33.320        63
33.340        53
33.360        47
33.380        60
33.400        57
33.420        37
33.440        67
33.460        43
33.480        67
33.500        60
33.520        57
33.540        63
33.560        53
33.580        63
33.600        73
33.620        57
33.640        67
33.660        53
33.680        43
33.700        57
33.720        80
33.740        60
33.760        70
33.780        50
33.800        73
33.820        53
33.840        43
33.860        50
33.880        50
33.900        40
33.920        67
33.940        60
33.960        83
33.980        50
34.000        73
34.020        70
34.040        43
34.060        43
34.080        80
34.100        57
34.120        57
34.140        47
34.160        53
34.180        50
34.200        47
34.220        83
34.240        80
34.260        37
34.280        87
34.300        57
34.320        70
34.340        40
34.360        63
34.380        70
34.400        57
34.420        43
34.440        33
34.460        70
34.480        60
34.500        50
34.520        43
34.540        60
34.560        83
34.580        40
34.600        53
34.620        43
34.640        53
34.660        30
34.680        50
34.700        40
34.720        70
34.740        50
34.760        40
34.780        47
34.800        67
34.820        43
34.840        60
34.860        67
34.880        50
34.900        27
34.920        67
34.940        57
34.960        80
34.980        47
35.000        33
35.020        43
35.040        47
35.060        53
35.080        47
35.100        57
35.120        70
35.140        43
35.160        37
35.180        63
35.200        40
35.220        40
35.240        60
35.260        57
35.280        60
35.300        53
35.320        40
35.340        47
35.360        40
35.380        50
35.400        47
35.420        57
35.440        33
35.460        47
35.480        73
35.500        37
35.520        60
35.540        33
35.560        50
35.580        63
35.600        50
35.620        43
35.640        50
35.660        40
35.680        53
35.700        53
35.720        50
35.740        37
35.760        53
35.780        50
35.800        57
35.820        53
35.840        63
35.860        50
35.880        50
35.900        37
35.920        70
35.940        43
35.960        40
35.980        83
36.000        50
36.020        43
36.040        77
36.060        47
36.080        53
36.100        40
36.120        70
36.140        53
36.160        50
36.180        53
36.200        33
36.220        63
36.240        47
36.260        77
36.280        43
36.300        27
36.320        33
36.340        40
36.360        47
36.380        47
36.400        43
36.420        60
36.440        47
36.460        47
36.480        40
36.500        57
36.520        37
36.540        33
36.560        27
36.580        67
36.600        37
36.620        50
36.640        57
36.660        47
36.680        63
36.700        53
36.720        67
36.740        57
36.760        37
36.780        20
36.800        73
36.820        53
36.840        53
36.860        43
36.880        70
36.900        50
36.920        50
36.940        33
36.960        63
36.980        57
37.000        37
37.020        70
37.040        40
37.060        43
37.080        33
37.100        30
37.120        60
37.140        40
37.160        40
37.180        47
37.200        40
37.220        33
37.240        63
37.260        37
37.280        53
37.300        33
37.320        40
37.340        27
37.360        60
37.380        50
37.400        50
37.420        73
37.440        47
37.460        33
37.480        73
37.500        63
37.520        40
37.540        63
37.560        20
37.580        50
37.600        37
37.620        47
37.640        30
37.660        50
37.680        50
37.700        50
37.720        30
37.740        60
37.760        40
37.780        57
37.800        63
37.820        70
37.840        47
37.860        70
37.880        93
37.900       107
37.920       157
37.940       160
37.960       127
37.980       173
38.000       180
38.020       227
38.040       420
38.060       573
38.080       730
38.100      1220
38.120      1253
38.140      1220
38.160      1113
38.180      1116
38.200      1030
38.220       910
38.240       756
38.260       606
38.280       506
38.300       363
38.320       220
38.340       160
38.360       130
38.380        87
38.400        70
38.420        53
38.440        77
38.460        40
38.480        67
38.500        47
38.520        37
38.540        87
38.560        43
38.580        50
38.600        87
38.620        30
38.640        60
38.660        57
38.680        50
38.700        57
38.720        53
38.740        40
38.760        70
38.780        60
38.800        43
38.820        47
38.840        50
38.860        50
38.880        53
38.900        20
38.920        57
38.940        57
38.960        33
38.980        50
39.000        67
39.020        40
39.040        43
39.060        57
39.080        40
39.100        53
39.120        33
39.140        47
39.160        50
39.180        53
39.200        50
39.220        63
39.240        67
39.260        23
39.280        43
39.300        63
39.320        60
39.340        77
39.360        57
39.380        57
39.400        43
39.420        63
39.440        37
39.460        37
39.480        63
39.500        50
39.520        40
39.540        23
39.560        37
39.580        30
39.600        50
39.620        40
39.640        43
39.660        60
39.680        53
39.700        40
39.720        50
39.740        47
39.760        37
39.780        43
39.800        50
39.820        50
39.840        47
39.860        33
39.880        37
39.900        50
39.920        20
39.940        43
39.960        60
39.980        47
40.000        33
40.020        33
40.040        37
40.060        40
40.080        50
40.100        53
40.120        60
40.140        40
40.160        37
40.180        33
40.200        37
40.220        23
40.240        70
40.260        37
40.280        53
40.300        20
40.320        27
40.340        53
40.360        47
40.380        23
40.400        30
40.420        33
40.440        40
40.460        43
40.480        40
40.500        47
40.520        17
40.540        37
40.560        43
40.580        53
40.600        33
40.620        43
40.640        33
40.660        43
40.680        13
40.700        43
40.720        47
40.740        50
40.760        53
40.780        27
40.800        60
40.820        47
40.840        50
40.860        23
40.880        37
40.900        27
40.920        67
40.940        47
40.960        43
40.980        37
41.000        10
41.020        43
41.040        37
41.060        23
41.080        57
41.100        50
41.120        33
41.140        37
41.160        50
41.180        30
41.200        47
41.220        43
41.240        20
41.260        17
41.280        23
41.300        47
41.320        37
41.340        60
41.360        53
41.380        30
41.400        30
41.420        43
41.440        40
41.460        43
41.480        40
41.500        53
41.520        30
41.540        37
41.560        43
41.580        50
41.600        50
41.620        33
41.640        43
41.660        50
41.680        33
41.700        43
41.720        33
41.740        37
41.760        17
41.780        63
41.800        40
41.820        50
41.840        33
41.860        50
41.880        33
41.900        50
41.920        37
41.940        27
41.960        33
41.980        53
42.000        43
42.020        50
42.040        43
42.060        43
42.080        33
42.100        60
42.120        23
42.140        40
42.160        43
42.180        30
42.200        30
42.220        43
42.240        23
42.260        53
42.280        27
42.300        27
42.320        43
42.340        37
42.360        43
42.380        37
42.400        30
42.420        33
42.440        57
42.460        60
42.480        33
42.500        23
42.520        67
42.540        27
42.560        37
42.580        70
42.600        37
42.620        27
42.640        40
42.660        50
42.680        43
42.700        40
42.720        47
42.740        63
42.760        33
42.780        60
42.800        47
42.820        20
42.840        27
42.860        47
42.880        47
42.900        70
42.920        37
42.940        40
42.960        43
42.980        33
43.000        47
43.020        37
43.040        40
43.060        63
43.080        40
43.100        47
43.120        73
43.140        57
43.160        33
43.180        27
43.200        43
43.220        27
43.240        40
43.260        27
43.280        43
43.300        37
43.320        43
43.340        23
43.360        50
43.380        53
43.400        47
43.420        60
43.440        47
43.460        33
43.480        40
43.500        43
43.520        37
43.540        47
43.560        30
43.580        50
43.600        53
43.620        63
43.640        53
43.660        33
43.680        30
43.700        77
43.720        67
43.740        63
43.760        47
43.780        70
43.800        53
43.820        60
43.840        53
43.860        57
43.880        70
43.900        67
43.920        70
43.940        93
43.960       103
43.980        97
44.000       123
44.020       130
44.040       133
44.060       143
44.080       230
44.100       173
44.120       253
44.140       397
44.160       410
44.180       526
44.200       640
44.220       970
44.240      1176
44.260      1316
44.280      1329
44.300      1493
44.320      1419
44.340      1176
44.360      1060
44.380      1106
44.400       966
44.420       903
44.440       673
44.460       523
44.480       483
44.500       340
44.520       257
44.540       153
44.560       173
44.580       103
44.600       100
44.620       103
44.640       110
44.660        93
44.680        67
44.700        93
44.720        67
44.740        50
44.760        90
44.780        70
44.800        63
44.820        43
44.840        67
44.860        53
44.880        77
44.900        53
44.920        43
44.940        63
44.960        40
44.980        33
45.000        73
45.020        43
45.040        63
45.060        73
45.080        53
45.100        77
45.120        70
45.140        53
45.160        33
45.180        40
45.200        63
45.220        47
45.240        43
45.260        53
45.280        63
45.300        63
45.320        57
45.340        43
45.360        57
45.380        43
45.400        30
45.420        63
45.440        50
45.460        33
45.480        57
45.500        40
45.520        60
45.540        53
45.560        53
45.580        57
45.600        40
45.620        20
45.640        50
45.660        27
45.680        57
45.700        63
45.720        20
45.740        43
45.760        50
45.780        47
45.800        23
45.820        73
45.840        47
45.860        30
45.880        63
45.900        43
45.920        27
45.940        40
45.960        23
45.980        60
46.000        70
46.020        47
46.040        40
46.060        37
46.080        43
46.100        43
46.120        47
46.140        50
46.160        33
46.180        53
46.200        40
46.220        37
46.240        37
46.260        33
46.280        50
46.300        40
46.320        27
46.340        47
46.360        53
46.380        40
46.400        53
46.420        43
46.440        40
46.460        50
46.480        40
46.500        37
46.520        43
46.540        43
46.560        23
46.580        37
46.600        33
46.620        23
46.640        40
46.660        47
46.680        27
46.700        43
46.720        53
46.740        33
46.760        43
46.780        57
46.800        43
46.820        77
46.840        53
46.860        50
46.880        40
46.900        50
46.920        57
46.940        37
46.960        50
46.980        67
47.000        60
47.020        53
47.040        47
47.060        57
47.080        20
47.100        43
47.120        60
47.140       110
47.160        97
47.180       140
47.200       243
47.220       237
47.240       197
47.260       150
47.280       127
47.300        80
47.320        77
47.340        47
47.360        50
47.380        30
47.400        73
47.420        50
47.440        50
47.460        60
47.480        43
47.500        53
47.520        57
47.540        47
47.560        47
47.580        33
47.600        47
47.620        67
47.640        43
47.660        40
47.680        40
47.700        33
47.720        33
47.740        70
47.760        40
47.780        43
47.800        40
47.820        60
47.840        33
47.860        63
47.880        33
47.900        40
47.920        47
47.940        37
47.960        20
47.980        37
48.000        57
48.020        37
48.040        30
48.060        70
48.080        30
48.100        27
48.120        53
48.140        17
48.160        33
48.180        43
48.200        33
48.220        43
48.240        47
48.260        27
48.280        33
48.300        30
48.320        43
48.340        53
48.360        67
48.380        43
48.400        53
48.420        37
48.440        50
48.460        40
48.480        60
48.500        50
48.520        67
48.540        50
48.560        30
48.580        47
48.600        50
48.620        30
48.640        47
48.660        57
48.680        37
48.700        33
48.720        50
48.740        37
48.760        60
48.780        43
48.800        37
48.820        53
48.840        40
48.860        40
48.880        40
48.900        30
48.920        40
48.940        30
48.960        17
48.980        40
49.000        47
49.020        67
49.040        37
49.060        37
49.080        30
49.100        60
49.120        27
49.140        57
49.160        23
49.180        27
49.200        33
49.220        60
49.240        23
49.260        53
49.280        47
49.300        30
49.320        30
49.340        57
49.360        30
49.380        37
49.400        30
49.420        40
49.440        30
49.460        47
49.480        33
49.500        60
49.520        33
49.540        53
49.560        47
49.580        27
49.600        37
49.620        53
49.640        27
49.660        47
49.680        53
49.700        47
49.720        27
49.740        57
49.760        50
49.780        30
49.800        30
49.820        17
49.840        37
49.860        30
49.880        37
49.900        47
49.920        47
49.940        53
49.960        40
49.980        43
50.000        43
50.020        50
50.040        43
50.060        47
50.080        53
50.100        33
50.120        57
50.140        27
50.160        23
50.180        50
50.200        37
50.220        37
50.240        57
50.260        37
50.280        30
50.300        27
50.320        30
50.340        43
50.360        40
50.380        30
50.400        33
50.420        27
50.440        40
50.460        30
50.480        57
50.500        33
50.520        30
50.540        33
50.560        20
50.580        23
50.600        73
50.620        47
50.640        37
50.660        20
50.680        63
50.700        47
50.720        70
50.740        90
50.760        57
50.780        87
50.800       107
50.820        63
50.840        83
50.860        50
50.880        77
50.900        83
50.920        87
50.940        70
50.960        60
50.980        50
51.000        87
51.020        70
51.040        90
51.060        80
51.080        90
51.100        60
51.120        77
51.140        73
51.160        60
51.180        63
51.200        63
51.220        47
51.240        77
51.260        70
51.280        63
51.300        67
51.320        97
51.340        90
51.360        73
51.380        63
51.400        80
51.420        77
51.440        80
51.460       120
51.480        87
51.500        80
51.520        93
51.540       100
51.560       110
51.580       107
51.600        80
51.620        50
51.640        77
51.660        83
51.680        73
51.700        60
51.720        77
51.740        83
51.760       113
51.780        90
51.800        83
51.820       100
51.840        47
51.860        90
51.880        47
51.900        97
51.920        77
51.940        87
51.960       100
51.980        87
52.000        93
52.020        80
52.040       100
52.060        77
52.080        70
52.100        97
52.120        63
52.140        77
52.160       100
52.180       140
52.200       113
52.220       130
52.240       107
52.260       127
52.280       170
52.300       140
52.320       207
52.340       303
52.360       327
52.380       323
52.400       273
52.420       353
52.440       407
52.460       390
52.480       610
52.500       760
52.520      1373
52.540      2346
52.560      4941
52.580     12168
52.600     18643
52.620     20249
52.640     16623
52.660      9043
52.680      4228
52.700      4292
52.720      6947
52.740     10023
52.760     10949
52.780      8630
52.800      4518
52.820      1849
52.840      1030
52.860       743
52.880       726
52.900       536
52.920       357
52.940       317
52.960       217
52.980       197
53.000       213
53.020       150
53.040       147
53.060       140
53.080       130
53.100       127
53.120       127
53.140       103
53.160       117
53.180        80
53.200       100
53.220       127
53.240        87
53.260       113
53.280        80
53.300       143
53.320        80
53.340        80
53.360       120
53.380        83
53.400        60
53.420        47
53.440        90
53.460        73
53.480       103
53.500        50
53.520        90
53.540        80
53.560        57
53.580        87
53.600        60
53.620        70
53.640        63
53.660        53
53.680        53
53.700        77
53.720        90
53.740        43
53.760        67
53.780        57
53.800        83
53.820        67
53.840        70
53.860        97
53.880        70
53.900        70
53.920        70
53.940        60
53.960        70
53.980        50
54.000        60
54.020        30
54.040        73
54.060        43
54.080        60
54.100        50
54.120        73
54.140        77
54.160        83
54.180        77
54.200        57
54.220        70
54.240        33
54.260        53
54.280        53
54.300        57
54.320        57
54.340        37
54.360        67
54.380        70
54.400        73
54.420        40
54.440        37
54.460        60
54.480        63
54.500        73
54.520        73
54.540        73
54.560        70
54.580        53
54.600        50
54.620        43
54.640        60
54.660        83
54.680        73
54.700        77
54.720        43
54.740        80
54.760        77
54.780        63
54.800        37
54.820        87
54.840        83
54.860        70
54.880        70
54.900       123
54.920       137
54.940       120
54.960        93
54.980       140
55.000       120
55.020       103
55.040       100
55.060       137
55.080        83
55.100        83
55.120        87
55.140        90
55.160        97
55.180        70
55.200        50
55.220        57
55.240        57
55.260        53
55.280        57
55.300        53
55.320        70
55.340        37
55.360        37
55.380        43
55.400        53
55.420        37
55.440        40
55.460        53
55.480        37
55.500        40
55.520        60
55.540        67
55.560        37
55.580        53
55.600        53
55.620        57
55.640        47
55.660        57
55.680        73
55.700        53
55.720        40
55.740        37
55.760        50
55.780        33
55.800        20
55.820        67
55.840        43
55.860        73
55.880        47
55.900        30
55.920        73
55.940        30
55.960        50
55.980        50
56.000        53
56.020        47
56.040        60
56.060        37
56.080        70
56.100        53
56.120        43
56.140        37
56.160        57
56.180        40
56.200        57
56.220        20
56.240        73
56.260        33
56.280        60
56.300        33
56.320        43
56.340        77
56.360        67
56.380        50
56.400        77
56.420        53
56.440        43
56.460        87
56.480        37
56.500        33
56.520        30
56.540        60
56.560        73
56.580        40
56.600        67
56.620        60
56.640        47
56.660        37
56.680        40
56.700        33
56.720        53
56.740        50
56.760        47
56.780        43
56.800        53
56.820        57
56.840        40
56.860        37
56.880        60
56.900        57
56.920        47
56.940        53
56.960        57
56.980        50
57.000        30
57.020        57
57.040        47
57.060        50
57.080        57
57.100        40
57.120        37
57.140        70
57.160        60
57.180        63
57.200        40
57.220        33
57.240        30
57.260        33
57.280        47
57.300        53
57.320        37
57.340        50
57.360        40
57.380        60
57.400        50
57.420        67
57.440        47
57.460        57
57.480        27
57.500        43
57.520        43
57.540        63
57.560        47
57.580        50
57.600        30
57.620        53
57.640        47
57.660        33
57.680        47
57.700        40
57.720        33
57.740        40
57.760        67
57.780        47
57.800        53
57.820        40
57.840        60
57.860        30
57.880        30
57.900        43
57.920        47
57.940        53
57.960        43
57.980        40
58.000        63
58.020        60
58.040        47
58.060        73
58.080        43
58.100        60
58.120        47
58.140        33
58.160        47
58.180        20
58.200        27
58.220        50
58.240        30
58.260        47
58.280        37
58.300        40
58.320        50
58.340        53
58.360        37
58.380        20
58.400        47
58.420        40
58.440        23
58.460        43
58.480        30
58.500        37
58.520        47
58.540        47
58.560        30
58.580        53
58.600        47
58.620        33
58.640        50
58.660        23
58.680        57
58.700        23
58.720        27
58.740        23
58.760        30
58.780        50
58.800        30
58.820        33
58.840        47
58.860        27
58.880        30
58.900        50
58.920        33
58.940        43
58.960        60
58.980        30
59.000        47
59.020        53
59.040        53
59.060        33
59.080        33
59.100        37
59.120        40
59.140        53
59.160        43
59.180        50
59.200        50
59.220        23
59.240        73
59.260        43
59.280        33
59.300        37
59.320        33
59.340        30
59.360        50
59.380        57
59.400        27
59.420        43
59.440        40
59.460        60
59.480        40
59.500        27
59.520        37
59.540        13
59.560        20
59.580        50
59.600        30
59.620        30
59.640        43
59.660        30
59.680        37
59.700        37
59.720        53
59.740        37
59.760        53
59.780        40
59.800        40
59.820        30
59.840        33
59.860        47
59.880        57
59.900        30
59.920        20
59.940        50
59.960        40
59.980        47
60.000        33
