20.000        10
20.020        10
20.040        40
20.060        57
20.080        60
20.100        47
20.120        53
20.140        47
20.160        53
20.180        40
20.200        37
20.220        47
20.240        47
20.260        47
20.280        47
20.300        37
20.320        57
20.340        33
20.360        53
20.380        30
20.400        30
20.420        50
20.440        57
20.460        40
20.480        53
20.500        60
20.520        47
20.540        47
20.560        27
20.580        53
20.600        33
20.620        33
20.640        43
20.660        70
20.680        43
20.700        47
20.720        53
20.740        37
20.760        37
20.780        43
20.800        50
20.820        33
20.840        57
20.860        63
20.880        40
20.900        50
20.920        37
20.940        47
20.960        43
20.980        33
21.000        47
21.020        57
21.040        30
21.060        47
21.080        27
21.100        27
21.120        57
21.140        60
21.160        37
21.180        37
21.200        57
21.220        40
21.240        23
21.260        73
21.280        70
21.300        33
21.320        33
21.340        53
21.360        27
21.380        37
21.400        50
21.420        47
21.440        47
21.460        60
21.480        60
21.500        33
21.520        47
21.540        50
21.560        23
21.580        40
21.600        53
21.620        60
21.640        47
21.660        33
21.680        60
21.700        50
21.720        53
21.740        50
21.760        57
21.780        70
21.800        73
21.820        70
21.840        33
21.860        57
21.880        53
21.900        60
21.920        50
21.940        57
21.960        47
21.980        33
22.000        27
22.020        73
22.040        33
22.060        27
22.080        57
22.100        47
22.120        30
22.140        50
22.160        87
22.180        43
22.200        50
22.220        33
22.240        47
22.260        43
22.280        43
22.300        37
22.320        50
22.340        33
22.360        47
22.380        43
22.400        33
22.420        43
22.440        43
22.460        23
22.480        40
22.500        37
22.520        40
22.540        63
22.560        37
22.580        37
22.600        37
22.620        30
22.640        43
22.660        43
22.680        43
22.700        37
22.720        13
22.740        27
22.760        23
22.780        33
22.800        37
22.820        63
22.840        43
22.860        40
22.880        33
22.900        20
22.920        27
22.940        37
22.960        33
22.980        40
23.000        40
23.020        30
23.040        30
23.060        33
23.080        37
23.100        23
23.120        27
23.140        30
23.160        33
23.180        20
23.200        40
23.220        33
23.240        47
23.260        20
23.280        27
23.300        47
23.320        40
23.340        27
23.360        40
23.380        33
23.400        47
23.420        27
23.440        37
23.460        47
23.480        43
23.500        30
23.520        37
23.540        40
23.560        20
23.580        30
23.600        33
23.620        30
23.640        40
23.660        40
23.680        47
23.700        10
23.720        30
23.740        33
23.760        30
23.780        23
23.800        53
23.820        33
23.840        27
23.860        43
23.880        40
23.900        27
23.920        60
23.940        27
23.960        23
23.980        47
24.000        43
24.020        50
24.040        43
24.060        20
24.080        23
24.100        33
24.120        30
24.140        53
24.160        33
24.180        40
24.200        30
24.220        23
24.240        47
24.260        23
24.280        23
24.300        27
24.320        37
24.340        23
24.360        27
24.380        27
24.400        37
24.420        60
24.440        27
24.460        40
24.480        47
24.500        60
24.520        43
24.540        27
24.560        37
24.580        43
24.600        40
24.620        40
24.640        40
24.660        47
24.680        60
24.700        37
24.720        60
24.740        40
24.760        30
24.780        53
24.800        43
24.820        33
24.840        27
24.860        40
24.880        23
24.900        20
24.920        40
24.940        20
24.960        37
24.980        17
25.000        37
25.020        43
25.040        23
25.060        40
25.080        50
25.100        37
25.120        47
25.140        17
25.160        53
25.180        33
25.200        40
25.220        53
25.240        30
25.260        17
25.280        53
25.300        30
25.320        37
25.340        33
25.360        33
25.380        53
25.400        40
25.420        23
25.440        37
25.460        23
25.480        33
25.500        40
25.520        47
25.540        47
25.560        27
25.580        33
25.600        33
25.620        30
25.640        20
25.660        53
25.680        43
25.700        23
25.720        13
25.740        23
25.760        33
25.780        30
25.800        27
25.820        43
25.840        13
25.860        47
25.880        30
25.900        30
25.920        60
25.940        40
25.960        50
25.980        33
26.000        30
26.020        30
26.040        30
26.060        30
26.080        37
26.100        47
26.120        23
26.140        43
26.160        33
26.180        23
26.200        33
26.220        67
26.240        37
26.260        33
26.280        33
26.300        40
26.320        23
26.340        17
26.360        50
26.380        37
26.400        20
26.420        27
26.440        27
26.460        27
26.480        53
26.500        20
26.520        50
26.540        50
26.560        33
26.580        47
26.600        47
26.620        27
26.640        20
26.660        53
26.680        37
26.700        27
26.720        30
26.740        13
26.760        43
26.780        40
26.800        37
26.820        37
26.840        37
26.860        43
26.880        27
26.900        47
26.920        43
26.940        23
26.960        43
26.980        33
27.000        53
27.020        33
27.040        20
27.060        37
27.080        40
27.100        50
27.120        23
27.140        40
27.160        20
27.180        37
27.200        17
27.220        27
27.240        23
27.260        47
27.280        23
27.300        40
27.320        57
27.340        40
27.360        23
27.380        67
27.400        40
27.420        27
27.440        27
27.460        30
27.480        23
27.500        23
27.520        27
27.540        37
27.560        43
27.580        27
27.600        37
27.620        23
27.640        47
27.660        40
27.680        33
27.700        33
27.720        20
27.740        37
27.760        53
27.780        43
27.800        43
27.820        37
27.840        57
27.860        67
27.880        63
27.900        87
27.920        70
27.940        57
27.960        77
27.980        70
28.000        37
28.020        53
28.040        30
28.060        47
28.080        40
28.100        43
28.120        40
28.140        43
28.160        47
28.180        23
28.200        40
28.220        27
28.240        17
28.260        33
28.280        43
28.300        33
28.320        17
28.340        40
28.360        50
28.380        30
28.400        43
28.420        37
28.440        33
28.460        37
28.480        17
28.500        30
28.520        43
28.540        13
28.560        13
28.580        30
28.600        47
28.620        30
28.640        37
28.660        23
28.680        33
28.700        20
28.720        30
28.740        30
28.760        37
28.780        40
28.800        47
28.820        33
28.840        37
28.860        50
28.880        37
28.900        33
28.920        30
28.940        47
28.960        30
28.980        40
29.000        40
29.020        33
29.040        33
29.060        50
29.080        47
29.100        40
29.120        40
29.140        33
29.160        50
29.180        37
29.200        37
29.220        43
29.240        40
29.260        43
29.280        37
29.300        53
29.320        43
29.340        37
29.360        60
29.380        33
29.400        50
29.420        37
29.440        40
29.460        43
29.480        33
29.500        17
29.520        47
29.540        37
29.560        47
29.580        20
29.600        13
29.620        27
29.640        37
29.660        23
29.680        30
29.700        33
29.720        40
29.740        53
29.760        70
29.780        33
29.800        53
29.820        40
29.840        40
29.860        40
29.880        40
29.900        57
29.920        87
29.940        63
29.960        60
29.980        73
30.000        63
30.020        40
30.040        70
30.060        63
30.080        60
30.100        77
30.120        57
30.140        50
30.160        73
30.180        40
30.200        67
30.220        63
30.240        87
30.260        80
30.280        97
30.300        57
30.320        73
30.340        33
30.360        80
30.380        73
30.400        83
30.420        83
30.440       100
30.460       100
30.480        80
30.500        83
30.520        97
30.540        83
30.560       107
30.580        87
30.600        87
30.620       117
30.640       183
30.660       150
30.680       193
30.700       263
30.720       350
30.740       433
30.760       513
30.780       703
30.800       773
30.820      1133
30.840      1429
30.860      1979
30.880      2419
30.900      3289
30.920      4372
30.940      5534
30.960      6654
30.980      6621
31.000      6101
31.020      5141
31.040      4098
31.060      3545
31.080      2522
31.100      1579
31.120       910
31.140       560
31.160       350
31.180       193
31.200       237
31.220       230
31.240       177
31.260       157
31.280       120
31.300       150
31.320       120
31.340       133
31.360        90
31.380       110
31.400       103
31.420        80
31.440       117
31.460        70
31.480        73
31.500        93
31.520        87
31.540        83
31.560        73
31.580        93
31.600        77
31.620        53
31.640        60
31.660        80
31.680        60
31.700        67
31.720        50
31.740        63
31.760        77
31.780        63
31.800        50
31.820        43
31.840        67
31.860        77
31.880        50
31.900        87
31.920        43
31.940        53
31.960        70
31.980        43
32.000        33
32.020        80
32.040        63
32.060        50
32.080        53
32.100        63
32.120        40
32.140        70
32.160        30
32.180        60
32.200        50
32.220        33
32.240        60
32.260        30
32.280        43
32.300        33
32.320        53
32.340        70
32.360        50
32.380        50
32.400        57
32.420        60
32.440        37
32.460        43
32.480        40
32.500        47
32.520        53
32.540        23
32.560        33
32.580        37
32.600        50
32.620        43
32.640        43
32.660        47
32.680        73
32.700        53
32.720        53
32.740        63
32.760        60
32.780        33
32.800        27
32.820        33
32.840        40
32.860        33
32.880        50
32.900        50
32.920        67
32.940        40
32.960        20
32.980        63
33.000        53
33.020        57
33.040        30
33.060        50
33.080        53
33.100        43
33.120        43
33.140        43
33.160        50
33.180        53
33.200        27
33.220        43
33.240        50
33.260        47
33.280        20
33.300        47
33.320        57
33.340        30
33.360        23
33.380        23
33.400        57
33.420        53
33.440        40
33.460        50
33.480        50
33.500        33
33.520        23
33.540        53
33.560        27
33.580        47
33.600        63
33.620        33
33.640        23
33.660        43
33.680        37
33.700        40
33.720        40
33.740        47
33.760        37
33.780        33
33.800        30
33.820        47
33.840        20
33.860        47
33.880        27
33.900        43
33.920        27
33.940        27
33.960        33
33.980        27
34.000        27
34.020        37
34.040        47
34.060        30
34.080        60
34.100        43
34.120        33
34.140        47
34.160        43
34.180        33
34.200        50
34.220        40
34.240        23
34.260        40
34.280        20
34.300        43
34.320        27
34.340        33
34.360        10
34.380        33
34.400        33
34.420        50
34.440        30
34.460        13
34.480        20
34.500        33
34.520        20
34.540        23
34.560        53
34.580        57
34.600        40
34.620        63
34.640        33
34.660        37
34.680        43
34.700         7
34.720        27
34.740        33
34.760        33
34.780        47
34.800        33
34.820        33
34.840        40
34.860        30
34.880        53
34.900        20
34.920        23
34.940        27
34.960        50
34.980        30
35.000        43
35.020        60
35.040        47
35.060        40
35.080        87
35.100       107
35.120       127
35.140        70
35.160        70
35.180        63
35.200        90
35.220        53
35.240        50
35.260        43
35.280        50
35.300        47
35.320        30
35.340        40
35.360        37
35.380        23
35.400        23
35.420        20
35.440        47
35.460        43
35.480        40
35.500        37
35.520        33
35.540        33
35.560        47
35.580        33
35.600        30
35.620        27
35.640        37
35.660        43
35.680        50
35.700        30
35.720        40
35.740        47
35.760        37
35.780        40
35.800        40
35.820        37
35.840        37
35.860        43
35.880        33
35.900        43
35.920        37
35.940        30
35.960        30
35.980        17
36.000        37
36.020        33
36.040        30
36.060        20
36.080        37
36.100        37
36.120        17
36.140        10
36.160        27
36.180        57
36.200        40
36.220        23
36.240        17
36.260        27
36.280        20
36.300        43
36.320        17
36.340        57
36.360        37
36.380        17
36.400        27
36.420        30
36.440        23
36.460        23
36.480        47
36.500        17
36.520        17
36.540        23
36.560        27
36.580        20
36.600        47
36.620        13
36.640        33
36.660        30
36.680        37
36.700        30
36.720        20
36.740        17
36.760        33
36.780        17
36.800        17
36.820        33
36.840        17
36.860        33
36.880        17
36.900        17
36.920        20
36.940        23
36.960        43
36.980        43
37.000        40
37.020        27
37.040        17
37.060        23
37.080        30
37.100        27
37.120        10
37.140        27
37.160        20
37.180        33
37.200        20
37.220        23
37.240        20
37.260        17
37.280        37
37.300        37
37.320        33
37.340        40
37.360        23
37.380        37
37.400        23
37.420        30
37.440        27
37.460        27
37.480        20
37.500        13
37.520        30
37.540        13
37.560        37
37.580        20
37.600        33
37.620        13
37.640        37
37.660        20
37.680        33
37.700        27
37.720        30
37.740        17
37.760        27
37.780        23
37.800        20
37.820        50
37.840        27
37.860        40
37.880        30
37.900        43
37.920        27
37.940        50
37.960        37
37.980        17
38.000        37
38.020        40
38.040        27
38.060        50
38.080        33
38.100        43
38.120        87
38.140        73
38.160        77
38.180        57
38.200        83
38.220        57
38.240        63
38.260        67
38.280        43
38.300        57
38.320        77
38.340        37
38.360        40
38.380        33
38.400        33
38.420        40
38.440        30
38.460        27
38.480        37
38.500        40
38.520        33
38.540        23
38.560        20
38.580        33
38.600        30
38.620        17
38.640        27
38.660        33
38.680        17
38.700        27
38.720        17
38.740        10
38.760        33
38.780        43
38.800        33
38.820        20
38.840        23
38.860        33
38.880        13
38.900        37
38.920        23
38.940        20
38.960        17
38.980        33
39.000        17
39.020        10
39.040        20
39.060        33
39.080        20
39.100        33
39.120        20
39.140        13
39.160        33
39.180        23
39.200        27
39.220        17
39.240        10
39.260        43
39.280        17
39.300        23
39.320        20
39.340        20
39.360        50
39.380        37
39.400        17
39.420        43
39.440        30
39.460        17
39.480        27
39.500        23
39.520        10
39.540        23
39.560        17
39.580        17
39.600         7
39.620        23
39.640        30
39.660        37
39.680        13
39.700        33
39.720        30
39.740        10
39.760        27
39.780        30
39.800        13
39.820        30
39.840        20
39.860        27
39.880        33
39.900         7
39.920        17
39.940        33
39.960        17
39.980        23
40.000        33
40.020        10
40.040        27
40.060        37
40.080        27
40.100        10
40.120        23
40.140        17
40.160        17
40.180        13
40.200        13
40.220         7
40.240        13
40.260        20
40.280        33
40.300        20
40.320        30
40.340        40
40.360        50
40.380        37
40.400        13
40.420        27
40.440        17
40.460        30
40.480        10
40.500        23
40.520        27
40.540        13
40.560        27
40.580        27
40.600        20
40.620        33
40.640        33
40.660        13
40.680        17
40.700        23
40.720        13
40.740        10
40.760        23
40.780        27
40.800        20
40.820        13
40.840        17
40.860        33
40.880        33
40.900        30
40.920        20
40.940        20
40.960        37
40.980        33
41.000        10
41.020        17
41.040        27
41.060        17
41.080        27
41.100        30
41.120        10
41.140        17
41.160        30
41.180        20
41.200        30
41.220        27
41.240         7
41.260        17
41.280        27
41.300        23
41.320        20
41.340        13
41.360        13
41.380         7
41.400        13
41.420        20
41.440        17
41.460        13
41.480        33
41.500        30
41.520        17
41.540        33
41.560        30
41.580        13
41.600        33
41.620        37
41.640        30
41.660        47
41.680        43
41.700        67
41.720        33
41.740        47
41.760        40
41.780        23
41.800        53
41.820        23
41.840        30
41.860        20
41.880        33
41.900        20
41.920        20
41.940        20
41.960        23
41.980        20
42.000        27
42.020        33
42.040         3
42.060        23
42.080        13
42.100        10
42.120        13
42.140        27
42.160        10
42.180        13
42.200        20
42.220        17
42.240        33
42.260        23
42.280        10
42.300        20
42.320        17
42.340        47
42.360        37
42.380        23
42.400        30
42.420        17
42.440        13
42.460        23
42.480        13
42.500        20
42.520        20
42.540        27
42.560        13
42.580         7
42.600         3
42.620        13
42.640        13
42.660        10
42.680        10
42.700        13
42.720        23
42.740        27
42.760        17
42.780        23
42.800        20
42.820        33
42.840        37
42.860        20
42.880        23
42.900        20
42.920        10
42.940        37
42.960        13
42.980        13
43.000        40
43.020        27
43.040        13
43.060        27
43.080        17
43.100        27
43.120        23
43.140        30
43.160        17
43.180         7
43.200        40
43.220        20
43.240        17
43.260         7
43.280         7
43.300        33
43.320        23
43.340        30
43.360        37
43.380        50
43.400        80
43.420        37
43.440         7
43.460        50
43.480        53
43.500        23
43.520        20
43.540        37
43.560        10
43.580        40
43.600        30
43.620        37
43.640        13
43.660        10
43.680        10
43.700        20
43.720        23
43.740        23
43.760        23
43.780        23
43.800        23
43.820        17
43.840        13
43.860        13
43.880        20
43.900        30
43.920        23
43.940        23
43.960        30
43.980        27
44.000        33
44.020        40
44.040        30
44.060        30
44.080        20
44.100        30
44.120        67
44.140        40
44.160        40
44.180        40
44.200        70
44.220        73
44.240        70
44.260        80
44.280       103
44.300       130
44.320       127
44.340       190
44.360       177
44.380       193
44.400       203
44.420       210
44.440       187
44.460       153
44.480       117
44.500       110
44.520       100
44.540        70
44.560        83
44.580        47
44.600        60
44.620        40
44.640        50
44.660        17
44.680        37
44.700        30
44.720        30
44.740        33
44.760        23
44.780        17
44.800        30
44.820        20
44.840        40
44.860        30
44.880        23
44.900        30
44.920        17
44.940        20
44.960        17
44.980        20
45.000        27
45.020        10
45.040        33
45.060        20
45.080        17
45.100        23
45.120        30
45.140        13
45.160        17
45.180        23
45.200        33
45.220        17
45.240        20
45.260         3
45.280        23
45.300        20
45.320        27
45.340        17
45.360        40
45.380        20
45.400        20
45.420        17
45.440        20
45.460        10
45.480        17
45.500        20
45.520        30
45.540         7
45.560        17
45.580        17
45.600        20
45.620        10
45.640        17
45.660        17
45.680        13
45.700        17
45.720        10
45.740        33
45.760        20
45.780        27
45.800        17
45.820        43
45.840         7
45.860        40
45.880        10
45.900        27
45.920        27
45.940        17
45.960        20
45.980        27
46.000        20
46.020        23
46.040        17
46.060        10
46.080        20
46.100        20
46.120        20
46.140        27
46.160        17
46.180        10
46.200        37
46.220        20
46.240        13
46.260        17
46.280        17
46.300        20
46.320        20
46.340        10
46.360        20
46.380        27
46.400        27
46.420         3
46.440        20
46.460        10
46.480        27
46.500        17
46.520         7
46.540        13
46.560        17
46.580        10
46.600        17
46.620        17
46.640         7
46.660        23
46.680        13
46.700         7
46.720        13
46.740        10
46.760        20
46.780        17
46.800        23
46.820        23
46.840        20
46.860        20
46.880        20
46.900        10
46.920        27
46.940        17
46.960        17
46.980        10
47.000        13
47.020        20
47.040        10
47.060        23
47.080        27
47.100        30
47.120        33
47.140        33
47.160        30
47.180        17
47.200         7
47.220         7
47.240        17
47.260        33
47.280        23
47.300        30
47.320        30
47.340        20
47.360        13
47.380        23
47.400        23
47.420        13
47.440        23
47.460        33
47.480        20
47.500        30
47.520        20
47.540        13
47.560        17
47.580        20
47.600        13
47.620        23
47.640        17
47.660         3
47.680        20
47.700        23
47.720        27
47.740        30
47.760        10
47.780        10
47.800        30
47.820        13
47.840        23
47.860        13
47.880        17
47.900         7
47.920        20
47.940        17
47.960        23
47.980         7
48.000        30
48.020        27
48.040         7
48.060        13
48.080        30
48.100        17
48.120        13
48.140        27
48.160        20
48.180        17
48.200        17
48.220        13
48.240        20
48.260        13
48.280        20
48.300        23
48.320        20
48.340        20
48.360        20
48.380        10
48.400        23
48.420        20
48.440        17
48.460        30
48.480        30
48.500        27
48.520        13
48.540        10
48.560        10
48.580        30
48.600        13
48.620         7
48.640        13
48.660         7
48.680        10
48.700        13
48.720        10
48.740        10
48.760        17
48.780         7
48.800        23
48.820        17
48.840        20
48.860         7
48.880         7
48.900        20
48.920        13
48.940        13
48.960        10
48.980        10
49.000        20
49.020        17
49.040         0
49.060        13
49.080        13
49.100        23
49.120        13
49.140         7
49.160        23
49.180        13
49.200        20
49.220        20
49.240        23
49.260        33
49.280        20
49.300        17
49.320         0
49.340        30
49.360         7
49.380        17
49.400        13
49.420        13
49.440        10
49.460        10
49.480        13
49.500        30
49.520        10
49.540        13
49.560        17
49.580         7
49.600        23
49.620         7
49.640         7
49.660        17
49.680         7
49.700        10
49.720        27
49.740        13
49.760        13
49.780        17
49.800        27
49.820        10
49.840        13
49.860        23
49.880        23
49.900        10
49.920        17
49.940        17
49.960        17
49.980        17
50.000        23
50.020        20
50.040        13
50.060         7
50.080         7
50.100        23
50.120        13
50.140        20
50.160        17
50.180        17
50.200        13
50.220        13
50.240         7
50.260        10
50.280        20
50.300         7
50.320        20
50.340         0
50.360        17
50.380        13
50.400        10
50.420        17
50.440        23
50.460        27
50.480        10
50.500        17
50.520         7
50.540        20
50.560        30
50.580        13
50.600        23
50.620        10
50.640        13
50.660        20
50.680        27
50.700        23
50.720        23
50.740        20
50.760        17
50.780        20
50.800        10
50.820        27
50.840        13
50.860        23
50.880        17
50.900        20
50.920        13
50.940        17
50.960         3
50.980        13
51.000        17
51.020        23
51.040        23
51.060        17
51.080        20
51.100        17
51.120        17
51.140        23
51.160        10
51.180        17
51.200        10
51.220        10
51.240        17
51.260        10
51.280        13
51.300        20
51.320        10
51.340         3
51.360        27
51.380         7
51.400         7
51.420        20
51.440         7
51.460        13
51.480        17
51.500        17
51.520         7
51.540        13
51.560        30
51.580        27
51.600        13
51.620        20
51.640        23
51.660         7
51.680        20
51.700        27
51.720        13
51.740         7
51.760        10
51.780        27
51.800        17
51.820        17
51.840         7
51.860        10
51.880        20
51.900         7
51.920         3
51.940        23
51.960        13
51.980        10
52.000        20
52.020        23
52.040        17
52.060        13
52.080        20
52.100        10
52.120        13
52.140        10
52.160        47
52.180        10
52.200        13
52.220        17
52.240        33
52.260        27
52.280        27
52.300        13
52.320        13
52.340        17
52.360        23
52.380        10
52.400        20
52.420         7
52.440        20
52.460        13
52.480        10
52.500         7
52.520        10
52.540        17
52.560        37
52.580        17
52.600        17
52.620        27
52.640         7
52.660        17
52.680        17
52.700        23
52.720        17
52.740        27
52.760        10
52.780        13
52.800        27
52.820        20
52.840        10
52.860        13
52.880        33
52.900        50
52.920        30
52.940        27
52.960        10
52.980        20
53.000        33
53.020        17
53.040         7
53.060        30
53.080        20
53.100        10
53.120        13
53.140        23
53.160        20
53.180        13
53.200         3
53.220        30
53.240         3
53.260        10
53.280        17
53.300         0
53.320        13
53.340        17
53.360        20
53.380        17
53.400        20
53.420        20
53.440        20
53.460        33
53.480         7
53.500        20
53.520        13
53.540        13
53.560        17
53.580        17
53.600        10
53.620        10
53.640        13
53.660         7
53.680        13
53.700        10
53.720        13
53.740        23
53.760        17
53.780        23
53.800        17
53.820        10
53.840        13
53.860        27
53.880        23
53.900        27
53.920        17
53.940        13
53.960        23
53.980        23
54.000        30
54.020        20
54.040        13
54.060        10
54.080        27
54.100        20
54.120         7
54.140        10
54.160        13
54.180        20
54.200        17
54.220        13
54.240        23
54.260        13
54.280        13
54.300        17
54.320        10
54.340        17
54.360        17
54.380        20
54.400        10
54.420        13
54.440        40
54.460        13
54.480        20
54.500        27
54.520        10
54.540        10
54.560        20
54.580        20
54.600        27
54.620        30
54.640        40
54.660        20
54.680        13
54.700        30
54.720        40
54.740        50
54.760        57
54.780        57
54.800        40
54.820        57
54.840        83
54.860        70
54.880       103
54.900       110
54.920       180
54.940       203
54.960       290
54.980       353
55.000       363
55.020       333
55.040       363
55.060       363
55.080       267
55.100       293
55.120       293
55.140       310
55.160       247
55.180       260
55.200       250
55.220       230
55.240       167
55.260       137
55.280       120
55.300       100
55.320        93
55.340        67
55.360        73
55.380        40
55.400        27
55.420        20
55.440        27
55.460        23
55.480        13
55.500        20
55.520        23
55.540        33
55.560        27
55.580        20
55.600        10
55.620        17
55.640        10
55.660        10
55.680        20
55.700        10
55.720        10
55.740        17
55.760        40
55.780        13
55.800        20
55.820        27
55.840        17
55.860        20
55.880        27
55.900        17
55.920        20
55.940        10
55.960        13
55.980        13
56.000        20
56.020        17
56.040        30
56.060        20
56.080        13
56.100        13
56.120        30
56.140        23
56.160        20
56.180        10
56.200        27
56.220        27
56.240        20
56.260        27
56.280        17
56.300        13
56.320        10
56.340        13
56.360        17
56.380        20
56.400        13
56.420        20
56.440        17
56.460        13
56.480        23
56.500        23
56.520        17
56.540        13
56.560        20
56.580        27
56.600         7
56.620        13
56.640        23
56.660        23
56.680        23
56.700        20
56.720        23
56.740        17
56.760        20
56.780         3
56.800         7
56.820        17
56.840         7
56.860         7
56.880         7
56.900        20
56.920         7
56.940        23
56.960        20
56.980        13
57.000        23
57.020        17
57.040        20
57.060        30
57.080        20
57.100        13
57.120        23
57.140        23
57.160        13
57.180        23
57.200         7
57.220        10
57.240        20
57.260        20
57.280        10
57.300        40
57.320         7
57.340        13
57.360        20
57.380        10
57.400        27
57.420        27
57.440        10
57.460        27
57.480        67
57.500        23
57.520        73
57.540        70
57.560        37
57.580        40
57.600        37
57.620        17
57.640        33
57.660        53
57.680        33
57.700        43
57.720        27
57.740        27
57.760        13
57.780        23
57.800        27
57.820        13
57.840        23
57.860        17
57.880         7
57.900        13
57.920        10
57.940        13
57.960        23
57.980         3
58.000        13
58.020        10
58.040        17
58.060        17
58.080        23
58.100        13
58.120        13
58.140        10
58.160        20
58.180        23
58.200        13
58.220        17
58.240        17
58.260         7
58.280        17
58.300         7
58.320        10
58.340        17
58.360        20
58.380         7
58.400        20
58.420        27
58.440         7
58.460        20
58.480        23
58.500        13
58.520        17
58.540         7
58.560        10
58.580        17
58.600         7
58.620        17
58.640        23
58.660        17
58.680        10
58.700         3
58.720        13
58.740         3
58.760        17
58.780        10
58.800        13
58.820        13
58.840        17
58.860        10
58.880         7
58.900         0
58.920        27
58.940         0
58.960        10
58.980        17
59.000        10
59.020        17
59.040         7
59.060         7
59.080        17
59.100        23
59.120         3
59.140        13
59.160        17
59.180         7
59.200        23
59.220        20
59.240         7
59.260        10
59.280        23
59.300         3
59.320        10
59.340        10
59.360        13
59.380        13
59.400        37
59.420        10
59.440        13
59.460        10
59.480        23
59.500        10
59.520        23
59.540         7
59.560        20
59.580        20
59.600        17
59.620        23
59.640        20
59.660        20
59.680        17
59.700         7
59.720        13
59.740        20
59.760         0
59.780        10
59.800        13
59.820        13
59.840        20
59.860        23
59.880        13
59.900        23
59.920        10
59.940        30
59.960        10
59.980        10
60.000        10
