20.000        43
20.020        43
20.040        23
20.060        23
20.080        40
20.100        50
20.120        47
20.140        40
20.160        27
20.180        40
20.200        37
20.220        53
20.240        33
20.260        63
20.280        17
20.300        60
20.320        37
20.340        13
20.360        30
20.380        20
20.400        47
20.420        47
20.440        33
20.460        43
20.480        37
20.500        50
20.520        33
20.540        60
20.560        27
20.580        43
20.600        53
20.620        13
20.640        47
20.660        40
20.680        50
20.700        43
20.720        47
20.740        20
20.760        33
20.780        23
20.800        27
20.820        57
20.840        40
20.860        23
20.880        43
20.900        63
20.920        73
20.940        27
20.960        30
20.980        20
21.000        37
21.020        17
21.040        27
21.060        23
21.080        43
21.100        43
21.120        40
21.140        47
21.160        37
21.180        60
21.200        17
21.220        40
21.240        37
21.260        33
21.280        47
21.300        40
21.320        40
21.340        40
21.360        33
21.380        30
21.400        23
21.420        30
21.440        37
21.460        47
21.480        37
21.500        27
21.520        40
21.540        27
21.560        33
21.580        33
21.600        27
21.620        50
21.640        27
21.660        30
21.680        33
21.700        30
21.720        27
21.740        40
21.760        40
21.780        43
21.800        37
21.820        27
21.840        37
21.860        43
21.880        20
21.900        23
21.920        33
21.940        27
21.960        27
21.980        37
22.000        67
22.020        33
22.040        37
22.060        50
22.080        20
22.100        27
22.120        37
22.140        30
22.160        47
22.180        43
22.200        23
22.220        57
22.240        33
22.260        17
22.280        30
22.300        33
22.320        47
22.340        33
22.360        63
22.380        23
22.400        33
22.420        33
22.440        33
22.460        20
22.480        40
22.500        20
22.520        50
22.540        50
22.560        30
22.580        37
22.600        40
22.620        27
22.640        37
22.660        40
22.680        30
22.700        30
22.720        40
22.740        30
22.760        40
22.780        37
22.800        33
22.820        30
22.840        33
22.860        33
22.880        40
22.900        33
22.920        40
22.940        33
22.960        33
22.980        57
23.000        43
23.020        27
23.040        27
23.060        33
23.080        37
23.100        20
23.120        33
23.140        40
23.160        43
23.180        20
23.200        33
23.220        23
23.240        30
23.260        23
23.280        27
23.300        23
23.320        33
23.340        27
23.360        40
23.380        20
23.400        27
23.420        20
23.440        30
23.460        20
23.480        30
23.500        50
23.520        30
23.540        37
23.560        30
23.580        40
23.600        30
23.620        23
23.640        43
23.660        27
23.680        30
23.700        57
23.720        23
23.740        37
23.760        40
23.780        23
23.800         7
23.820        30
23.840        23
23.860        40
23.880        30
23.900        20
23.920        27
23.940        33
23.960        20
23.980        43
24.000        23
24.020        33
24.040        23
24.060        37
24.080        40
24.100        20
24.120        27
24.140        13
24.160        13
24.180        37
24.200        17
24.220        37
24.240        20
24.260        33
24.280        37
24.300        27
24.320        30
24.340        17
24.360        27
24.380        27
24.400        37
24.420        23
24.440        30
24.460        33
24.480        33
24.500        27
24.520        23
24.540        17
24.560        23
24.580        37
24.600        23
24.620        43
24.640        23
24.660        50
24.680        13
24.700        27
24.720        37
24.740        27
24.760        27
24.780        30
24.800        43
24.820        33
24.840        30
24.860        20
24.880        40
24.900        57
24.920        43
24.940        23
24.960        40
24.980        37
25.000        30
25.020        20
25.040        33
25.060        37
25.080         7
25.100        33
25.120        33
25.140        37
25.160        30
25.180        27
25.200        30
25.220        13
25.240        53
25.260        10
25.280        20
25.300        30
25.320        23
25.340        50
25.360        43
25.380        50
25.400        30
25.420        13
25.440        37
25.460        23
25.480        27
25.500        20
25.520        23
25.540        40
25.560        27
25.580        40
25.600        27
25.620        30
25.640        27
25.660        27
25.680        27
25.700        33
25.720        23
25.740         7
25.760        30
25.780        17
25.800        40
25.820        10
25.840        27
25.860        50
25.880        20
25.900        37
25.920        33
25.940        33
25.960        23
25.980        30
26.000        20
26.020        23
26.040        27
26.060        40
26.080        20
26.100        20
26.120        20
26.140        33
26.160        30
26.180        20
26.200        17
26.220        33
26.240        10
26.260        20
26.280        47
26.300        20
26.320        23
26.340        50
26.360        23
26.380        27
26.400        17
26.420        17
26.440        23
26.460        43
26.480        13
26.500        27
26.520        27
26.540        20
26.560        37
26.580        33
26.600        23
26.620        30
26.640        33
26.660        33
26.680        20
26.700        27
26.720        20
26.740        30
26.760        23
26.780        23
26.800        30
26.820        30
26.840        23
26.860        27
26.880        20
26.900        37
26.920        27
26.940        30
26.960        20
26.980        23
27.000        23
27.020        33
27.040        20
27.060        30
27.080        17
27.100        23
27.120        33
27.140        30
27.160        13
27.180        43
27.200        23
27.220        37
27.240        20
27.260        23
27.280        33
27.300        27
27.320        33
27.340        33
27.360        27
27.380        27
27.400        37
27.420        43
27.440        27
27.460        13
27.480        30
27.500        33
27.520        23
27.540        20
27.560        43
27.580        27
27.600        20
27.620         7
27.640        33
27.660        27
27.680        33
27.700         7
27.720        20
27.740        23
27.760        27
27.780        13
27.800        23
27.820        37
27.840        20
27.860        23
27.880        27
27.900        37
27.920        33
27.940        37
27.960        27
27.980        37
28.000        13
28.020        20
28.040        33
28.060        17
28.080        20
28.100        33
28.120        23
28.140        33
28.160        37
28.180        23
28.200        30
28.220        20
28.240        40
28.260        33
28.280        30
28.300        23
28.320        30
28.340        13
28.360        47
28.380        30
28.400        27
28.420        27
28.440        27
28.460         7
28.480        27
28.500        20
28.520        20
28.540        37
28.560        33
28.580        30
28.600        27
28.620        30
28.640        40
28.660        27
28.680        33
28.700        23
28.720        27
28.740        27
28.760        20
28.780        30
28.800        27
28.820        27
28.840        27
28.860        43
28.880        17
28.900        30
28.920        33
28.940        27
28.960        33
28.980         7
29.000        37
29.020        20
29.040        17
29.060        20
29.080        23
29.100        23
29.120        27
29.140        33
29.160        27
29.180        37
29.200        27
29.220        37
29.240        17
29.260        60
29.280        50
29.300        37
29.320        40
29.340        40
29.360        57
29.380        47
29.400        33
29.420        33
29.440        53
29.460        33
29.480        17
29.500        23
29.520        37
29.540        23
29.560         7
29.580        13
29.600        33
29.620        27
29.640        20
29.660        20
29.680        23
29.700        40
29.720        13
29.740        23
29.760        23
29.780        17
29.800        30
29.820        13
29.840        33
29.860        27
29.880        13
29.900        30
29.920        23
29.940        27
29.960        17
29.980        33
30.000        23
30.020        20
30.040        20
30.060        23
30.080        33
30.100        20
30.120        33
30.140        27
30.160        20
30.180        27
30.200        13
30.220        30
30.240        33
30.260        17
30.280        37
30.300        30
30.320        33
30.340        17
30.360        17
30.380        37
30.400        13
30.420        33
30.440        47
30.460        30
30.480        20
30.500        27
30.520        33
30.540        20
30.560        23
30.580        33
30.600        20
30.620        13
30.640        27
30.660        23
30.680        40
30.700        50
30.720        23
30.740        33
30.760        37
30.780        27
30.800        30
30.820        20
30.840        13
30.860        50
30.880        50
30.900        37
30.920        43
30.940        60
30.960        80
30.980        63
31.000       120
31.020       107
31.040       110
31.060       120
31.080       130
31.100       170
31.120       207
31.140       217
31.160       297
31.180       330
31.200       466
31.220       533
31.240       700
31.260       863
31.280       826
31.300       796
31.320       726
31.340       553
31.360       566
31.380       443
31.400       370
31.420       243
31.440       220
31.460       113
31.480       127
31.500       103
31.520       110
31.540        70
31.560        47
31.580        47
31.600        57
31.620        57
31.640        47
31.660        37
31.680        30
31.700        43
31.720        40
31.740        17
31.760        50
31.780        33
31.800        27
31.820        27
31.840        50
31.860        20
31.880        33
31.900        10
31.920        40
31.940        13
31.960        37
31.980        17
32.000        17
32.020        23
32.040        10
32.060        17
32.080        30
32.100        27
32.120        13
32.140        27
32.160        30
32.180        10
32.200        20
32.220        30
32.240        17
32.260        17
32.280        40
32.300        10
32.320        17
32.340        17
32.360        13
32.380        30
32.400        13
32.420        27
32.440        30
32.460        33
32.480        20
32.500        23
32.520        23
32.540        30
32.560        13
32.580        27
32.600        37
32.620        20
32.640        33
32.660        20
32.680        20
32.700        20
32.720        27
32.740        20
32.760        27
32.780        23
32.800        33
32.820        33
32.840        33
32.860        23
32.880        17
32.900       123
32.920        13
32.940        37
32.960        20
32.980        27
33.000        40
33.020        30
33.040        23
33.060        17
33.080        17
33.100        30
33.120        17
33.140        10
33.160        27
33.180        30
33.200        30
33.220        20
33.240        10
33.260        10
33.280        20
33.300        13
33.320        10
33.340        27
33.360        17
33.380        27
33.400        40
33.420        20
33.440         7
33.460        30
33.480        23
33.500        17
33.520        20
33.540        33
33.560        30
33.580        33
33.600        30
33.620        20
33.640        30
33.660        30
33.680        20
33.700        33
33.720        23
33.740        30
33.760        27
33.780        10
33.800        23
33.820        33
33.840        20
33.860        27
33.880        23
33.900        20
33.920        50
33.940        37
33.960        47
33.980        60
34.000        43
34.020        40
34.040        47
34.060        77
34.080        73
34.100        30
34.120        43
34.140        57
34.160        57
34.180        60
34.200        57
34.220        70
34.240        60
34.260        60
34.280        50
34.300        47
34.320        63
34.340        43
34.360        37
34.380        53
34.400        40
34.420        57
34.440        17
34.460        40
34.480        23
34.500        40
34.520        30
34.540        30
34.560        47
34.580        17
34.600        27
34.620        13
34.640        33
34.660        13
34.680        20
34.700        27
34.720        20
34.740         7
34.760        13
34.780        23
34.800        23
34.820        23
34.840        10
34.860        27
34.880        33
34.900        13
34.920         7
34.940         7
34.960        20
34.980        20
35.000        13
35.020        10
35.040        20
35.060        10
35.080        17
35.100        37
35.120        13
35.140        23
35.160        47
35.180        33
35.200        40
35.220        33
35.240        37
35.260        37
35.280        40
35.300        23
35.320        30
35.340        27
35.360        17
35.380        13
35.400        27
35.420        30
35.440        27
35.460        27
35.480        23
35.500         3
35.520        20
35.540        37
35.560        10
35.580         3
35.600        30
35.620        10
35.640        30
35.660        33
35.680        10
35.700         7
35.720        17
35.740         7
35.760        23
35.780        17
35.800        17
35.820        23
35.840        30
35.860         7
35.880        23
35.900        23
35.920        30
35.940        17
35.960        23
35.980        10
36.000        17
36.020        27
36.040        27
36.060        27
36.080        23
36.100        30
36.120        27
36.140        17
36.160        20
36.180        20
36.200        13
36.220        40
36.240        23
36.260        17
36.280        33
36.300        10
36.320        33
36.340        13
36.360        37
36.380        20
36.400         7
36.420        37
36.440        17
36.460        10
36.480        37
36.500        27
36.520        20
36.540        23
36.560        17
36.580        30
36.600        20
36.620        20
36.640        20
36.660        30
36.680        13
36.700        20
36.720        20
36.740        20
36.760        17
36.780        20
36.800        13
36.820        30
36.840        13
36.860        23
36.880        23
36.900        13
36.920        17
36.940        23
36.960        20
36.980        27
37.000        13
37.020        17
37.040        13
37.060        17
37.080        23
37.100        30
37.120        13
37.140        10
37.160         7
37.180        23
37.200        23
37.220        30
37.240        23
37.260        13
37.280        17
37.300        20
37.320        23
37.340        23
37.360        23
37.380        20
37.400        23
37.420        37
37.440        13
37.460        20
37.480        20
37.500        20
37.520        13
37.540        20
37.560        23
37.580        23
37.600        20
37.620        27
37.640         7
37.660        27
37.680        30
37.700        17
37.720        27
37.740        13
37.760        17
37.780        37
37.800        23
37.820        20
37.840        23
37.860        27
37.880        20
37.900        17
37.920        27
37.940        23
37.960        23
37.980        20
38.000        20
38.020        30
38.040        43
38.060        27
38.080        30
38.100        30
38.120        43
38.140        23
38.160        23
38.180        20
38.200        30
38.220        27
38.240        20
38.260        33
38.280        33
38.300        10
38.320        33
38.340        53
38.360        50
38.380        30
38.400        53
38.420        40
38.440        23
38.460        57
38.480        73
38.500        83
38.520        33
38.540        73
38.560        73
38.580        70
38.600        47
38.620        83
38.640        90
38.660        70
38.680        50
38.700        53
38.720        37
38.740        73
38.760        27
38.780        43
38.800        30
38.820        30
38.840        37
38.860        17
38.880        30
38.900        27
38.920        20
38.940        27
38.960        27
38.980        23
39.000        20
39.020        20
39.040        23
39.060         7
39.080        17
39.100        27
39.120        27
39.140        23
39.160         3
39.180        20
39.200        20
39.220        20
39.240         3
39.260        17
39.280        20
39.300        17
39.320        23
39.340        20
39.360        20
39.380        20
39.400        27
39.420        13
39.440        23
39.460        20
39.480        27
39.500        10
39.520        10
39.540        20
39.560        20
39.580        13
39.600        20
39.620        20
39.640        20
39.660        20
39.680        10
39.700        20
39.720        20
39.740        13
39.760        10
39.780        27
39.800        27
39.820        17
39.840        13
39.860        20
39.880        17
39.900        23
39.920         3
39.940        23
39.960        10
39.980        17
40.000        37
40.020        33
40.040        33
40.060        13
40.080        27
40.100        13
40.120        13
40.140        23
40.160        13
40.180         7
40.200        27
40.220        13
40.240         7
40.260        17
40.280        13
40.300        20
40.320        10
40.340        17
40.360        30
40.380        20
40.400        23
40.420         7
40.440        20
40.460        23
40.480        20
40.500        23
40.520        10
40.540        33
40.560        37
40.580        17
40.600         7
40.620        17
40.640        23
40.660        13
40.680        20
40.700        23
40.720        17
40.740        13
40.760         7
40.780        43
40.800        23
40.820        23
40.840        10
40.860        40
40.880        20
40.900        13
40.920        13
40.940        23
40.960        20
40.980        20
41.000        13
41.020        33
41.040        27
41.060        10
41.080        13
41.100        17
41.120        17
41.140         3
41.160        17
41.180        17
41.200        13
41.220        17
41.240        33
41.260        23
41.280        30
41.300        17
41.320        27
41.340        17
41.360         7
41.380        13
41.400         7
41.420        13
41.440        10
41.460        20
41.480        13
41.500         7
41.520        27
41.540        20
41.560        13
41.580        10
41.600        17
41.620        30
41.640        10
41.660        10
41.680        33
41.700        27
41.720        53
41.740        50
41.760        67
41.780        43
41.800        17
41.820        43
41.840        37
41.860        30
41.880        30
41.900        27
41.920        10
41.940        13
41.960        37
41.980        23
42.000        20
42.020        13
42.040        20
42.060        13
42.080        23
42.100         3
42.120        33
42.140        13
42.160         7
42.180        20
42.200        13
42.220        23
42.240        23
42.260        17
42.280         7
42.300        30
42.320         7
42.340         7
42.360         7
42.380        33
42.400        23
42.420        20
42.440        33
42.460         7
42.480        13
42.500        20
42.520        10
42.540        20
42.560        17
42.580        33
42.600         7
42.620        37
42.640        20
42.660        10
42.680        20
42.700        20
42.720        27
42.740        13
42.760        17
42.780        13
42.800        23
42.820        17
42.840        17
42.860         7
42.880         3
42.900        23
42.920        30
42.940        30
42.960         7
42.980        13
43.000        23
43.020        23
43.040        20
43.060        20
43.080        23
43.100        33
43.120        47
43.140        13
43.160        20
43.180        10
43.200        20
43.220        27
43.240        23
43.260        27
43.280        33
43.300        30
43.320        13
43.340         7
43.360        23
43.380        20
43.400        20
43.420        20
43.440        13
43.460        13
43.480        27
43.500        13
43.520        13
43.540        30
43.560         7
43.580        13
43.600        17
43.620         7
43.640        27
43.660        13
43.680        23
43.700        17
43.720        13
43.740        20
43.760        20
43.780        13
43.800        20
43.820        37
43.840        13
43.860        23
43.880        13
43.900        23
43.920        40
43.940        23
43.960         7
43.980        20
44.000        23
44.020        23
44.040        17
44.060        17
44.080        13
44.100        13
44.120        13
44.140         7
44.160        13
44.180        20
44.200        13
44.220        23
44.240        20
44.260         7
44.280        23
44.300        23
44.320        23
44.340        20
44.360        17
44.380        13
44.400        20
44.420        33
44.440        13
44.460        13
44.480        10
44.500        30
44.520        33
44.540        17
44.560        17
44.580        20
44.600        30
44.620        20
44.640        37
44.660        10
44.680        20
44.700        17
44.720        20
44.740        17
44.760        30
44.780        13
44.800        23
44.820        30
44.840        13
44.860        17
44.880        13
44.900        23
44.920        30
44.940        13
44.960        17
44.980        33
45.000        13
45.020        17
45.040        33
45.060        23
45.080        27
45.100        20
45.120        30
45.140        37
45.160        10
45.180        20
45.200        17
45.220        30
45.240        13
45.260        23
45.280        17
45.300        17
45.320        27
45.340        13
45.360        27
45.380        17
45.400        10
45.420        27
45.440         7
45.460        13
45.480        17
45.500        17
45.520        23
45.540        17
45.560        23
45.580        27
45.600        13
45.620        20
45.640        13
45.660        27
45.680        17
45.700        10
45.720         3
45.740        20
45.760        13
45.780        20
45.800        17
45.820        20
45.840        13
45.860        13
45.880         7
45.900        10
45.920        13
45.940        17
45.960        23
45.980        10
46.000        23
46.020        10
46.040        10
46.060         0
46.080        23
46.100        20
46.120        33
46.140         7
46.160        10
46.180        10
46.200        17
46.220        37
46.240        23
46.260        10
46.280        27
46.300        23
46.320        13
46.340        30
46.360        20
46.380         7
46.400        27
46.420         7
46.440        30
46.460         3
46.480        10
46.500        13
46.520        17
46.540        20
46.560        13
46.580        23
46.600        23
46.620        17
46.640        20
46.660        13
46.680        17
46.700        13
46.720        13
46.740        13
46.760        27
46.780         7
46.800        30
46.820        13
46.840        30
46.860        33
46.880        13
46.900        30
46.920        23
46.940        20
46.960        17
46.980        10
47.000        10
47.020        10
47.040        23
47.060        13
47.080        20
47.100        27
47.120        17
47.140        10
47.160        20
47.180        30
47.200        17
47.220        13
47.240        37
47.260        10
47.280        17
47.300        10
47.320         7
47.340        13
47.360        13
47.380        17
47.400        23
47.420        10
47.440         7
47.460        23
47.480        20
47.500        10
47.520        27
47.540        20
47.560         7
47.580        17
47.600        30
47.620        13
47.640        37
47.660        20
47.680        17
47.700        17
47.720        33
47.740         7
47.760        23
47.780         3
47.800        17
47.820        20
47.840        10
47.860         7
47.880        13
47.900        20
47.920        10
47.940        13
47.960        20
47.980         7
48.000        13
48.020        17
48.040        30
48.060        30
48.080        23
48.100        17
48.120         7
48.140        10
48.160        20
48.180        10
48.200        17
48.220        10
48.240         3
48.260         7
48.280        13
48.300        13
48.320        13
48.340        17
48.360        23
48.380        27
48.400        17
48.420        13
48.440        17
48.460         3
48.480        20
48.500        13
48.520        10
48.540        23
48.560        13
48.580        27
48.600        10
48.620        40
48.640        20
48.660         7
48.680        23
48.700        10
48.720        10
48.740        30
48.760        20
48.780        17
48.800         7
48.820        17
48.840        20
48.860        20
48.880        17
48.900         7
48.920        23
48.940        20
48.960        17
48.980        10
49.000        10
49.020        17
49.040        23
49.060        10
49.080        27
49.100        27
49.120        10
49.140        10
49.160        20
49.180        20
49.200        13
49.220        33
49.240        23
49.260         7
49.280        20
49.300        17
49.320        20
49.340        20
49.360         7
49.380        20
49.400        13
49.420        13
49.440        30
49.460        17
49.480        17
49.500        10
49.520        17
49.540        17
49.560        10
49.580        10
49.600         7
49.620        10
49.640        23
49.660        20
49.680        17
49.700        27
49.720        13
49.740        30
49.760        13
49.780        13
49.800         7
49.820        20
49.840        20
49.860        23
49.880        20
49.900        33
49.920        13
49.940        20
49.960        17
49.980         7
50.000        30
50.020        23
50.040         7
50.060        23
50.080         7
50.100        17
50.120        13
50.140         7
50.160        10
50.180         7
50.200        20
50.220         7
50.240        30
50.260        27
50.280        17
50.300        27
50.320         7
50.340         7
50.360        23
50.380         7
50.400         7
50.420        20
50.440        10
50.460        17
50.480        13
50.500        17
50.520         0
50.540        20
50.560        20
50.580        23
50.600        13
50.620        17
50.640        20
50.660        13
50.680         7
50.700        17
50.720        20
50.740        30
50.760         3
50.780        30
50.800         7
50.820        27
50.840        23
50.860        13
50.880        17
50.900        20
50.920        13
50.940        13
50.960        30
50.980        17
51.000        13
51.020        20
51.040         7
51.060        10
51.080        10
51.100        20
51.120        10
51.140        17
51.160        13
51.180         0
51.200        13
51.220        13
51.240        13
51.260        13
51.280         7
51.300        20
51.320        27
51.340         7
51.360         7
51.380         3
51.400        13
51.420         7
51.440        10
51.460         3
51.480         7
51.500        20
51.520        13
51.540        40
51.560        10
51.580        10
51.600        10
51.620        13
51.640        10
51.660        13
51.680        17
51.700        20
51.720        17
51.740        23
51.760         7
51.780        13
51.800        30
51.820        17
51.840        13
51.860        23
51.880        27
51.900        13
51.920        27
51.940        27
51.960        37
51.980        20
52.000        10
52.020        30
52.040        13
52.060        23
52.080        13
52.100        13
52.120        23
52.140        13
52.160        27
52.180        23
52.200        23
52.220         7
52.240        20
52.260        17
52.280        17
52.300        10
52.320        23
52.340         7
52.360        20
52.380        23
52.400        13
52.420        23
52.440        10
52.460        17
52.480        30
52.500        30
52.520        10
52.540        20
52.560        13
52.580         7
52.600        27
52.620        10
52.640         7
52.660        17
52.680        20
52.700        13
52.720         3
52.740        17
52.760        17
52.780        23
52.800        10
52.820        10
52.840        17
52.860        23
52.880        10
52.900        17
52.920        20
52.940        10
52.960         7
52.980        17
53.000        13
53.020        13
53.040         7
53.060        10
53.080        10
53.100        20
53.120        20
53.140        10
53.160        17
53.180        13
53.200         7
53.220        13
53.240         7
53.260        37
53.280        10
53.300        17
53.320        13
53.340        17
53.360        13
53.380        17
53.400        13
53.420        17
53.440        13
53.460         3
53.480        20
53.500        13
53.520        17
53.540         3
53.560        17
53.580        13
53.600        13
53.620        13
53.640        13
53.660        17
53.680        17
53.700        13
53.720        23
53.740        33
53.760        27
53.780        17
53.800        37
53.820        17
53.840        23
53.860        23
53.880        20
53.900        30
53.920        20
53.940        13
53.960         7
53.980        33
54.000        20
54.020         7
54.040        20
54.060        30
54.080        27
54.100         3
54.120        30
54.140        30
54.160        13
54.180        10
54.200        30
54.220        23
54.240        27
54.260        23
54.280        33
54.300        20
54.320        23
54.340        13
54.360        17
54.380        50
54.400        10
54.420        13
54.440        27
54.460        27
54.480        17
54.500        23
54.520        10
54.540        17
54.560         3
54.580         3
54.600        40
54.620        13
54.640        13
54.660        10
54.680        17
54.700        20
54.720        17
54.740        20
54.760        13
54.780        20
54.800        23
54.820        17
54.840        43
54.860        13
54.880        20
54.900        23
54.920        33
54.940        17
54.960        27
54.980        33
55.000        20
55.020        27
55.040        20
55.060        20
55.080        23
55.100        30
55.120        53
55.140        63
55.160        33
55.180        40
55.200        27
55.220        53
55.240        60
55.260        60
55.280        47
55.300        77
55.320        60
55.340        93
55.360       100
55.380       130
55.400       133
55.420       153
55.440       253
55.460       263
55.480       287
55.500       370
55.520       506
55.540       496
55.560       643
55.580       863
55.600       910
55.620      1126
55.640      1016
55.660      1000
55.680       923
55.700      1070
55.720       883
55.740       820
55.760       766
55.780       680
55.800       746
55.820       606
55.840       443
55.860       426
55.880       310
55.900       263
55.920       213
55.940       160
55.960       193
55.980       150
56.000       137
56.020       107
56.040        93
56.060       103
56.080        53
56.100        73
56.120        70
56.140        53
56.160        40
56.180        40
56.200        57
56.220        30
56.240        50
56.260        33
56.280        50
56.300        27
56.320        37
56.340        20
56.360        10
56.380        30
56.400        10
56.420        60
56.440        23
56.460        33
56.480        40
56.500        27
56.520        37
56.540        17
56.560        20
56.580        20
56.600        10
56.620        27
56.640         7
56.660        33
56.680        13
56.700        10
56.720        20
56.740        20
56.760        13
56.780        23
56.800        23
56.820        17
56.840         7
56.860        23
56.880        27
56.900        37
56.920        23
56.940        13
56.960        23
56.980        20
57.000        20
57.020        20
57.040        13
57.060        13
57.080        20
57.100        13
57.120        23
57.140        20
57.160        30
57.180        10
57.200        17
57.220        13
57.240        13
57.260         3
57.280        17
57.300        37
57.320        13
57.340        20
57.360        13
57.380        13
57.400        27
57.420         3
57.440        20
57.460        17
57.480        27
57.500        27
57.520        20
57.540        30
57.560        73
57.580        50
57.600        53
57.620        53
57.640        23
57.660        23
57.680        20
57.700        30
57.720        40
57.740        23
57.760        57
57.780        27
57.800        13
57.820        13
57.840        13
57.860        13
57.880        20
57.900        13
57.920        20
57.940        13
57.960        23
57.980        17
58.000        27
58.020        17
58.040        10
58.060        13
58.080        23
58.100        17
58.120        27
58.140        20
58.160        17
58.180        33
58.200         7
58.220         7
58.240        23
58.260        13
58.280         7
58.300        17
58.320        10
58.340        13
58.360        13
58.380        20
58.400        10
58.420        10
58.440        20
58.460        20
58.480        10
58.500        33
58.520        13
58.540        23
58.560        13
58.580        20
58.600        20
58.620        30
58.640        13
58.660        10
58.680        17
58.700        27
58.720         7
58.740        17
58.760        17
58.780        17
58.800        20
58.820        20
58.840         7
58.860        10
58.880        20
58.900         3
58.920        17
58.940         7
58.960        10
58.980        20
59.000         3
59.020         7
59.040        17
59.060         7
59.080        13
59.100        13
59.120        23
59.140        13
59.160        23
59.180         7
59.200        13
59.220        27
59.240        20
59.260        10
59.280         7
59.300         7
59.320        17
59.340        10
59.360         3
59.380        10
59.400        10
59.420        23
59.440         7
59.460        10
59.480        23
59.500        27
59.520        23
59.540         7
59.560        20
59.580        17
59.600        13
59.620        20
59.640        13
59.660        23
59.680         7
59.700        17
59.720        10
59.740         3
59.760        20
59.780        17
59.800        13
59.820        17
59.840        20
59.860        13
59.880        13
59.900        17
59.920        17
59.940        13
59.960         3
59.980         7
60.000        10
