20.000         0
20.010         0
20.020        40
20.030        13
20.040        53
20.050        13
20.060        13
20.070        27
20.080        53
20.090        40
20.100        13
20.110        93
20.120        13
20.130        67
20.140        53
20.150        27
20.160       107
20.170        13
20.180        13
20.190        13
20.200        80
20.210        27
20.220        27
20.230        27
20.240        40
20.250        67
20.260        67
20.270        27
20.280        40
20.290        40
20.300        40
20.310        27
20.320        80
20.330        53
20.340        13
20.350        80
20.360        27
20.370        40
20.380        40
20.390        53
20.400        53
20.410        67
20.420        80
20.430        40
20.440        27
20.450        13
20.460       120
20.470        67
20.480        27
20.490        80
20.500        27
20.510        67
20.520        27
20.530        67
20.540        27
20.550        53
20.560        80
20.570        27
20.580        93
20.590        67
20.600        13
20.610        67
20.620        53
20.630        27
20.640        40
20.650        53
20.660        40
20.670        40
20.680        53
20.690        53
20.700        67
20.710        80
20.720        40
20.730        40
20.740        53
20.750        53
20.760        53
20.770         0
20.780        67
20.790        27
20.800        13
20.810        40
20.820        27
20.830       107
20.840        93
20.850        40
20.860         0
20.870        27
20.880        67
20.890        53
20.900       133
20.910        53
20.920        67
20.930        27
20.940        40
20.950        13
20.960        27
20.970        93
20.980        40
20.990        13
21.000        80
21.010        93
21.020        53
21.030        40
21.040        40
21.050        67
21.060        13
21.070        27
21.080        27
21.090        80
21.100        67
21.110        27
21.120        53
21.130        27
21.140        27
21.150        13
21.160        27
21.170        53
21.180        80
21.190        13
21.200         0
21.210        53
21.220        27
21.230        27
21.240        53
21.250        40
21.260        53
21.270        67
21.280        13
21.290        40
21.300         0
21.310        13
21.320        13
21.330        27
21.340        67
21.350        40
21.360        40
21.370        53
21.380        13
21.390        13
21.400        40
21.410        93
21.420        27
21.430        13
21.440        13
21.450        40
21.460       120
21.470        80
21.480        13
21.490        40
21.500        67
21.510        40
21.520        40
21.530        40
21.540        80
21.550        13
21.560        40
21.570        53
21.580        27
21.590        27
21.600        27
21.610        80
21.620         0
21.630        53
21.640        40
21.650        13
21.660        40
21.670        53
21.680        27
21.690        80
21.700        13
21.710        93
21.720        27
21.730        13
21.740        80
21.750        40
21.760        13
21.770        40
21.780        53
21.790        93
21.800        67
21.810        53
21.820        40
21.830        40
21.840        13
21.850        40
21.860        27
21.870         0
21.880        67
21.890        67
21.900        53
21.910        13
21.920        53
21.930        53
21.940       120
21.950        13
21.960        80
21.970        40
21.980       133
21.990        53
22.000        67
22.010        80
22.020        53
22.030        27
22.040        67
22.050        13
22.060        93
22.070        27
22.080        40
22.090        13
22.100        27
22.110        67
22.120        40
22.130        40
22.140        27
22.150        27
22.160        40
22.170        13
22.180        13
22.190        53
22.200        27
22.210        67
22.220        53
22.230        40
22.240        67
22.250        40
22.260        53
22.270        53
22.280        13
22.290        53
22.300        40
22.310         0
22.320        40
22.330        27
22.340        53
22.350        40
22.360        40
22.370        53
22.380        53
22.390        93
22.400        27
22.410        53
22.420        40
22.430        13
22.440        27
22.450        40
22.460        13
22.470        67
22.480        67
22.490         0
22.500        53
22.510        27
22.520        13
22.530        27
22.540        40
22.550        67
22.560        53
22.570        93
22.580        27
22.590        27
22.600        27
22.610        40
22.620        53
22.630        40
22.640        40
22.650        27
22.660        67
22.670        67
22.680        40
22.690        27
22.700        53
22.710        27
22.720        27
22.730        67
22.740        53
22.750        40
22.760        27
22.770        53
22.780         0
22.790        53
22.800        67
22.810        53
22.820        53
22.830        53
22.840         0
22.850        40
22.860        80
22.870        53
22.880        27
22.890        67
22.900        13
22.910        40
22.920        40
22.930        40
22.940        27
22.950        27
22.960        53
22.970        40
22.980        80
22.990        27
23.000        27
23.010       120
23.020       120
23.030        53
23.040        13
23.050        13
23.060        40
23.070        53
23.080        53
23.090        93
23.100        53
23.110        27
23.120        13
23.130        53
23.140        13
23.150        53
23.160        27
23.170        40
23.180        27
23.190        53
23.200        13
23.210        13
23.220        67
23.230        27
23.240        13
23.250        13
23.260        27
23.270        13
23.280        53
23.290        40
23.300        53
23.310        53
23.320        13
23.330         0
23.340         0
23.350        27
23.360        67
23.370        27
23.380        67
23.390        40
23.400        53
23.410         0
23.420        13
23.430        53
23.440        40
23.450        13
23.460        80
23.470        67
23.480        40
23.490        53
23.500        13
23.510        53
23.520        13
23.530        27
23.540        53
23.550        40
23.560        40
23.570        40
23.580        80
23.590        93
23.600         0
23.610        13
23.620        53
23.630        40
23.640        27
23.650        53
23.660        13
23.670        13
23.680        67
23.690        53
23.700         0
23.710        13
23.720        27
23.730        40
23.740        40
23.750        53
23.760        27
23.770        40
23.780        40
23.790        27
23.800        27
23.810        53
23.820        40
23.830        53
23.840        80
23.850        40
23.860        67
23.870        40
23.880        13
23.890        40
23.900        13
23.910        27
23.920        40
23.930        40
23.940        40
23.950        80
23.960        80
23.970        13
23.980        27
23.990        27
24.000        40
24.010        40
24.020         0
24.030        27
24.040        40
24.050        13
24.060        27
24.070        13
24.080        40
24.090        13
24.100        27
24.110        40
24.120         0
24.130        13
24.140        13
24.150         0
24.160        13
24.170         0
24.180        27
24.190        27
24.200        80
24.210        53
24.220        53
24.230        27
24.240        13
24.250        53
24.260        67
24.270        53
24.280        40
24.290        27
24.300        27
24.310        53
24.320        13
24.330        40
24.340        27
24.350        13
24.360        27
24.370        53
24.380        53
24.390        40
24.400        27
24.410        27
24.420        40
24.430         0
24.440        27
24.450        27
24.460       120
24.470        13
24.480        40
24.490        67
24.500        27
24.510        40
24.520        80
24.530        40
24.540        27
24.550        27
24.560        40
24.570        53
24.580        67
24.590        80
24.600        93
24.610        13
24.620        40
24.630        40
24.640        13
24.650        27
24.660        27
24.670        67
24.680        13
24.690        27
24.700        40
24.710        53
24.720         0
24.730        27
24.740        53
24.750        27
24.760        40
24.770        27
24.780        40
24.790        13
24.800        27
24.810        53
24.820        13
24.830        67
24.840        53
24.850        40
24.860        40
24.870        27
24.880        53
24.890        40
24.900        40
24.910        40
24.920        27
24.930         0
24.940        27
24.950        53
24.960        27
24.970        27
24.980        13
24.990        53
25.000        27
25.010        40
25.020         0
25.030        27
25.040        67
25.050         0
25.060        40
25.070        27
25.080        27
25.090        27
25.100        27
25.110         0
25.120        40
25.130        27
25.140        27
25.150        13
25.160        40
25.170        27
25.180        40
25.190        27
25.200         0
25.210         0
25.220        27
25.230        40
25.240        27
25.250        27
25.260        40
25.270        13
25.280        27
25.290        13
25.300        13
25.310        53
25.320        53
25.330        40
25.340        40
25.350        27
25.360         0
25.370        27
25.380        13
25.390        27
25.400        27
25.410        27
25.420        40
25.430        40
25.440        67
25.450        27
25.460        40
25.470         0
25.480        53
25.490        27
25.500        27
25.510        27
25.520        40
25.530        67
25.540        67
25.550        53
25.560        40
25.570        27
25.580        67
25.590        40
25.600        27
25.610        40
25.620        80
25.630        27
25.640        27
25.650        40
25.660        40
25.670        40
25.680         0
25.690         0
25.700         0
25.710        40
25.720        40
25.730        93
25.740        27
25.750        27
25.760         0
25.770        27
25.780        27
25.790        27
25.800        40
25.810        27
25.820        13
25.830        53
25.840        53
25.850        27
25.860         0
25.870        40
25.880        27
25.890        13
25.900        27
25.910        40
25.920         0
25.930        67
25.940        13
25.950        53
25.960        67
25.970         0
25.980        40
25.990        53
26.000        40
26.010        40
26.020        27
26.030        27
26.040         0
26.050        53
26.060        13
26.070        53
26.080        40
26.090        13
26.100        40
26.110         0
26.120        13
26.130        27
26.140        40
26.150         0
26.160        27
26.170        13
26.180        13
26.190        40
26.200        13
26.210        53
26.220        27
26.230        27
26.240        40
26.250        53
26.260        40
26.270        53
26.280        53
26.290        53
26.300        13
26.310         0
26.320         0
26.330        40
26.340        27
26.350        27
26.360        40
26.370        40
26.380        40
26.390        27
26.400        27
26.410        67
26.420        53
26.430        13
26.440         0
26.450        67
26.460        40
26.470        67
26.480        53
26.490        53
26.500        40
26.510        27
26.520        53
26.530        27
26.540        40
26.550        67
26.560        13
26.570        27
26.580        53
26.590        27
26.600        67
26.610        40
26.620        13
26.630        67
26.640       120
26.650        40
26.660        53
26.670        53
26.680       107
26.690        27
26.700        80
26.710        67
26.720        40
26.730        53
26.740        53
26.750         0
26.760        27
26.770        40
26.780        13
26.790        13
26.800        53
26.810        40
26.820        27
26.830        27
26.840        27
26.850         0
26.860        27
26.870        53
26.880        40
26.890        27
26.900        40
26.910        53
26.920        27
26.930        53
26.940        13
26.950        53
26.960        13
26.970        67
26.980        40
26.990        53
27.000        27
27.010         0
27.020        53
27.030        13
27.040        53
27.050        40
27.060        67
27.070        27
27.080        40
27.090        27
27.100        27
27.110        53
27.120        27
27.130        40
27.140        27
27.150         0
27.160        40
27.170        27
27.180        27
27.190        13
27.200        13
27.210        40
27.220        53
27.230         0
27.240        40
27.250        27
27.260        40
27.270        67
27.280         0
27.290        27
27.300        27
27.310        13
27.320        40
27.330         0
27.340        27
27.350        53
27.360        40
27.370        13
27.380        27
27.390        27
27.400        27
27.410        27
27.420        40
27.430         0
27.440        27
27.450         0
27.460        40
27.470        27
27.480        53
27.490        13
27.500         0
27.510        53
27.520        27
27.530        27
27.540        13
27.550        27
27.560        13
27.570        40
27.580        27
27.590        13
27.600        67
27.610        27
27.620        27
27.630        80
27.640        67
27.650        27
27.660        27
27.670        27
27.680         0
27.690         0
27.700        53
27.710        40
27.720        13
27.730        27
27.740        67
27.750        13
27.760        13
27.770        40
27.780        13
27.790        27
27.800        53
27.810        13
27.820        27
27.830        40
27.840        40
27.850        13
27.860        67
27.870        40
27.880        27
27.890        93
27.900        13
27.910        13
27.920        40
27.930        40
27.940         0
27.950         0
27.960        40
27.970         0
27.980        67
27.990        67
28.000        27
28.010        27
28.020        13
28.030        53
28.040        27
28.050        80
28.060        53
28.070        53
28.080        13
28.090        27
28.100        53
28.110        27
28.120        80
28.130        67
28.140        40
28.150        53
28.160        80
28.170        67
28.180        53
28.190        40
28.200        27
28.210        27
28.220        67
28.230        27
28.240        80
28.250        53
28.260        13
28.270        67
28.280        13
28.290        40
28.300        40
28.310        40
28.320        27
28.330        27
28.340        27
28.350        80
28.360         0
28.370        53
28.380        27
28.390         0
28.400        40
28.410        53
28.420        27
28.430        13
28.440        40
28.450        27
28.460        53
28.470         0
28.480        13
28.490        13
28.500        67
28.510        40
28.520        67
28.530        13
28.540        13
28.550        40
28.560        27
28.570        13
28.580        80
28.590        27
28.600        27
28.610        13
28.620        13
28.630         0
28.640        40
28.650        53
28.660        40
28.670         0
28.680        13
28.690        13
28.700        53
28.710        67
28.720        40
28.730        40
28.740        13
28.750        40
28.760        53
28.770        53
28.780        27
28.790        13
28.800        27
28.810        27
28.820        67
28.830        27
28.840        53
28.850        53
28.860        40
28.870        40
28.880        13
28.890        13
28.900        13
28.910        27
28.920        13
28.930        27
28.940        27
28.950        27
28.960         0
28.970        27
28.980        13
28.990        53
29.000        80
29.010        27
29.020         0
29.030        27
29.040        40
29.050        40
29.060        40
29.070        13
29.080         0
29.090        40
29.100        53
29.110        40
29.120        27
29.130        27
29.140        13
29.150        80
29.160        80
29.170         0
29.180         0
29.190        13
29.200        27
29.210        40
29.220        40
29.230        40
29.240        40
29.250        27
29.260        53
29.270        13
29.280        27
29.290        27
29.300         0
29.310        13
29.320        80
29.330        53
29.340        67
29.350        40
29.360        40
29.370        13
29.380         0
29.390        53
29.400        40
29.410        13
29.420        27
29.430        27
29.440        27
29.450        53
29.460        13
29.470        53
29.480        40
29.490        13
29.500        13
29.510        13
29.520        80
29.530        27
29.540        53
29.550        13
29.560        27
29.570        53
29.580        13
29.590        40
29.600         0
29.610        67
29.620        13
29.630        40
29.640        67
29.650        13
29.660        40
29.670        40
29.680        40
29.690        53
29.700        13
29.710         0
29.720        53
29.730        40
29.740        53
29.750        27
29.760        40
29.770        53
29.780        27
29.790        13
29.800        40
29.810        40
29.820        40
29.830        40
29.840        13
29.850        53
29.860        53
29.870        80
29.880        27
29.890        27
29.900        27
29.910        13
29.920        53
29.930        40
29.940        40
29.950        27
29.960        40
29.970        27
29.980        27
29.990        27
30.000        27
30.010        27
30.020        13
30.030        13
30.040        53
30.050        53
30.060        53
30.070        40
30.080        13
30.090        27
30.100        53
30.110        27
30.120        40
30.130         0
30.140        53
30.150        67
30.160        67
30.170        67
30.180        27
30.190        27
30.200         0
30.210        40
30.220        27
30.230        27
30.240        40
30.250        93
30.260        67
30.270        27
30.280        27
30.290        80
30.300        40
30.310        27
30.320        80
30.330        27
30.340        80
30.350        13
30.360        27
30.370        53
30.380        53
30.390        67
30.400        53
30.410        67
30.420        13
30.430        53
30.440        67
30.450        93
30.460        80
30.470        40
30.480        27
30.490        13
30.500        40
30.510        80
30.520        67
30.530        67
30.540        53
30.550        27
30.560        67
30.570        67
30.580        13
30.590        40
30.600        27
30.610        27
30.620        27
30.630        67
30.640        40
30.650        80
30.660        93
30.670        13
30.680        53
30.690       107
30.700        40
30.710        53
30.720        53
30.730        53
30.740        80
30.750        40
30.760        67
30.770       173
30.780        40
30.790        40
30.800        80
30.810        80
30.820        53
30.830        80
30.840        40
30.850       120
30.860        67
30.870       133
30.880        53
30.890       107
30.900        53
30.910        80
30.920       120
30.930       147
30.940       133
30.950       227
30.960       213
30.970       160
30.980       227
30.990       280
31.000       280
31.010       347
31.020       360
31.030       320
31.040       347
31.050       387
31.060       466
31.070       493
31.080       706
31.090       680
31.100       826
31.110       813
31.120      1040
31.130      1133
31.140      1519
31.150      1493
31.160      1906
31.170      2039
31.180      2586
31.190      2786
31.200      3172
31.210      3798
31.220      4385
31.230      4358
31.240      4998
31.250      5225
31.260      4665
31.270      4945
31.280      4572
31.290      4332
31.300      4438
31.310      3692
31.320      3372
31.330      3412
31.340      2852
31.350      2812
31.360      2346
31.370      1866
31.380      1626
31.390      1413
31.400      1146
31.410       800
31.420       880
31.430       853
31.440       347
31.450       320
31.460       413
31.470       320
31.480       307
31.490       360
31.500       187
31.510       200
31.520       173
31.530       160
31.540       120
31.550       213
31.560       200
31.570       173
31.580       107
31.590        93
31.600       133
31.610        80
31.620       213
31.630       107
31.640       107
31.650        93
31.660        53
31.670        40
31.680        67
31.690        67
31.700        67
31.710        93
31.720        80
31.730        80
31.740        40
31.750        80
31.760        40
31.770        53
31.780        93
31.790        53
31.800        53
31.810        80
31.820       107
31.830        13
31.840        93
31.850        27
31.860        27
31.870        93
31.880        67
31.890        80
31.900        80
31.910        40
31.920        53
31.930        53
31.940        80
31.950        40
31.960        67
31.970        53
31.980        67
31.990        53
32.000        13
32.010        80
32.020        80
32.030        40
32.040        80
32.050        13
32.060        40
32.070        53
32.080        40
32.090       160
32.100        53
32.110        67
32.120        27
32.130        80
32.140        67
32.150        53
32.160        40
32.170        53
32.180        67
32.190        67
32.200        40
32.210       107
32.220        67
32.230        53
32.240        27
32.250        93
32.260        27
32.270        27
32.280        40
32.290        53
32.300         0
32.310        53
32.320        13
32.330        27
32.340        27
32.350        53
32.360        27
32.370        53
32.380        40
32.390        67
32.400         0
32.410        80
32.420        27
32.430        27
32.440        67
32.450        53
32.460        13
32.470        67
32.480        13
32.490        67
32.500        53
32.510        13
32.520        13
32.530        40
32.540        13
32.550        27
32.560        67
32.570        27
32.580        40
32.590        67
32.600        40
32.610        27
32.620         0
32.630        40
32.640         0
32.650        27
32.660        67
32.670        40
32.680         0
32.690        27
32.700        40
32.710        27
32.720        40
32.730         0
32.740        13
32.750        67
32.760        27
32.770        27
32.780        13
32.790        13
32.800        13
32.810        40
32.820        27
32.830        27
32.840        40
32.850        53
32.860        27
32.870        13
32.880         0
32.890        27
32.900        40
32.910        13
32.920        27
32.930         0
32.940        13
32.950        53
32.960        13
32.970        80
32.980        53
32.990        40
33.000        40
33.010         0
33.020        40
33.030        40
33.040        27
33.050        13
33.060        40
33.070        67
33.080        27
33.090        13
33.100        40
33.110        27
33.120        40
33.130        13
33.140        67
33.150        67
33.160        13
33.170        13
33.180        13
33.190        40
33.200         0
33.210        27
33.220        67
33.230        80
33.240        40
33.250        27
33.260        40
33.270        40
33.280        27
33.290        53
33.300        53
33.310        13
33.320        53
33.330        53
33.340        13
33.350        40
33.360        67
33.370        67
33.380        40
33.390        13
33.400        67
33.410        53
33.420        53
33.430        40
33.440        40
33.450         0
33.460        67
33.470        27
33.480        13
33.490        40
33.500        40
33.510        40
33.520        13
33.530        53
33.540        67
33.550        27
33.560        13
33.570        13
33.580        53
33.590        40
33.600        53
33.610        13
33.620        80
33.630        93
33.640        13
33.650        67
33.660        40
33.670        40
33.680        27
33.690        53
33.700        67
33.710        40
33.720        53
33.730        27
33.740        27
33.750        13
33.760        53
33.770        67
33.780        53
33.790        53
33.800        13
33.810        27
33.820        40
33.830        67
33.840        13
33.850        80
33.860        53
33.870        27
33.880        13
33.890        53
33.900        27
33.910        40
33.920        53
33.930        93
33.940       107
33.950         0
33.960        27
33.970        40
33.980        53
33.990        53
34.000        27
34.010         0
34.020        53
34.030        40
34.040        80
34.050        27
34.060       120
34.070        13
34.080       120
34.090        27
34.100        27
34.110        67
34.120        27
34.130        53
34.140        13
34.150        80
34.160        27
34.170        40
34.180        67
34.190        80
34.200        13
34.210        27
34.220        67
34.230        80
34.240        40
34.250        13
34.260        13
34.270        13
34.280        27
34.290        40
34.300        40
34.310        27
34.320        80
34.330        40
34.340        53
34.350        13
34.360        27
34.370        93
34.380        27
34.390        40
34.400        40
34.410        40
34.420        80
34.430        67
34.440        53
34.450        40
34.460        27
34.470        13
34.480        27
34.490        67
34.500        27
34.510        67
34.520        40
34.530        13
34.540        67
34.550        27
34.560        13
34.570        27
34.580        13
34.590        40
34.600        40
34.610        53
34.620        13
34.630        13
34.640         0
34.650        27
34.660         0
34.670        13
34.680        40
34.690         0
34.700        27
34.710        40
34.720        27
34.730        27
34.740        40
34.750        27
34.760         0
34.770        40
34.780        27
34.790        27
34.800         0
34.810        53
34.820         0
34.830        40
34.840        40
34.850        27
34.860        53
34.870        40
34.880        40
34.890        27
34.900        13
34.910        13
34.920        13
34.930        40
34.940        80
34.950        40
34.960        13
34.970        53
34.980        13
34.990        67
35.000        27
35.010        13
35.020        13
35.030        13
35.040        13
35.050        27
35.060        67
35.070        13
35.080        27
35.090        27
35.100        13
35.110        67
35.120        27
35.130        13
35.140        93
35.150        27
35.160        27
35.170        13
35.180        27
35.190        40
35.200        27
35.210        13
35.220        40
35.230        13
35.240        40
35.250        27
35.260         0
35.270        13
35.280         0
35.290        13
35.300         0
35.310        13
35.320         0
35.330        27
35.340        13
35.350        27
35.360        40
35.370        13
35.380         0
35.390        40
35.400        40
35.410        40
35.420         0
35.430        27
35.440        80
35.450        27
35.460        13
35.470        27
35.480        53
35.490        27
35.500        53
35.510         0
35.520        13
35.530        13
35.540        13
35.550        13
35.560        40
35.570        67
35.580        13
35.590        27
35.600        27
35.610        80
35.620        13
35.630        40
35.640         0
35.650         0
35.660        27
35.670        13
35.680        40
35.690        27
35.700        93
35.710        27
35.720         0
35.730        13
35.740        40
35.750        27
35.760        53
35.770        80
35.780        27
35.790        13
35.800        27
35.810        27
35.820        27
35.830        40
35.840         0
35.850        40
35.860        53
35.870         0
35.880        13
35.890        27
35.900        13
35.910        13
35.920        53
35.930        40
35.940        53
35.950        53
35.960        40
35.970        53
35.980        40
35.990        27
36.000        40
36.010        40
36.020        13
36.030        53
36.040        67
36.050        13
36.060        13
36.070         0
36.080        53
36.090        40
36.100        13
36.110         0
36.120         0
36.130        27
36.140        13
36.150        93
36.160         0
36.170        13
36.180        13
36.190        27
36.200        13
36.210        13
36.220        53
36.230        13
36.240         0
36.250        40
36.260        27
36.270        53
36.280        67
36.290        27
36.300        27
36.310         0
36.320        13
36.330        67
36.340        40
36.350        27
36.360        40
36.370        40
36.380         0
36.390        27
36.400        13
36.410        53
36.420        40
36.430        40
36.440        40
36.450        53
36.460        40
36.470        53
36.480        13
36.490        13
36.500        27
36.510        67
36.520        27
36.530        53
36.540         0
36.550        40
36.560        40
36.570        40
36.580        27
36.590        13
36.600        53
36.610        40
36.620        53
36.630        27
36.640        27
36.650        13
36.660        13
36.670        40
36.680        40
36.690        27
36.700        27
36.710        40
36.720         0
36.730         0
36.740        53
36.750        53
36.760        27
36.770        27
36.780        40
36.790        27
36.800        13
36.810        27
36.820        80
36.830        13
36.840        80
36.850        13
36.860        13
36.870        27
36.880        40
36.890        40
36.900        13
36.910        80
36.920        27
36.930        40
36.940        40
36.950        13
36.960        53
36.970        53
36.980        53
36.990        27
37.000        40
37.010        13
37.020        27
37.030        27
37.040        40
37.050         0
37.060        67
37.070        40
37.080        40
37.090        53
37.100         0
37.110        40
37.120        53
37.130        40
37.140        13
37.150        40
37.160        53
37.170        13
37.180        13
37.190        27
37.200        27
37.210        13
37.220        67
37.230        27
37.240        27
37.250        53
37.260        27
37.270        13
37.280        27
37.290        40
37.300        53
37.310         0
37.320         0
37.330        67
37.340        13
37.350        13
37.360        27
37.370         0
37.380        13
37.390        53
37.400        53
37.410        27
37.420        67
37.430        40
37.440        27
37.450        27
37.460        40
37.470        27
37.480         0
37.490         0
37.500        53
37.510        27
37.520        67
37.530         0
37.540        27
37.550        13
37.560        13
37.570        13
37.580        53
37.590        27
37.600        40
37.610         0
37.620        13
37.630        40
37.640        13
37.650        40
37.660        53
37.670        13
37.680         0
37.690        13
37.700        53
37.710        13
37.720        40
37.730        13
37.740        67
37.750        13
37.760        40
37.770        13
37.780        13
37.790        27
37.800        27
37.810        27
37.820        53
37.830        27
37.840        27
37.850        27
37.860        40
37.870        27
37.880        13
37.890        27
37.900        27
37.910        53
37.920        27
37.930        53
37.940         0
37.950        13
37.960        27
37.970        27
37.980        40
37.990        27
38.000         0
38.010        67
38.020        13
38.030        27
38.040        40
38.050        13
38.060        13
38.070        13
38.080        13
38.090        13
38.100        27
38.110        27
38.120        53
38.130        27
38.140        27
38.150        13
38.160         0
38.170        53
38.180         0
38.190        53
38.200        27
38.210        53
38.220        27
38.230        13
38.240        40
38.250        40
38.260        40
38.270        40
38.280        53
38.290        53
38.300        40
38.310        80
38.320        13
38.330        13
38.340        27
38.350        13
38.360        40
38.370        13
38.380        40
38.390        53
38.400        53
38.410        67
38.420        40
38.430        27
38.440       147
38.450        67
38.460        13
38.470        80
38.480        53
38.490        67
38.500       107
38.510        40
38.520        67
38.530       147
38.540       133
38.550        40
38.560        93
38.570       107
38.580       107
38.590       133
38.600        93
38.610        80
38.620        67
38.630        53
38.640       133
38.650        80
38.660       120
38.670        53
38.680        93
38.690        93
38.700        40
38.710        80
38.720        67
38.730        80
38.740        53
38.750        67
38.760        67
38.770        27
38.780        27
38.790        80
38.800        40
38.810        40
38.820        40
38.830        27
38.840        53
38.850        80
38.860        27
38.870        40
38.880        13
38.890        27
38.900        27
38.910        27
38.920        93
38.930        27
38.940        40
38.950        13
38.960        13
38.970        27
38.980        13
38.990        27
39.000        27
39.010        53
39.020        53
39.030        27
39.040        13
39.050        13
39.060        27
39.070         0
39.080        13
39.090        27
39.100        27
39.110        13
39.120        53
39.130        53
39.140        40
39.150        27
39.160        13
39.170        67
39.180        13
39.190        27
39.200        13
39.210        53
39.220         0
39.230        53
39.240        27
39.250        27
39.260        40
39.270        13
39.280        13
39.290        13
39.300        40
39.310        40
39.320        53
39.330        40
39.340        27
39.350        53
39.360        13
39.370        27
39.380        53
39.390        67
39.400         0
39.410        80
39.420        13
39.430        27
39.440        13
39.450        53
39.460        53
39.470        27
39.480        40
39.490        53
39.500        13
39.510        27
39.520        40
39.530        67
39.540        80
39.550        93
39.560        40
39.570        80
39.580        80
39.590        53
39.600        53
39.610        67
39.620        93
39.630        27
39.640        53
39.650        53
39.660        67
39.670        27
39.680        27
39.690        93
39.700        80
39.710        53
39.720        80
39.730        40
39.740        93
39.750        80
39.760        27
39.770        27
39.780         0
39.790        53
39.800        40
39.810        53
39.820        40
39.830        40
39.840        67
39.850        27
39.860        13
39.870        40
39.880        13
39.890        13
39.900        13
39.910        13
39.920        13
39.930        13
39.940        53
39.950        13
39.960        13
39.970        27
39.980        13
39.990        40
40.000        27
40.010        27
40.020         0
40.030        27
40.040        40
40.050        40
40.060        53
40.070        40
40.080        13
40.090        13
40.100         0
40.110        13
40.120         0
40.130        53
40.140        40
40.150        67
40.160         0
40.170        67
40.180        27
40.190         0
40.200        27
40.210        13
40.220        27
40.230        27
40.240        40
40.250         0
40.260        27
40.270        27
40.280        13
40.290        13
40.300        13
40.310        13
40.320        27
40.330         0
40.340        13
40.350        40
40.360        27
40.370        13
40.380        13
40.390        40
40.400         0
40.410        13
40.420        67
40.430        27
40.440         0
40.450        27
40.460        13
40.470         0
40.480        27
40.490        67
40.500         0
40.510        80
40.520        27
40.530        13
40.540         0
40.550        13
40.560        53
40.570        27
40.580         0
40.590        40
40.600        53
40.610        27
40.620        27
40.630        13
40.640        13
40.650        13
40.660        40
40.670        13
40.680        40
40.690         0
40.700        13
40.710         0
40.720        13
40.730        67
40.740         0
40.750        40
40.760        27
40.770        40
40.780        13
40.790         0
40.800        27
40.810        40
40.820        13
40.830        53
40.840        27
40.850         0
40.860         0
40.870         0
40.880         0
40.890        13
40.900        13
40.910        40
40.920        13
40.930         0
40.940        67
40.950         0
40.960        40
40.970         0
40.980        27
40.990        27
41.000         0
41.010        40
41.020        13
41.030        13
41.040        13
41.050         0
41.060        40
41.070        13
41.080        40
41.090         0
41.100        53
41.110        53
41.120        40
41.130        27
41.140        13
41.150        40
41.160        27
41.170        40
41.180        27
41.190        13
41.200        13
41.210         0
41.220        67
41.230        53
41.240         0
41.250        40
41.260        40
41.270        40
41.280        13
41.290        27
41.300        13
41.310        13
41.320        53
41.330        13
41.340        13
41.350        27
41.360         0
41.370         0
41.380        40
41.390        27
41.400        13
41.410        40
41.420        13
41.430        27
41.440        13
41.450        13
41.460         0
41.470        40
41.480        13
41.490        53
41.500         0
41.510        40
41.520        13
41.530        13
41.540        13
41.550        40
41.560        40
41.570        40
41.580        27
41.590         0
41.600        13
41.610         0
41.620        67
41.630       107
41.640        27
41.650        13
41.660        13
41.670        93
41.680         0
41.690        53
41.700        53
41.710        93
41.720        80
41.730        53
41.740        67
41.750        27
41.760        53
41.770        67
41.780        40
41.790         0
41.800        27
41.810        27
41.820        40
41.830        27
41.840        13
41.850        67
41.860        27
41.870        13
41.880         0
41.890        53
41.900        40
41.910        13
41.920        27
41.930        27
41.940        27
41.950        13
41.960        13
41.970         0
41.980        27
41.990         0
42.000        40
42.010         0
42.020         0
42.030        13
42.040        53
42.050        13
42.060        27
42.070        40
42.080        53
42.090        53
42.100        13
42.110        13
42.120        40
42.130        40
42.140        53
42.150        53
42.160        13
42.170        27
42.180        13
42.190        40
42.200        13
42.210        40
42.220        13
42.230        13
42.240        13
42.250        27
42.260        27
42.270        13
42.280         0
42.290        27
42.300         0
42.310        13
42.320         0
42.330        13
42.340        67
42.350        53
42.360        27
42.370        27
42.380        40
42.390        13
42.400        40
42.410        67
42.420        40
42.430        13
42.440         0
42.450        27
42.460        27
42.470        27
42.480         0
42.490        13
42.500        13
42.510        27
42.520        53
42.530        40
42.540        13
42.550        13
42.560        53
42.570        13
42.580         0
42.590        13
42.600        27
42.610         0
42.620         0
42.630        53
42.640         0
42.650        13
42.660        13
42.670        13
42.680        13
42.690         0
42.700        53
42.710        27
42.720        27
42.730        67
42.740        53
42.750        13
42.760        40
42.770        53
42.780        27
42.790        13
42.800         0
42.810         0
42.820        13
42.830        40
42.840        27
42.850        27
42.860        13
42.870        40
42.880        13
42.890        13
42.900        53
42.910        13
42.920        13
42.930         0
42.940         0
42.950         0
42.960        13
42.970        13
42.980         0
42.990        27
43.000         0
43.010         0
43.020        13
43.030        13
43.040         0
43.050        13
43.060        13
43.070        13
43.080        13
43.090        13
43.100         0
43.110        40
43.120        27
43.130        13
43.140        27
43.150        53
43.160        13
43.170        40
43.180        40
43.190        27
43.200        27
43.210        13
43.220        40
43.230        40
43.240        27
43.250        13
43.260        27
43.270         0
43.280         0
43.290        53
43.300        27
43.310         0
43.320        27
43.330        13
43.340        13
43.350        13
43.360        93
43.370        40
43.380        53
43.390        93
43.400        40
43.410        53
43.420        13
43.430        27
43.440        13
43.450        27
43.460        13
43.470        13
43.480        40
43.490        80
43.500        80
43.510        13
43.520        27
43.530         0
43.540        27
43.550        27
43.560        53
43.570        13
43.580        27
43.590        27
43.600        13
43.610        13
43.620        27
43.630        13
43.640        13
43.650         0
43.660         0
43.670         0
43.680        53
43.690         0
43.700        53
43.710         0
43.720        27
43.730         0
43.740        40
43.750        13
43.760        27
43.770        13
43.780         0
43.790        27
43.800        13
43.810        53
43.820         0
43.830         0
43.840        13
43.850        13
43.860         0
43.870        40
43.880         0
43.890         0
43.900         0
43.910        13
43.920        13
43.930        13
43.940        27
43.950        27
43.960        13
43.970        27
43.980        53
43.990        13
44.000        27
44.010        27
44.020        27
44.030        27
44.040         0
44.050        40
44.060        27
44.070        27
44.080        53
44.090        13
44.100        13
44.110        40
44.120        27
44.130        53
44.140        40
44.150        13
44.160        27
44.170        13
44.180         0
44.190        13
44.200        13
44.210         0
44.220        13
44.230        13
44.240        13
44.250        27
44.260         0
44.270        27
44.280        27
44.290        13
44.300        27
44.310        40
44.320        40
44.330         0
44.340        67
44.350        13
44.360        27
44.370        27
44.380        27
44.390        27
44.400         0
44.410        13
44.420        13
44.430        27
44.440         0
44.450        27
44.460        13
44.470        40
44.480        40
44.490        27
44.500        13
44.510        13
44.520        40
44.530        13
44.540        27
44.550        13
44.560        13
44.570        27
44.580        53
44.590        53
44.600        40
44.610        53
44.620        27
44.630        40
44.640        13
44.650        13
44.660        40
44.670        13
44.680        27
44.690        27
44.700        13
44.710         0
44.720        13
44.730        53
44.740        40
44.750        53
44.760        27
44.770        53
44.780        27
44.790        80
44.800        53
44.810        40
44.820        27
44.830        27
44.840        67
44.850        80
44.860        67
44.870        13
44.880        13
44.890         0
44.900        40
44.910        40
44.920        13
44.930        67
44.940        13
44.950        13
44.960        27
44.970        27
44.980        40
44.990        27
45.000        13
45.010        67
45.020        40
45.030         0
45.040        27
45.050        13
45.060        27
45.070        27
45.080         0
45.090        53
45.100        27
45.110        40
45.120        40
45.130        40
45.140        27
45.150        13
45.160        53
45.170         0
45.180        27
45.190        13
45.200        13
45.210        27
45.220        53
45.230        40
45.240        27
45.250        27
45.260        13
45.270        13
45.280        40
45.290        13
45.300         0
45.310        13
45.320        13
45.330        27
45.340         0
45.350        13
45.360        27
45.370        40
45.380        27
45.390        40
45.400        13
45.410         0
45.420         0
45.430        13
45.440        13
45.450        40
45.460         0
45.470         0
45.480        53
45.490        40
45.500        27
45.510        13
45.520         0
45.530        27
45.540        40
45.550        27
45.560         0
45.570         0
45.580        40
45.590        13
45.600        27
45.610        13
45.620        27
45.630        40
45.640        27
45.650        13
45.660         0
45.670        27
45.680         0
45.690         0
45.700        40
45.710         0
45.720        13
45.730        13
45.740        27
45.750        27
45.760         0
45.770        27
45.780        40
45.790         0
45.800         0
45.810         0
45.820        13
45.830         0
45.840        13
45.850         0
45.860         0
45.870        40
45.880        67
45.890        27
45.900         0
45.910        53
45.920         0
45.930         0
45.940        13
45.950        27
45.960        53
45.970        40
45.980        40
45.990         0
46.000         0
46.010        27
46.020        27
46.030        80
46.040        53
46.050        13
46.060         0
46.070        40
46.080        67
46.090        27
46.100        13
46.110        40
46.120        27
46.130        53
46.140        40
46.150        27
46.160        27
46.170        13
46.180        27
46.190        13
46.200        27
46.210         0
46.220         0
46.230        13
46.240        53
46.250         0
46.260        53
46.270        27
46.280        13
46.290         0
46.300        13
46.310        27
46.320        13
46.330        27
46.340        13
46.350        27
46.360        13
46.370        27
46.380        13
46.390         0
46.400        13
46.410         0
46.420        40
46.430        40
46.440        13
46.450        13
46.460        13
46.470        13
46.480         0
46.490         0
46.500        40
46.510         0
46.520        53
46.530        27
46.540         0
46.550         0
46.560         0
46.570         0
46.580         0
46.590        13
46.600        27
46.610        40
46.620        13
46.630         0
46.640        27
46.650        13
46.660        13
46.670         0
46.680        13
46.690         0
46.700        27
46.710        27
46.720        27
46.730         0
46.740        27
46.750        40
46.760        13
46.770        13
46.780        13
46.790        13
46.800        13
46.810         0
46.820        13
46.830         0
46.840         0
46.850        13
46.860         0
46.870        27
46.880         0
46.890        27
46.900        13
46.910        13
46.920         0
46.930        27
46.940         0
46.950        13
46.960        53
46.970        27
46.980        13
46.990         0
47.000        27
47.010        13
47.020         0
47.030        40
47.040        13
47.050         0
47.060         0
47.070        13
47.080        27
47.090         0
47.100        13
47.110        27
47.120         0
47.130        13
47.140        27
47.150         0
47.160        27
47.170        27
47.180         0
47.190        13
47.200        13
47.210        13
47.220        13
47.230        40
47.240         0
47.250        13
47.260        13
47.270        13
47.280        40
47.290        13
47.300         0
47.310        13
47.320         0
47.330        13
47.340        40
47.350        13
47.360         0
47.370        13
47.380        40
47.390        27
47.400        13
47.410        13
47.420         0
47.430        13
47.440         0
47.450         0
47.460        13
47.470         0
47.480        13
47.490        40
47.500        13
47.510        13
47.520        13
47.530        13
47.540        27
47.550        27
47.560        13
47.570        13
47.580         0
47.590         0
47.600        13
47.610         0
47.620        13
47.630         0
47.640         0
47.650         0
47.660        13
47.670         0
47.680        27
47.690         0
47.700         0
47.710        13
47.720         0
47.730        40
47.740         0
47.750        27
47.760        27
47.770         0
47.780         0
47.790        40
47.800        13
47.810        13
47.820        13
47.830        13
47.840        13
47.850        13
47.860        13
47.870        40
47.880        27
47.890        13
47.900        13
47.910        13
47.920        13
47.930        13
47.940        27
47.950        13
47.960         0
47.970        27
47.980        13
47.990         0
48.000        40
48.010        27
48.020        13
48.030        13
48.040        27
48.050        13
48.060        13
48.070        13
48.080        40
48.090        27
48.100        13
48.110        13
48.120        27
48.130         0
48.140        13
48.150        13
48.160        13
48.170        13
48.180        27
48.190         0
48.200        13
48.210        40
48.220        13
48.230        13
48.240        13
48.250        27
48.260        27
48.270        27
48.280        27
48.290        40
48.300        27
48.310         0
48.320         0
48.330        13
48.340        27
48.350        40
48.360        27
48.370        40
48.380         0
48.390        13
48.400         0
48.410        40
48.420         0
48.430        27
48.440        27
48.450        27
48.460        13
48.470         0
48.480         0
48.490         0
48.500        27
48.510         0
48.520         0
48.530         0
48.540        13
48.550        13
48.560        13
48.570        27
48.580        27
48.590        40
48.600        13
48.610        53
48.620        40
48.630        13
48.640        40
48.650        13
48.660        27
48.670         0
48.680        27
48.690        13
48.700         0
48.710        13
48.720         0
48.730        13
48.740        13
48.750        13
48.760        27
48.770        27
48.780        27
48.790         0
48.800        27
48.810        13
48.820        27
48.830        13
48.840        40
48.850         0
48.860        40
48.870        13
48.880        40
48.890        53
48.900        13
48.910        40
48.920         0
48.930         0
48.940         0
48.950         0
48.960        13
48.970        13
48.980        13
48.990        67
49.000         0
49.010         0
49.020        40
49.030        13
49.040        27
49.050        13
49.060         0
49.070         0
49.080         0
49.090        13
49.100        13
49.110        13
49.120        27
49.130        13
49.140        13
49.150        27
49.160         0
49.170         0
49.180         0
49.190        40
49.200         0
49.210        13
49.220        53
49.230         0
49.240         0
49.250         0
49.260        27
49.270        13
49.280        13
49.290        27
49.300        13
49.310        13
49.320        13
49.330        40
49.340        13
49.350        13
49.360        13
49.370         0
49.380        27
49.390        40
49.400         0
49.410         0
49.420        13
49.430        13
49.440        27
49.450        13
49.460        27
49.470         0
49.480        27
49.490        13
49.500         0
49.510         0
49.520        27
49.530         0
49.540         0
49.550         0
49.560        27
49.570         0
49.580        27
49.590         0
49.600        27
49.610         0
49.620        27
49.630        13
49.640        13
49.650        13
49.660        27
49.670        27
49.680         0
49.690        40
49.700         0
49.710         0
49.720        13
49.730        27
49.740        13
49.750         0
49.760         0
49.770         0
49.780        53
49.790         0
49.800         0
49.810         0
49.820        13
49.830        27
49.840        13
49.850        40
49.860        13
49.870        67
49.880        27
49.890        27
49.900        40
49.910        40
49.920         0
49.930         0
49.940        27
49.950        53
49.960        13
49.970         0
49.980         0
49.990        13
50.000        13
50.010        13
50.020        13
50.030        13
50.040        27
50.050        13
50.060         0
50.070         0
50.080         0
50.090        13
50.100        40
50.110         0
50.120        13
50.130         0
50.140        27
50.150         0
50.160        13
50.170        13
50.180         0
50.190        27
50.200        27
50.210        27
50.220        53
50.230        13
50.240         0
50.250        13
50.260         0
50.270         0
50.280         0
50.290        13
50.300        27
50.310        13
50.320        13
50.330        13
50.340        27
50.350        27
50.360        53
50.370        53
50.380        27
50.390         0
50.400        13
50.410        13
50.420        27
50.430        13
50.440         0
50.450        13
50.460        13
50.470        27
50.480         0
50.490        27
50.500        13
50.510        13
50.520        13
50.530         0
50.540        13
50.550        13
50.560        13
50.570        40
50.580        13
50.590         0
50.600        27
50.610        27
50.620         0
50.630         0
50.640        13
50.650         0
50.660        13
50.670        27
50.680        27
50.690        27
50.700        27
50.710         0
50.720        53
50.730        27
50.740        27
50.750        13
50.760        40
50.770        13
50.780         0
50.790         0
50.800         0
50.810        13
50.820        13
50.830        13
50.840        13
50.850         0
50.860        40
50.870         0
50.880        27
50.890         0
50.900        13
50.910        13
50.920        27
50.930         0
50.940         0
50.950        13
50.960        67
50.970        27
50.980        13
50.990        27
51.000        13
51.010        13
51.020         0
51.030        13
51.040        27
51.050         0
51.060        27
51.070        27
51.080        13
51.090        13
51.100        27
51.110         0
51.120        27
51.130        40
51.140        27
51.150         0
51.160         0
51.170         0
51.180        13
51.190         0
51.200         0
51.210        27
51.220         0
51.230        13
51.240         0
51.250        40
51.260        40
51.270        13
51.280        13
51.290        27
51.300         0
51.310         0
51.320         0
51.330        27
51.340        27
51.350        13
51.360         0
51.370        27
51.380        27
51.390        13
51.400        13
51.410        13
51.420         0
51.430        13
51.440         0
51.450        13
51.460        13
51.470        53
51.480        13
51.490         0
51.500         0
51.510        13
51.520        13
51.530         0
51.540        40
51.550        13
51.560        40
51.570         0
51.580        40
51.590        27
51.600        53
51.610        27
51.620        13
51.630        40
51.640        27
51.650        53
51.660        27
51.670        13
51.680        13
51.690         0
51.700        27
51.710        27
51.720        13
51.730         0
51.740        40
51.750        27
51.760        27
51.770        40
51.780        13
51.790        27
51.800        13
51.810         0
51.820        27
51.830         0
51.840        40
51.850        40
51.860        13
51.870        27
51.880        53
51.890        40
51.900        13
51.910        13
51.920        27
51.930        27
51.940        53
51.950        13
51.960        27
51.970         0
51.980        53
51.990        53
52.000        67
52.010        13
52.020        40
52.030        27
52.040        13
52.050        13
52.060        27
52.070        13
52.080        27
52.090        27
52.100        13
52.110        27
52.120        27
52.130         0
52.140        27
52.150        27
52.160        27
52.170         0
52.180        27
52.190        53
52.200         0
52.210         0
52.220         0
52.230         0
52.240        13
52.250        40
52.260        40
52.270        13
52.280        27
52.290        67
52.300        27
52.310        27
52.320         0
52.330        13
52.340         0
52.350        27
52.360        40
52.370        13
52.380         0
52.390        13
52.400         0
52.410        53
52.420        27
52.430        40
52.440         0
52.450        27
52.460        27
52.470        67
52.480        27
52.490        13
52.500        40
52.510        13
52.520        27
52.530         0
52.540        27
52.550        27
52.560        13
52.570        27
52.580        53
52.590        40
52.600        27
52.610        13
52.620        40
52.630        53
52.640        13
52.650        53
52.660        13
52.670         0
52.680        53
52.690        27
52.700        27
52.710         0
52.720         0
52.730         0
52.740        13
52.750        40
52.760        13
52.770         0
52.780        27
52.790        40
52.800         0
52.810        27
52.820         0
52.830         0
52.840        13
52.850         0
52.860         0
52.870         0
52.880         0
52.890        13
52.900        13
52.910        27
52.920        13
52.930        13
52.940         0
52.950         0
52.960        27
52.970         0
52.980        27
52.990         0
53.000         0
53.010        13
53.020        40
53.030         0
53.040         0
53.050        13
53.060         0
53.070        67
53.080        27
53.090         0
53.100        13
53.110         0
53.120        13
53.130        40
53.140         0
53.150        13
53.160         0
53.170        13
53.180         0
53.190        13
53.200        27
53.210         0
53.220        13
53.230         0
53.240        13
53.250        13
53.260        13
53.270         0
53.280        13
53.290         0
53.300        13
53.310        13
53.320         0
53.330        27
53.340        13
53.350        13
53.360         0
53.370         0
53.380        53
53.390        13
53.400        13
53.410        13
53.420         0
53.430        40
53.440        13
53.450         0
53.460        40
53.470        40
53.480        27
53.490        13
53.500        27
53.510        27
53.520        13
53.530        13
53.540        13
53.550         0
53.560        27
53.570        13
53.580         0
53.590        40
53.600        27
53.610        13
53.620        27
53.630        13
53.640        53
53.650        13
53.660        27
53.670         0
53.680        13
53.690        13
53.700        27
53.710        27
53.720        13
53.730        13
53.740         0
53.750        13
53.760        13
53.770         0
53.780        27
53.790        27
53.800        13
53.810        13
53.820        13
53.830        40
53.840        13
53.850        13
53.860         0
53.870        13
53.880        27
53.890         0
53.900        13
53.910        13
53.920        13
53.930        27
53.940         0
53.950         0
53.960         0
53.970        13
53.980        27
53.990         0
54.000        27
54.010        40
54.020        40
54.030        13
54.040        13
54.050        13
54.060         0
54.070        53
54.080        13
54.090        13
54.100        13
54.110        67
54.120        53
54.130        13
54.140        13
54.150        13
54.160        13
54.170        27
54.180        13
54.190        27
54.200        53
54.210        13
54.220        27
54.230        13
54.240         0
54.250        27
54.260        13
54.270        27
54.280        40
54.290        13
54.300        40
54.310        13
54.320        27
54.330        13
54.340        13
54.350         0
54.360        53
54.370         0
54.380         0
54.390        27
54.400        40
54.410        13
54.420        53
54.430        27
54.440        13
54.450         0
54.460        13
54.470         0
54.480        27
54.490        27
54.500         0
54.510        13
54.520        13
54.530        40
54.540        27
54.550        13
54.560        40
54.570        27
54.580         0
54.590         0
54.600        27
54.610         0
54.620        13
54.630         0
54.640        13
54.650        27
54.660         0
54.670        13
54.680         0
54.690        13
54.700         0
54.710        40
54.720        27
54.730        40
54.740        13
54.750        13
54.760        13
54.770         0
54.780        13
54.790        40
54.800        13
54.810        13
54.820        13
54.830        13
54.840        53
54.850        13
54.860         0
54.870         0
54.880        27
54.890         0
54.900        13
54.910        27
54.920        13
54.930         0
54.940        40
54.950        13
54.960        27
54.970        13
54.980        27
54.990        27
55.000         0
55.010         0
55.020         0
55.030        27
55.040        13
55.050        53
55.060        40
55.070        13
55.080        27
55.090         0
55.100        27
55.110        13
55.120        13
55.130         0
55.140        27
55.150        13
55.160        67
55.170        27
55.180        27
55.190        13
55.200        40
55.210        13
55.220        53
55.230        13
55.240        53
55.250        40
55.260         0
55.270        13
55.280        13
55.290        67
55.300        40
55.310        27
55.320        40
55.330        53
55.340        27
55.350        27
55.360        13
55.370        40
55.380        93
55.390        93
55.400        40
55.410        53
55.420        53
55.430        40
55.440        93
55.450        80
55.460       120
55.470       133
55.480        93
55.490        67
55.500       107
55.510       160
55.520       173
55.530       293
55.540       160
55.550       253
55.560       253
55.570       347
55.580       320
55.590       320
55.600       413
55.610       400
55.620       426
55.630       546
55.640       506
55.650       586
55.660       626
55.670       466
55.680       573
55.690       426
55.700       426
55.710       666
55.720       480
55.730       506
55.740       506
55.750       400
55.760       533
55.770       480
55.780       293
55.790       426
55.800       333
55.810       413
55.820       373
55.830       373
55.840       280
55.850       187
55.860       240
55.870       307
55.880       213
55.890       160
55.900       173
55.910       187
55.920       107
55.930        67
55.940        93
55.950        67
55.960       120
55.970       133
55.980        27
55.990        80
56.000        40
56.010       107
56.020        40
56.030        67
56.040        80
56.050        40
56.060        27
56.070        40
56.080        40
56.090        40
56.100        40
56.110        40
56.120        67
56.130        13
56.140        27
56.150        27
56.160        40
56.170        40
56.180        27
56.190        40
56.200        27
56.210        13
56.220         0
56.230        40
56.240        13
56.250        13
56.260         0
56.270        13
56.280        27
56.290         0
56.300        13
56.310        13
56.320        13
56.330        27
56.340        27
56.350        13
56.360        27
56.370        27
56.380        67
56.390        13
56.400        13
56.410        40
56.420        13
56.430        13
56.440        13
56.450        13
56.460        27
56.470        27
56.480        40
56.490        13
56.500        27
56.510        27
56.520         0
56.530         0
56.540         0
56.550        13
56.560        27
56.570        27
56.580        40
56.590         0
56.600        27
56.610        13
56.620        13
56.630         0
56.640         0
56.650        13
56.660        13
56.670        13
56.680         0
56.690        13
56.700        27
56.710        27
56.720        27
56.730        53
56.740        13
56.750         0
56.760        13
56.770        13
56.780        13
56.790         0
56.800         0
56.810        13
56.820        27
56.830        13
56.840        13
56.850         0
56.860         0
56.870        13
56.880        13
56.890        13
56.900        13
56.910        27
56.920        40
56.930        13
56.940        13
56.950        40
56.960        13
56.970        13
56.980         0
56.990        13
57.000        80
57.010        13
57.020         0
57.030        13
57.040         0
57.050        27
57.060        40
57.070        13
57.080        40
57.090        13
57.100        13
57.110        13
57.120        13
57.130        27
57.140        27
57.150        13
57.160        53
57.170         0
57.180        27
57.190        13
57.200        13
57.210        13
57.220        40
57.230        53
57.240        67
57.250        40
57.260         0
57.270        13
57.280        27
57.290        80
57.300        13
57.310        27
57.320        27
57.330        53
57.340        13
57.350        13
57.360         0
57.370        53
57.380         0
57.390         0
57.400        67
57.410        13
57.420         0
57.430         0
57.440         0
57.450        13
57.460        13
57.470         0
57.480         0
57.490        27
57.500        27
57.510         0
57.520         0
57.530        40
57.540        27
57.550        13
57.560        40
57.570        13
57.580        27
57.590        13
57.600        13
57.610         0
57.620        27
57.630         0
57.640        40
57.650        40
57.660        13
57.670        40
57.680        13
57.690        40
57.700        27
57.710        27
57.720        27
57.730        27
57.740        27
57.750        53
57.760         0
57.770         0
57.780         0
57.790        27
57.800        40
57.810         0
57.820        13
57.830        13
57.840        13
57.850        27
57.860        13
57.870        27
57.880        13
57.890        13
57.900        27
57.910        13
57.920        40
57.930        27
57.940        13
57.950         0
57.960        13
57.970        27
57.980        27
57.990         0
58.000        13
58.010        40
58.020        40
58.030        27
58.040        27
58.050        13
58.060         0
58.070        13
58.080         0
58.090         0
58.100        27
58.110         0
58.120        53
58.130         0
58.140        27
58.150        27
58.160        13
58.170         0
58.180        13
58.190        27
58.200        13
58.210        13
58.220        40
58.230        40
58.240        13
58.250        13
58.260        27
58.270        13
58.280        13
58.290        27
58.300        40
58.310        27
58.320        27
58.330         0
58.340        13
58.350         0
58.360         0
58.370         0
58.380        27
58.390        27
58.400         0
58.410         0
58.420        27
58.430        13
58.440        53
58.450         0
58.460        53
58.470        40
58.480        27
58.490        27
58.500        27
58.510         0
58.520        40
58.530        27
58.540        27
58.550        40
58.560        27
58.570         0
58.580        13
58.590        13
58.600        13
58.610        40
58.620        27
58.630        13
58.640         0
58.650        13
58.660        27
58.670        80
58.680        13
58.690         0
58.700        27
58.710        13
58.720        27
58.730        13
58.740         0
58.750         0
58.760        13
58.770        40
58.780        13
58.790        27
58.800        27
58.810        27
58.820        13
58.830         0
58.840         0
58.850         0
58.860         0
58.870        40
58.880        27
58.890        40
58.900        13
58.910        13
58.920        13
58.930         0
58.940        13
58.950        13
58.960        13
58.970        13
58.980        13
58.990         0
59.000        40
59.010         0
59.020         0
59.030        27
59.040        13
59.050        13
59.060        13
59.070        13
59.080        27
59.090        13
59.100        13
59.110         0
59.120         0
59.130        27
59.140        27
59.150         0
59.160        27
59.170        13
59.180        13
59.190        40
59.200        13
59.210        13
59.220        40
59.230        13
59.240        27
59.250         0
59.260        13
59.270         0
59.280        13
59.290        13
59.300         0
59.310         0
59.320        13
59.330        27
59.340        27
59.350        40
59.360         0
59.370        13
59.380        13
59.390        13
59.400         0
59.410         0
59.420        27
59.430        13
59.440         0
59.450        27
59.460        13
59.470        13
59.480        13
59.490         0
59.500        67
59.510        40
59.520         0
59.530        53
59.540         0
59.550         0
59.560        13
59.570        13
59.580         0
59.590        13
59.600        27
59.610        27
59.620        40
59.630        27
59.640         0
59.650        13
59.660         0
59.670        13
59.680        27
59.690         0
59.700        13
59.710         0
59.720        13
59.730         0
59.740        27
59.750        13
59.760        27
59.770         0
59.780         0
59.790        13
59.800        27
59.810         0
59.820        27
59.830        13
59.840        27
59.850        13
59.860         0
59.870         0
59.880        53
59.890        13
59.900         0
59.910         0
59.920        13
59.930        13
59.940        13
59.950        13
59.960         0
59.970         0
59.980         0
59.990         0
60.000         0
