20.000        20
20.020        20
20.040        23
20.060        60
20.080        63
20.100        50
20.120        67
20.140        43
20.160        23
20.180        47
20.200        63
20.220        50
20.240        70
20.260        60
20.280        73
20.300        43
20.320        80
20.340        37
20.360        50
20.380        33
20.400        50
20.420        40
20.440        33
20.460        57
20.480        70
20.500        53
20.520        43
20.540        37
20.560        40
20.580        17
20.600        57
20.620        53
20.640        47
20.660        53
20.680        47
20.700        57
20.720        67
20.740        50
20.760        53
20.780        67
20.800        57
20.820        63
20.840        73
20.860        67
20.880        47
20.900        50
20.920        50
20.940        57
20.960        33
20.980        57
21.000        43
21.020        80
21.040        70
21.060        63
21.080        67
21.100        50
21.120        63
21.140        83
21.160        60
21.180        67
21.200        60
21.220       107
21.240       107
21.260       107
21.280        93
21.300        93
21.320       130
21.340       143
21.360       160
21.380       120
21.400       127
21.420       133
21.440       153
21.460       150
21.480       140
21.500        87
21.520       117
21.540       103
21.560       110
21.580       107
21.600        70
21.620        90
21.640        63
21.660        80
21.680        30
21.700        63
21.720        77
21.740        97
21.760        50
21.780        77
21.800        57
21.820        63
21.840        53
21.860        40
21.880        53
21.900        40
21.920        47
21.940        63
21.960        53
21.980        47
22.000        43
22.020        60
22.040        53
22.060        57
22.080        70
22.100        73
22.120        43
22.140        70
22.160        40
22.180        73
22.200        63
22.220        50
22.240        73
22.260        43
22.280        47
22.300        57
22.320        57
22.340        67
22.360        43
22.380        53
22.400        33
22.420        43
22.440        50
22.460        50
22.480        63
22.500        57
22.520        40
22.540        33
22.560        40
22.580        43
22.600        47
22.620        23
22.640        63
22.660        53
22.680        43
22.700        57
22.720        43
22.740        43
22.760        30
22.780        47
22.800        27
22.820        73
22.840        30
22.860        37
22.880        50
22.900        37
22.920        40
22.940        27
22.960        10
22.980        47
23.000        50
23.020        53
23.040        47
23.060        40
23.080        33
23.100        40
23.120        57
23.140        47
23.160        47
23.180        27
23.200        47
23.220        17
23.240        33
23.260        33
23.280        37
23.300        33
23.320        43
23.340        50
23.360        47
23.380        40
23.400        47
23.420        30
23.440        37
23.460        17
23.480        50
23.500        33
23.520        40
23.540        47
23.560        30
23.580        27
23.600        17
23.620        33
23.640        30
23.660        50
23.680        37
23.700        33
23.720        33
23.740        10
23.760        57
23.780        57
23.800        37
23.820        40
23.840        27
23.860        53
23.880        37
23.900        27
23.920        47
23.940        40
23.960        27
23.980        33
24.000        40
24.020        67
24.040        47
24.060        50
24.080        50
24.100        57
24.120        17
24.140        27
24.160        43
24.180        27
24.200        43
24.220        50
24.240        20
24.260        43
24.280        37
24.300        47
24.320        57
24.340        23
24.360        23
24.380        27
24.400        43
24.420        57
24.440        50
24.460        23
24.480        40
24.500        30
24.520        40
24.540        30
24.560        27
24.580        43
24.600        47
24.620        37
24.640        33
24.660        13
24.680        23
24.700        40
24.720        30
24.740        47
24.760        33
24.780        37
24.800        30
24.820        23
24.840        23
24.860        27
24.880        40
24.900        43
24.920        50
24.940        40
24.960        53
24.980        33
25.000        30
25.020        67
25.040        33
25.060        33
25.080        47
25.100        50
25.120        43
25.140        50
25.160        47
25.180        33
25.200        30
25.220        23
25.240        37
25.260        67
25.280        30
25.300        30
25.320        50
25.340        50
25.360        27
25.380        43
25.400        40
25.420        70
25.440        40
25.460        47
25.480        50
25.500        23
25.520        30
25.540        37
25.560        43
25.580        30
25.600        57
25.620        23
25.640        27
25.660        57
25.680        47
25.700        37
25.720        37
25.740        33
25.760        57
25.780        30
25.800        33
25.820        47
25.840        37
25.860        37
25.880        53
25.900        47
25.920        23
25.940        27
25.960        33
25.980        47
26.000        53
26.020        30
26.040        37
26.060        30
26.080        37
26.100        33
26.120        43
26.140        20
26.160        47
26.180        37
26.200        47
26.220        57
26.240        33
26.260        37
26.280        33
26.300        47
26.320        37
26.340        37
26.360        47
26.380        33
26.400        23
26.420        50
26.440        47
26.460        50
26.480        27
26.500        33
26.520        20
26.540        30
26.560        47
26.580        43
26.600        40
26.620        47
26.640        27
26.660        27
26.680        37
26.700        27
26.720        47
26.740        37
26.760        37
26.780        40
26.800        23
26.820        30
26.840        47
26.860        33
26.880        17
26.900        57
26.920        43
26.940        40
26.960        43
26.980        37
27.000        67
27.020        47
27.040        30
27.060        23
27.080        53
27.100        57
27.120        43
27.140        33
27.160        40
27.180        60
27.200        63
27.220        57
27.240        47
27.260        53
27.280        43
27.300        53
27.320        53
27.340        43
27.360        87
27.380        57
27.400        67
27.420        83
27.440        67
27.460        50
27.480        77
27.500        67
27.520        43
27.540        53
27.560        53
27.580        43
27.600        80
27.620        50
27.640        50
27.660        30
27.680        60
27.700        33
27.720        50
27.740        40
27.760        40
27.780        37
27.800        40
27.820        43
27.840        53
27.860        63
27.880        57
27.900        37
27.920        47
27.940        53
27.960        50
27.980        60
28.000        37
28.020        30
28.040        57
28.060        57
28.080        23
28.100        43
28.120        47
28.140        43
28.160        63
28.180        77
28.200        37
28.220        40
28.240        43
28.260        33
28.280        50
28.300        80
28.320        30
28.340        53
28.360        37
28.380        37
28.400        60
28.420        43
28.440        57
28.460        60
28.480        60
28.500        47
28.520        53
28.540        43
28.560        37
28.580        67
28.600        40
28.620        43
28.640        43
28.660        77
28.680        83
28.700        63
28.720        53
28.740        47
28.760        37
28.780        43
28.800        47
28.820        30
28.840        77
28.860        57
28.880        47
28.900        60
28.920        63
28.940        40
28.960        50
28.980        77
29.000        57
29.020        47
29.040        37
29.060        40
29.080        67
29.100        70
29.120        73
29.140        83
29.160        73
29.180        77
29.200        63
29.220        73
29.240       103
29.260        93
29.280        77
29.300        60
29.320        80
29.340        60
29.360        90
29.380       107
29.400       113
29.420        67
29.440        93
29.460        93
29.480        93
29.500       113
29.520       133
29.540       117
29.560       173
29.580       123
29.600       167
29.620       143
29.640       153
29.660       137
29.680       157
29.700       180
29.720       167
29.740       233
29.760       133
29.780       173
29.800       157
29.820       233
29.840       210
29.860       300
29.880       237
29.900       300
29.920       357
29.940       413
29.960       407
29.980       367
30.000       526
30.020       476
30.040       566
30.060       686
30.080       730
30.100       866
30.120       953
30.140      1073
30.160      1076
30.180      1309
30.200      1556
30.220      1983
30.240      2129
30.260      2716
30.280      2809
30.300      3339
30.320      3589
30.340      4002
30.360      4492
30.380      5148
30.400      5128
30.420      5421
30.440      5511
30.460      5651
30.480      5464
30.500      5631
30.520      5228
30.540      4828
30.560      4225
30.580      3845
30.600      3245
30.620      3062
30.640      2306
30.660      2182
30.680      1976
30.700      1783
30.720      1543
30.740      1349
30.760      1220
30.780      1166
30.800      1093
30.820      1006
30.840       956
30.860       866
30.880       810
30.900       736
30.920       696
30.940       686
30.960       670
30.980       626
31.000       576
31.020       513
31.040       500
31.060       466
31.080       520
31.100       493
31.120       510
31.140       433
31.160       377
31.180       420
31.200       370
31.220       417
31.240       400
31.260       350
31.280       290
31.300       333
31.320       297
31.340       297
31.360       280
31.380       300
31.400       337
31.420       310
31.440       283
31.460       280
31.480       167
31.500       243
31.520       280
31.540       220
31.560       230
31.580       220
31.600       190
31.620       210
31.640       173
31.660       197
31.680       217
31.700       180
31.720       137
31.740       153
31.760       213
31.780       153
31.800       203
31.820       170
31.840       180
31.860       183
31.880       173
31.900        97
31.920       117
31.940       103
31.960       127
31.980       120
32.000       120
32.020       133
32.040       160
32.060       107
32.080       147
32.100        93
32.120       147
32.140       130
32.160       130
32.180       117
32.200       117
32.220       123
32.240       103
32.260       140
32.280        77
32.300       117
32.320       113
32.340        87
32.360        80
32.380        97
32.400       103
32.420       107
32.440        70
32.460        87
32.480        87
32.500       103
32.520        93
32.540        97
32.560       107
32.580        60
32.600        87
32.620        80
32.640        90
32.660        70
32.680       103
32.700        63
32.720        73
32.740        43
32.760        70
32.780        93
32.800        97
32.820       110
32.840        93
32.860        53
32.880        77
32.900        93
32.920        63
32.940        70
32.960        43
32.980        63
33.000        50
33.020        83
33.040        53
33.060        70
33.080        50
33.100        63
33.120        67
33.140        30
33.160        53
33.180        63
33.200        53
33.220        53
33.240        60
33.260        43
33.280        87
33.300        70
33.320        77
33.340        80
33.360        63
33.380        47
33.400        83
33.420        60
33.440        43
33.460        47
33.480        67
33.500        53
33.520        50
33.540        37
33.560        57
33.580        83
33.600        60
33.620        67
33.640        57
33.660        33
33.680        70
33.700        67
33.720        63
33.740        50
33.760        57
33.780        60
33.800        70
33.820        27
33.840        70
33.860        90
33.880        43
33.900        53
33.920        43
33.940        60
33.960        63
33.980        53
34.000        63
34.020        40
34.040        53
34.060        40
34.080        37
34.100        60
34.120        57
34.140        50
34.160        43
34.180        33
34.200        53
34.220        20
34.240        67
34.260        63
34.280        23
34.300        50
34.320        63
34.340        77
34.360        57
34.380        37
34.400        40
34.420        73
34.440        50
34.460        43
34.480        57
34.500        40
34.520        50
34.540        30
34.560        20
34.580        50
34.600        43
34.620        47
34.640        37
34.660        40
34.680        50
34.700        43
34.720        53
34.740        30
34.760        20
34.780        40
34.800        53
34.820        37
34.840        60
34.860        50
34.880        27
34.900        43
34.920        23
34.940        57
34.960        50
34.980        23
35.000        43
35.020        57
35.040        43
35.060        40
35.080        30
35.100        37
35.120        30
35.140        73
35.160        23
35.180        50
35.200        43
35.220        53
35.240        37
35.260        30
35.280        43
35.300        50
35.320        33
35.340        53
35.360        30
35.380        40
35.400        50
35.420        30
35.440        37
35.460        37
35.480        57
35.500        37
35.520        23
35.540        20
35.560        43
35.580        23
35.600        50
35.620        50
35.640        50
35.660        37
35.680        50
35.700        27
35.720        53
35.740        37
35.760        40
35.780        57
35.800        20
35.820        40
35.840        23
35.860        50
35.880        30
35.900        30
35.920        50
35.940        33
35.960        40
35.980        40
36.000        70
36.020        33
36.040        27
36.060        27
36.080        33
36.100        37
36.120        20
36.140        33
36.160        40
36.180        33
36.200        17
36.220        37
36.240        23
36.260        27
36.280        33
36.300        37
36.320        37
36.340        47
36.360        30
36.380        33
36.400        13
36.420        33
36.440        53
36.460        40
36.480        27
36.500        40
36.520        33
36.540        37
36.560        37
36.580        63
36.600        40
36.620        37
36.640        53
36.660        37
36.680        43
36.700        50
36.720        47
36.740        27
36.760        30
36.780        27
36.800        33
36.820        37
36.840        57
36.860        20
36.880        43
36.900        30
36.920         7
36.940        23
36.960        37
36.980        37
37.000        37
37.020        40
37.040        77
37.060        23
37.080        37
37.100        53
37.120        37
37.140        43
37.160        33
37.180        27
37.200        30
37.220        53
37.240        37
37.260        37
37.280        40
37.300        70
37.320        77
37.340        37
37.360        40
37.380        50
37.400        60
37.420        50
37.440        63
37.460        87
37.480       103
37.500       143
37.520        97
37.540       103
37.560       173
37.580       160
37.600       283
37.620       237
37.640       230
37.660       217
37.680       297
37.700       270
37.720       263
37.740       203
37.760       227
37.780       167
37.800       160
37.820       153
37.840       133
37.860        97
37.880       123
37.900       120
37.920        80
37.940        80
37.960        53
37.980        73
38.000        67
38.020        40
38.040        40
38.060        40
38.080        40
38.100        37
38.120        50
38.140        40
38.160        50
38.180        37
38.200        27
38.220        30
38.240        43
38.260        27
38.280        47
38.300        47
38.320        43
38.340        47
38.360        33
38.380        27
38.400        37
38.420        40
38.440        40
38.460        47
38.480        23
38.500        30
38.520        33
38.540        30
38.560        30
38.580        23
38.600        33
38.620        30
38.640        30
38.660        20
38.680        20
38.700        30
38.720        27
38.740        30
38.760        23
38.780        33
38.800        27
38.820        30
38.840        40
38.860        20
38.880        33
38.900        30
38.920        47
38.940        47
38.960        33
38.980        53
39.000        27
39.020        27
39.040        37
39.060        43
39.080        37
39.100        33
39.120        43
39.140        30
39.160        43
39.180        23
39.200        43
39.220        37
39.240        47
39.260        47
39.280        30
39.300        23
39.320        40
39.340        13
39.360        23
39.380        30
39.400        40
39.420        27
39.440        17
39.460        30
39.480        20
39.500        33
39.520        40
39.540        43
39.560        33
39.580        30
39.600        27
39.620        27
39.640        37
39.660        20
39.680        23
39.700        30
39.720        27
39.740        23
39.760        23
39.780        27
39.800        40
39.820        30
39.840        43
39.860        20
39.880        33
39.900        20
39.920        27
39.940        37
39.960        27
39.980        13
40.000        30
40.020        17
40.040        40
40.060        23
40.080        10
40.100        17
40.120        17
40.140        30
40.160        43
40.180        40
40.200        17
40.220        20
40.240        20
40.260         7
40.280        33
40.300        23
40.320        20
40.340        27
40.360        23
40.380        33
40.400        23
40.420        27
40.440        47
40.460        10
40.480        30
40.500        33
40.520        33
40.540        20
40.560        53
40.580        17
40.600        40
40.620        23
40.640        17
40.660        33
40.680        47
40.700        20
40.720        50
40.740        33
40.760        30
40.780        23
40.800        23
40.820        13
40.840        23
40.860        33
40.880        17
40.900        37
40.920        20
40.940        20
40.960        40
40.980        23
41.000        30
41.020        27
41.040        27
41.060        23
41.080        23
41.100        33
41.120        23
41.140        43
41.160        23
41.180        40
41.200        33
41.220        33
41.240        13
41.260        30
41.280        37
41.300        27
41.320        27
41.340        33
41.360        30
41.380        33
41.400        10
41.420        50
41.440        30
41.460        30
41.480        37
41.500        13
41.520        20
41.540        40
41.560        37
41.580        37
41.600        60
41.620        53
41.640        43
41.660        43
41.680        83
41.700        97
41.720       137
41.740       100
41.760        63
41.780        67
41.800        53
41.820        40
41.840        60
41.860        43
41.880        53
41.900        43
41.920        53
41.940        23
41.960        33
41.980        37
42.000        40
42.020        23
42.040        40
42.060        23
42.080        23
42.100        50
42.120        40
42.140        43
42.160        37
42.180        37
42.200        30
42.220        37
42.240        30
42.260        47
42.280        53
42.300        37
42.320        40
42.340        20
42.360        57
42.380        40
42.400        43
42.420        37
42.440        67
42.460        47
42.480        30
42.500        53
42.520        50
42.540        70
42.560        40
42.580        47
42.600        73
42.620        47
42.640        70
42.660        77
42.680        57
42.700        47
42.720        50
42.740        83
42.760        83
42.780        60
42.800        93
42.820        93
42.840        73
42.860        53
42.880       110
42.900        93
42.920       117
42.940        97
42.960        97
42.980       127
43.000       107
43.020       120
43.040       140
43.060       130
43.080       173
43.100       193
43.120       143
43.140       173
43.160       227
43.180       193
43.200       173
43.220       277
43.240       290
43.260       307
43.280       280
43.300       333
43.320       370
43.340       417
43.360       506
43.380       486
43.400       433
43.420       446
43.440       480
43.460       550
43.480       566
43.500       556
43.520       523
43.540       526
43.560       540
43.580       573
43.600       553
43.620       646
43.640       670
43.660       630
43.680       550
43.700       600
43.720       606
43.740       490
43.760       490
43.780       533
43.800       460
43.820       440
43.840       463
43.860       410
43.880       363
43.900       303
43.920       300
43.940       307
43.960       307
43.980       297
44.000       307
44.020       313
44.040       213
44.060       230
44.080       250
44.100       203
44.120       207
44.140       170
44.160       207
44.180       173
44.200       230
44.220       150
44.240       153
44.260       127
44.280       127
44.300       127
44.320       103
44.340        93
44.360       163
44.380        97
44.400       133
44.420       133
44.440        67
44.460        97
44.480       103
44.500        77
44.520       100
44.540        97
44.560        43
44.580        93
44.600        80
44.620        83
44.640        77
44.660        73
44.680        87
44.700        80
44.720        60
44.740        77
44.760        77
44.780        80
44.800        77
44.820        43
44.840        63
44.860        40
44.880        87
44.900        90
44.920        40
44.940        43
44.960        80
44.980        40
45.000        57
45.020        57
45.040        53
45.060        53
45.080        60
45.100        43
45.120        43
45.140        33
45.160        50
45.180        43
45.200        43
45.220        30
45.240        53
45.260        57
45.280        40
45.300        33
45.320        43
45.340        43
45.360        37
45.380        47
45.400        37
45.420        47
45.440        43
45.460        33
45.480        47
45.500        43
45.520        23
45.540        57
45.560        53
45.580        60
45.600        63
45.620        17
45.640        47
45.660        37
45.680        17
45.700        40
45.720        37
45.740        27
45.760        27
45.780        30
45.800        30
45.820        27
45.840        20
45.860        33
45.880        30
45.900        23
45.920        17
45.940        47
45.960        40
45.980        20
46.000        30
46.020        40
46.040        20
46.060        57
46.080        43
46.100        27
46.120        33
46.140        27
46.160        33
46.180        40
46.200        27
46.220        37
46.240        23
46.260        37
46.280        27
46.300        40
46.320        17
46.340        37
46.360        30
46.380        17
46.400        20
46.420        40
46.440        10
46.460        33
46.480        37
46.500        47
46.520        30
46.540        27
46.560        20
46.580        37
46.600        37
46.620        13
46.640        20
46.660        33
46.680        20
46.700        37
46.720        27
46.740        10
46.760        10
46.780        27
46.800        10
46.820        20
46.840        33
46.860        23
46.880        20
46.900        30
46.920        23
46.940        30
46.960        27
46.980        27
47.000        27
47.020        23
47.040        17
47.060        20
47.080        17
47.100        27
47.120        30
47.140        13
47.160        43
47.180        13
47.200        13
47.220        50
47.240        30
47.260        20
47.280        13
47.300        23
47.320        40
47.340        27
47.360        27
47.380        27
47.400        17
47.420        20
47.440        20
47.460        30
47.480        27
47.500        33
47.520        37
47.540        27
47.560        13
47.580        27
47.600        23
47.620        23
47.640        27
47.660        30
47.680        27
47.700        10
47.720        17
47.740        27
47.760        37
47.780        17
47.800        40
47.820        33
47.840        33
47.860         0
47.880        10
47.900        27
47.920         7
47.940        20
47.960        20
47.980        33
48.000        33
48.020        10
48.040        30
48.060        30
48.080        27
48.100        17
48.120        30
48.140        37
48.160        33
48.180        10
48.200        13
48.220        17
48.240        20
48.260        27
48.280        23
48.300        13
48.320        27
48.340        17
48.360        17
48.380        17
48.400        23
48.420        30
48.440        27
48.460        17
48.480        20
48.500        10
48.520        43
48.540        30
48.560        17
48.580        10
48.600        10
48.620        20
48.640        10
48.660        30
48.680        47
48.700        13
48.720        23
48.740        20
48.760        20
48.780        27
48.800        37
48.820         7
48.840        23
48.860        13
48.880        13
48.900        27
48.920        20
48.940        30
48.960        20
48.980        20
49.000        20
49.020        37
49.040        23
49.060        13
49.080        27
49.100        23
49.120        23
49.140        10
49.160        37
49.180        10
49.200        20
49.220        23
49.240        23
49.260        13
49.280        30
49.300        33
49.320        27
49.340        20
49.360        33
49.380        20
49.400        23
49.420        27
49.440        23
49.460        30
49.480        17
49.500        23
49.520        17
49.540        13
49.560        23
49.580        17
49.600        27
49.620        13
49.640        23
49.660         7
49.680        23
49.700        23
49.720        13
49.740        23
49.760        17
49.780        13
49.800        20
49.820        23
49.840        20
49.860        40
49.880        27
49.900        40
49.920        27
49.940        17
49.960        37
49.980        20
50.000        10
50.020        17
50.040        10
50.060        20
50.080        27
50.100        13
50.120        17
50.140        17
50.160        23
50.180        23
50.200        20
50.220        10
50.240        27
50.260        13
50.280        30
50.300        20
50.320        17
50.340        13
50.360        17
50.380        20
50.400        20
50.420        10
50.440        20
50.460        17
50.480        37
50.500        10
50.520        27
50.540        20
50.560         7
50.580        23
50.600        13
50.620        13
50.640         7
50.660        20
50.680        17
50.700        20
50.720        13
50.740        27
50.760        27
50.780         7
50.800        20
50.820        17
50.840        23
50.860        30
50.880        23
50.900        13
50.920        23
50.940        23
50.960        20
50.980        17
51.000        17
51.020        30
51.040        27
51.060        13
51.080        17
51.100        27
51.120        17
51.140        30
51.160        13
51.180        27
51.200        20
51.220        17
51.240        20
51.260        17
51.280         7
51.300         3
51.320        20
51.340        20
51.360        13
51.380        13
51.400        30
51.420         7
51.440        27
51.460        40
51.480        10
51.500        23
51.520        23
51.540        17
51.560        23
51.580        10
51.600         3
51.620        10
51.640        23
51.660        27
51.680        20
51.700        17
51.720        13
51.740        17
51.760        27
51.780        17
51.800        17
51.820         7
51.840        13
51.860        23
51.880        17
51.900        23
51.920        27
51.940        27
51.960         7
51.980        20
52.000        13
52.020        17
52.040        30
52.060        23
52.080        27
52.100        17
52.120        10
52.140        23
52.160        13
52.180        20
52.200        20
52.220        27
52.240        17
52.260         7
52.280        27
52.300        33
52.320        27
52.340         7
52.360        27
52.380        13
52.400        13
52.420        13
52.440        20
52.460        17
52.480        10
52.500        23
52.520        33
52.540        23
52.560        23
52.580        20
52.600        70
52.620        47
52.640        57
52.660        43
52.680        33
52.700        40
52.720        37
52.740        37
52.760        27
52.780        23
52.800        40
52.820        23
52.840        27
52.860        20
52.880         3
52.900        13
52.920        20
52.940        23
52.960        17
52.980        27
53.000        13
53.020        27
53.040        17
53.060        23
53.080        27
53.100        37
53.120        30
53.140        17
53.160        30
53.180        17
53.200        20
53.220        13
53.240        40
53.260        10
53.280        23
53.300        20
53.320        13
53.340        40
53.360        13
53.380         7
53.400         7
53.420        10
53.440        27
53.460        13
53.480        20
53.500        10
53.520        20
53.540        23
53.560        17
53.580        20
53.600        30
53.620        13
53.640        27
53.660        20
53.680        13
53.700         7
53.720        17
53.740        30
53.760        30
53.780        20
53.800        10
53.820        13
53.840        10
53.860        17
53.880        30
53.900        23
53.920        27
53.940        23
53.960        23
53.980        13
54.000        17
54.020        40
54.040        17
54.060        17
54.080        23
54.100        27
54.120        20
54.140        33
54.160        43
54.180        37
54.200        33
54.220        27
54.240        57
54.260        27
54.280        30
54.300        27
54.320        43
54.340        40
54.360        27
54.380        47
54.400        30
54.420        20
54.440        47
54.460        20
54.480        33
54.500        17
54.520        30
54.540        20
54.560        23
54.580        30
54.600        27
54.620        23
54.640        23
54.660        27
54.680        27
54.700        10
54.720        20
54.740        17
54.760        17
54.780        23
54.800        23
54.820        27
54.840        17
54.860        17
54.880        20
54.900        37
54.920         7
54.940        27
54.960        10
54.980        20
55.000        17
55.020        23
55.040        33
55.060         7
55.080        23
55.100        20
55.120        23
55.140         0
55.160        17
55.180        17
55.200        13
55.220        20
55.240        20
55.260         3
55.280        23
55.300        23
55.320        23
55.340        13
55.360        27
55.380         3
55.400        13
55.420        10
55.440        17
55.460        17
55.480        20
55.500         7
55.520         3
55.540        10
55.560        27
55.580        10
55.600        23
55.620        17
55.640         3
55.660         7
55.680        27
55.700        23
55.720        17
55.740        20
55.760        27
55.780        30
55.800        23
55.820        20
55.840        23
55.860        20
55.880        17
55.900        13
55.920        27
55.940        10
55.960        17
55.980        13
56.000         7
56.020         7
56.040        20
56.060        10
56.080        17
56.100        13
56.120         3
56.140        17
56.160        10
56.180        13
56.200        13
56.220        17
56.240        17
56.260         3
56.280        33
56.300        27
56.320        13
56.340        30
56.360        13
56.380        23
56.400        17
56.420        23
56.440        13
56.460        20
56.480        23
56.500        17
56.520        23
56.540        17
56.560        27
56.580        23
56.600        20
56.620        17
56.640        17
56.660        10
56.680        20
56.700        20
56.720        20
56.740        13
56.760        10
56.780        17
56.800        20
56.820        13
56.840        40
56.860         7
56.880        40
56.900        13
56.920        10
56.940        13
56.960        30
56.980        23
57.000        13
57.020        13
57.040         0
57.060        23
57.080         7
57.100        20
57.120        23
57.140        23
57.160         7
57.180        23
57.200        17
57.220        23
57.240        10
57.260        23
57.280        17
57.300        13
57.320        13
57.340        27
57.360        20
57.380        30
57.400        27
57.420        27
57.440        17
57.460        20
57.480        27
57.500         7
57.520        50
57.540        37
57.560        37
57.580        40
57.600        20
57.620        27
57.640        13
57.660        20
57.680        27
57.700        23
57.720        43
57.740        27
57.760        27
57.780        17
57.800        30
57.820        20
57.840        20
57.860        20
57.880        20
57.900        17
57.920        23
57.940        30
57.960        20
57.980        20
58.000        27
58.020        20
58.040        10
58.060        30
58.080         7
58.100        10
58.120        23
58.140        13
58.160        17
58.180        10
58.200         7
58.220        13
58.240        23
58.260        20
58.280        23
58.300        17
58.320        20
58.340        37
58.360        23
58.380        37
58.400        30
58.420        13
58.440        10
58.460        23
58.480        17
58.500        17
58.520        13
58.540         7
58.560        17
58.580        23
58.600        13
58.620        17
58.640        17
58.660        13
58.680         7
58.700        23
58.720        13
58.740         7
58.760         3
58.780        13
58.800        23
58.820        17
58.840        17
58.860        17
58.880         3
58.900        33
58.920        13
58.940        23
58.960        13
58.980         7
59.000        30
59.020        10
59.040        23
59.060        20
59.080        13
59.100        27
59.120        20
59.140        17
59.160        23
59.180        10
59.200        20
59.220        13
59.240        17
59.260        13
59.280        13
59.300        13
59.320        23
59.340        13
59.360         7
59.380        23
59.400        13
59.420        10
59.440        23
59.460        13
59.480        23
59.500         7
59.520        17
59.540        20
59.560        27
59.580        17
59.600        17
59.620        20
59.640        13
59.660         7
59.680        10
59.700        13
59.720        23
59.740        13
59.760        37
59.780        30
59.800        23
59.820        20
59.840        20
59.860        27
59.880        37
59.900        17
59.920        20
59.940        17
59.960        20
59.980        23
60.000        10
