20.000        50
20.020        50
20.040        47
20.060        53
20.080        50
20.100        47
20.120        37
20.140        37
20.160        57
20.180        57
20.200        50
20.220        33
20.240        47
20.260        37
20.280        60
20.300        47
20.320        30
20.340        40
20.360        53
20.380        30
20.400        53
20.420        30
20.440        17
20.460        23
20.480        43
20.500        40
20.520        33
20.540        43
20.560        30
20.580        33
20.600        43
20.620        53
20.640        37
20.660        60
20.680        63
20.700        33
20.720        70
20.740        47
20.760        43
20.780        30
20.800        60
20.820        30
20.840        43
20.860        40
20.880        47
20.900        33
20.920        23
20.940        27
20.960        40
20.980        37
21.000        40
21.020        57
21.040        30
21.060        40
21.080        40
21.100        43
21.120        40
21.140        40
21.160        57
21.180        30
21.200        57
21.220        37
21.240        40
21.260        43
21.280        30
21.300        53
21.320        53
21.340        47
21.360        50
21.380        50
21.400        43
21.420        20
21.440        13
21.460        37
21.480        40
21.500        33
21.520        33
21.540        37
21.560        33
21.580        37
21.600        47
21.620        27
21.640        47
21.660        40
21.680        37
21.700        30
21.720        37
21.740        37
21.760        33
21.780        33
21.800        40
21.820        20
21.840        40
21.860        43
21.880        37
21.900        43
21.920        30
21.940        67
21.960        20
21.980        23
22.000        43
22.020        37
22.040        43
22.060        27
22.080        33
22.100        60
22.120        50
22.140        63
22.160        33
22.180        43
22.200        30
22.220        37
22.240        30
22.260        47
22.280        43
22.300        37
22.320        30
22.340        27
22.360        40
22.380        33
22.400        50
22.420        40
22.440        40
22.460        43
22.480        40
22.500        30
22.520        37
22.540        53
22.560        17
22.580        30
22.600        37
22.620        17
22.640        37
22.660        30
22.680        47
22.700        47
22.720        33
22.740        13
22.760        40
22.780        50
22.800        43
22.820        33
22.840        23
22.860        27
22.880        27
22.900        40
22.920        47
22.940        43
22.960        20
22.980        23
23.000        20
23.020        53
23.040        47
23.060        37
23.080        27
23.100        43
23.120        30
23.140        37
23.160        30
23.180        30
23.200        40
23.220        27
23.240        40
23.260        17
23.280        30
23.300        37
23.320        33
23.340        27
23.360        13
23.380        57
23.400        30
23.420        33
23.440        43
23.460        20
23.480        33
23.500        27
23.520        30
23.540        50
23.560        23
23.580        43
23.600        43
23.620        27
23.640        27
23.660        27
23.680        40
23.700        37
23.720        43
23.740        37
23.760        47
23.780        50
23.800        23
23.820        30
23.840        23
23.860        33
23.880        40
23.900        43
23.920        20
23.940        60
23.960        17
23.980        30
24.000        20
24.020        50
24.040        37
24.060        17
24.080        23
24.100        30
24.120        20
24.140        30
24.160        30
24.180        37
24.200        37
24.220        40
24.240        43
24.260        40
24.280        23
24.300        30
24.320        27
24.340        53
24.360        30
24.380        30
24.400        40
24.420        33
24.440        43
24.460        47
24.480        27
24.500        20
24.520        30
24.540        37
24.560        33
24.580        50
24.600        33
24.620        30
24.640        30
24.660        27
24.680        20
24.700        20
24.720        37
24.740        17
24.760         7
24.780        17
24.800        27
24.820        37
24.840        30
24.860        33
24.880        17
24.900        40
24.920        37
24.940        47
24.960        20
24.980        23
25.000        23
25.020        20
25.040        20
25.060        47
25.080        40
25.100        33
25.120        37
25.140        27
25.160        30
25.180        13
25.200        30
25.220        30
25.240        20
25.260        23
25.280        37
25.300        30
25.320        33
25.340        30
25.360        30
25.380        30
25.400        27
25.420        30
25.440        30
25.460        20
25.480        20
25.500        20
25.520        17
25.540        23
25.560        33
25.580        30
25.600        27
25.620        20
25.640        33
25.660        27
25.680        27
25.700        23
25.720        43
25.740        27
25.760        20
25.780        33
25.800        40
25.820        20
25.840        20
25.860        37
25.880        33
25.900        40
25.920        13
25.940        37
25.960        27
25.980        30
26.000        13
26.020        40
26.040        30
26.060        17
26.080        40
26.100        23
26.120        37
26.140        50
26.160         7
26.180        37
26.200        33
26.220        27
26.240        37
26.260        37
26.280        37
26.300        23
26.320        30
26.340        23
26.360        30
26.380        43
26.400        40
26.420        40
26.440        27
26.460        30
26.480        33
26.500        23
26.520        40
26.540        30
26.560        23
26.580        23
26.600        30
26.620        17
26.640        30
26.660        43
26.680        33
26.700        27
26.720        30
26.740        40
26.760        23
26.780        40
26.800        20
26.820        17
26.840        23
26.860        27
26.880        30
26.900        20
26.920        23
26.940        17
26.960        27
26.980        33
27.000        33
27.020        23
27.040        23
27.060        27
27.080        40
27.100        30
27.120        27
27.140        47
27.160        20
27.180        20
27.200        27
27.220        10
27.240        23
27.260        27
27.280        30
27.300        33
27.320        37
27.340        30
27.360        33
27.380        23
27.400        20
27.420        27
27.440        30
27.460        23
27.480        30
27.500        17
27.520        33
27.540        23
27.560        40
27.580        20
27.600        30
27.620        30
27.640        40
27.660        30
27.680        20
27.700        30
27.720        33
27.740        30
27.760        43
27.780        33
27.800        33
27.820        23
27.840        37
27.860        13
27.880        27
27.900        30
27.920        23
27.940        37
27.960        27
27.980        43
28.000        40
28.020        17
28.040        33
28.060        30
28.080        30
28.100        30
28.120        23
28.140        17
28.160        37
28.180        33
28.200        53
28.220        60
28.240        57
28.260        43
28.280        43
28.300        20
28.320        33
28.340        30
28.360        27
28.380        23
28.400        23
28.420        20
28.440        33
28.460        23
28.480        30
28.500        17
28.520        33
28.540        30
28.560        27
28.580        27
28.600        33
28.620        23
28.640        37
28.660        20
28.680        27
28.700        33
28.720        40
28.740        30
28.760        27
28.780        30
28.800        27
28.820        30
28.840        17
28.860        20
28.880        30
28.900        30
28.920        40
28.940        37
28.960        20
28.980         7
29.000        30
29.020        37
29.040        23
29.060        27
29.080        23
29.100        27
29.120        23
29.140        40
29.160        27
29.180        17
29.200        30
29.220        10
29.240        27
29.260        47
29.280        43
29.300        13
29.320        17
29.340        23
29.360        40
29.380        23
29.400        23
29.420        30
29.440        13
29.460        37
29.480        13
29.500        43
29.520        27
29.540        20
29.560        27
29.580        20
29.600        17
29.620        30
29.640        23
29.660        13
29.680        27
29.700        20
29.720        23
29.740        17
29.760        33
29.780         7
29.800        33
29.820        10
29.840        27
29.860        13
29.880        13
29.900        33
29.920        13
29.940        10
29.960        33
29.980        17
30.000        27
30.020        20
30.040        17
30.060        33
30.080        27
30.100        17
30.120        30
30.140        57
30.160        47
30.180        30
30.200        37
30.220        43
30.240        30
30.260        17
30.280        37
30.300        40
30.320        37
30.340        37
30.360        37
30.380        47
30.400        47
30.420        47
30.440        30
30.460        50
30.480        67
30.500        23
30.520        70
30.540        33
30.560        37
30.580        47
30.600        43
30.620        37
30.640        53
30.660        43
30.680        47
30.700        63
30.720        53
30.740        43
30.760        37
30.780        50
30.800        70
30.820        47
30.840        80
30.860        57
30.880        67
30.900        53
30.920        93
30.940       127
30.960        80
30.980       130
31.000       157
31.020       190
31.040       223
31.060       347
31.080       400
31.100       480
31.120       700
31.140       753
31.160      1053
31.180      1449
31.200      1929
31.220      2562
31.240      3229
31.260      3479
31.280      3332
31.300      2822
31.320      2522
31.340      2089
31.360      1799
31.380      1269
31.400       796
31.420       483
31.440       377
31.460       317
31.480       247
31.500       157
31.520       163
31.540       140
31.560       110
31.580        80
31.600       113
31.620        80
31.640        83
31.660        67
31.680        47
31.700        60
31.720        50
31.740        57
31.760        47
31.780        47
31.800        53
31.820        47
31.840        53
31.860        43
31.880        60
31.900        47
31.920        30
31.940        63
31.960        33
31.980        43
32.000        43
32.020        47
32.040        40
32.060        57
32.080        40
32.100        30
32.120        73
32.140        60
32.160        63
32.180        37
32.200        40
32.220        33
32.240        27
32.260        47
32.280        53
32.300        20
32.320        37
32.340        53
32.360        43
32.380        37
32.400        40
32.420        30
32.440        23
32.460        40
32.480        33
32.500        17
32.520        50
32.540        20
32.560        20
32.580        37
32.600        27
32.620        23
32.640        40
32.660        23
32.680        10
32.700        33
32.720        20
32.740        10
32.760        33
32.780        40
32.800        60
32.820        33
32.840        27
32.860        40
32.880        37
32.900        43
32.920        20
32.940        30
32.960        40
32.980        33
33.000        33
33.020        30
33.040        37
33.060        30
33.080        40
33.100        23
33.120        27
33.140        33
33.160        13
33.180        20
33.200        33
33.220        40
33.240        30
33.260        27
33.280        37
33.300        13
33.320        23
33.340        33
33.360        43
33.380        20
33.400        50
33.420        23
33.440        40
33.460        20
33.480        33
33.500        20
33.520        23
33.540        37
33.560        33
33.580        13
33.600        23
33.620        30
33.640        13
33.660        23
33.680        33
33.700        23
33.720        37
33.740        33
33.760        27
33.780        33
33.800        27
33.820        43
33.840        27
33.860        27
33.880        20
33.900        40
33.920        30
33.940        43
33.960        37
33.980        50
34.000        17
34.020        33
34.040        23
34.060        37
34.080        47
34.100        47
34.120        47
34.140        37
34.160        57
34.180        63
34.200        43
34.220        67
34.240        37
34.260        20
34.280        53
34.300        30
34.320        43
34.340        27
34.360        47
34.380        27
34.400        20
34.420        40
34.440        37
34.460        37
34.480        67
34.500        27
34.520        13
34.540        20
34.560        20
34.580        27
34.600        37
34.620        30
34.640        27
34.660        17
34.680        30
34.700        30
34.720        27
34.740        17
34.760        37
34.780        30
34.800        33
34.820        30
34.840        17
34.860        20
34.880        23
34.900        33
34.920        33
34.940        27
34.960        20
34.980        33
35.000        23
35.020        17
35.040        23
35.060        40
35.080        27
35.100        23
35.120        13
35.140        23
35.160        33
35.180        37
35.200        33
35.220        27
35.240        20
35.260        17
35.280        17
35.300        47
35.320        20
35.340        17
35.360        30
35.380        17
35.400        20
35.420        13
35.440        30
35.460        23
35.480        27
35.500        20
35.520        37
35.540        47
35.560        10
35.580        17
35.600        13
35.620        30
35.640        27
35.660         7
35.680        17
35.700        23
35.720        20
35.740        20
35.760        30
35.780        23
35.800        23
35.820        27
35.840        37
35.860        20
35.880        27
35.900        27
35.920        23
35.940        33
35.960        10
35.980        27
36.000        13
36.020        23
36.040        23
36.060        30
36.080        13
36.100        13
36.120        27
36.140        30
36.160        30
36.180        27
36.200        37
36.220        20
36.240        27
36.260        30
36.280        30
36.300        27
36.320        37
36.340        17
36.360        37
36.380        40
36.400        17
36.420        13
36.440        10
36.460        30
36.480        23
36.500        27
36.520        37
36.540        33
36.560        23
36.580        27
36.600        13
36.620        10
36.640        23
36.660        30
36.680        17
36.700         7
36.720        17
36.740        23
36.760        10
36.780        23
36.800        43
36.820        43
36.840        17
36.860        13
36.880        33
36.900        27
36.920        40
36.940        10
36.960        20
36.980        37
37.000        33
37.020        17
37.040        23
37.060        20
37.080        43
37.100        27
37.120        27
37.140        20
37.160        23
37.180        30
37.200        20
37.220        20
37.240        13
37.260        17
37.280        23
37.300        23
37.320        37
37.340        17
37.360        17
37.380        17
37.400        50
37.420        13
37.440        20
37.460        10
37.480        23
37.500        23
37.520        30
37.540        23
37.560        27
37.580        27
37.600        43
37.620        13
37.640        23
37.660        20
37.680        20
37.700        20
37.720        27
37.740        13
37.760        37
37.780        20
37.800        13
37.820        30
37.840         7
37.860        30
37.880        23
37.900        13
37.920        43
37.940        23
37.960        30
37.980        23
38.000        23
38.020        13
38.040        50
38.060        27
38.080        17
38.100        30
38.120        13
38.140        23
38.160        40
38.180        17
38.200        23
38.220        33
38.240        30
38.260        37
38.280        33
38.300        30
38.320        37
38.340        37
38.360        30
38.380        43
38.400        43
38.420        47
38.440        43
38.460        37
38.480        47
38.500        33
38.520        57
38.540        70
38.560        17
38.580        53
38.600        47
38.620        53
38.640        83
38.660        53
38.680        67
38.700        63
38.720        40
38.740        53
38.760        43
38.780        27
38.800        23
38.820        40
38.840        60
38.860        27
38.880        40
38.900        30
38.920        13
38.940        53
38.960        47
38.980        40
39.000         7
39.020        17
39.040        27
39.060        30
39.080        13
39.100        20
39.120        30
39.140        23
39.160        13
39.180        20
39.200        23
39.220        27
39.240        23
39.260        17
39.280        27
39.300        20
39.320        23
39.340        13
39.360        33
39.380        17
39.400        33
39.420        30
39.440        27
39.460        20
39.480        33
39.500        33
39.520        27
39.540        63
39.560        40
39.580        37
39.600        60
39.620        50
39.640        40
39.660        67
39.680        37
39.700        37
39.720        37
39.740        50
39.760        60
39.780        13
39.800        20
39.820        23
39.840        17
39.860        30
39.880        23
39.900        17
39.920        13
39.940        27
39.960        20
39.980        33
40.000        30
40.020        17
40.040         3
40.060        37
40.080        23
40.100        20
40.120        10
40.140        13
40.160        20
40.180        20
40.200        23
40.220        17
40.240        27
40.260        30
40.280        20
40.300        20
40.320        27
40.340         7
40.360        40
40.380        10
40.400        20
40.420        13
40.440        30
40.460        23
40.480        23
40.500        17
40.520        33
40.540        13
40.560        17
40.580        10
40.600        20
40.620        30
40.640        13
40.660        10
40.680        13
40.700        13
40.720        23
40.740        13
40.760        30
40.780        30
40.800        13
40.820        17
40.840        17
40.860        20
40.880        17
40.900        13
40.920        20
40.940        20
40.960        20
40.980        10
41.000        30
41.020        23
41.040        17
41.060        13
41.080        20
41.100        10
41.120        10
41.140        13
41.160        17
41.180        20
41.200        17
41.220        13
41.240        17
41.260        20
41.280        17
41.300        20
41.320        40
41.340        37
41.360        13
41.380         7
41.400        27
41.420        37
41.440        17
41.460        13
41.480        10
41.500        10
41.520        10
41.540        17
41.560        10
41.580        30
41.600        27
41.620        23
41.640        40
41.660        17
41.680        33
41.700        30
41.720        37
41.740        37
41.760        57
41.780        23
41.800        17
41.820        50
41.840        47
41.860        47
41.880        50
41.900        37
41.920        13
41.940        23
41.960        10
41.980        20
42.000        17
42.020        27
42.040        13
42.060        13
42.080        23
42.100        17
42.120        17
42.140        13
42.160        10
42.180        17
42.200        13
42.220        13
42.240        13
42.260        10
42.280         3
42.300        13
42.320        20
42.340        20
42.360        20
42.380        10
42.400        20
42.420        13
42.440        13
42.460        17
42.480        13
42.500        27
42.520        23
42.540         7
42.560         3
42.580        10
42.600        27
42.620        13
42.640        20
42.660        20
42.680        20
42.700         7
42.720        37
42.740        23
42.760        33
42.780        37
42.800        13
42.820        23
42.840        23
42.860        20
42.880        17
42.900        20
42.920        13
42.940        23
42.960        23
42.980        10
43.000        13
43.020        23
43.040        17
43.060        10
43.080        20
43.100        17
43.120        20
43.140         7
43.160        30
43.180        30
43.200        40
43.220        10
43.240        23
43.260         7
43.280        13
43.300        17
43.320        10
43.340        37
43.360        30
43.380        17
43.400        13
43.420        20
43.440        20
43.460        20
43.480        30
43.500         7
43.520        23
43.540        20
43.560        27
43.580        17
43.600        13
43.620        20
43.640        20
43.660        13
43.680        10
43.700        10
43.720        13
43.740        30
43.760        23
43.780        10
43.800        23
43.820        20
43.840        10
43.860        10
43.880        20
43.900        10
43.920        13
43.940        17
43.960        17
43.980        17
44.000        20
44.020        20
44.040        20
44.060        17
44.080        27
44.100        10
44.120        37
44.140        13
44.160        17
44.180        17
44.200        10
44.220        30
44.240        13
44.260        17
44.280        27
44.300        23
44.320        30
44.340        13
44.360        33
44.380        10
44.400        23
44.420        27
44.440        43
44.460        27
44.480        17
44.500        17
44.520        37
44.540        27
44.560        20
44.580        30
44.600        47
44.620        27
44.640         3
44.660        37
44.680        33
44.700        20
44.720        27
44.740        23
44.760        23
44.780        30
44.800        33
44.820        27
44.840        27
44.860        20
44.880        17
44.900        43
44.920        27
44.940        13
44.960        27
44.980        33
45.000        23
45.020        30
45.040        43
45.060        57
45.080        30
45.100        20
45.120        33
45.140        20
45.160        27
45.180        17
45.200        27
45.220        20
45.240        27
45.260        27
45.280        40
45.300        23
45.320        10
45.340        10
45.360        13
45.380        17
45.400        23
45.420        33
45.440        10
45.460        30
45.480        17
45.500        30
45.520        13
45.540         7
45.560        20
45.580        17
45.600        17
45.620        40
45.640        27
45.660        10
45.680        23
45.700        27
45.720        27
45.740         7
45.760        20
45.780        10
45.800        27
45.820        10
45.840        13
45.860        20
45.880        20
45.900        27
45.920        27
45.940        17
45.960        13
45.980        13
46.000        27
46.020        23
46.040        37
46.060        30
46.080        27
46.100        37
46.120        30
46.140        30
46.160         7
46.180        20
46.200        37
46.220        23
46.240        27
46.260        17
46.280        43
46.300        27
46.320        13
46.340        17
46.360        23
46.380         7
46.400        20
46.420         7
46.440        20
46.460        27
46.480        20
46.500        27
46.520        20
46.540        13
46.560         7
46.580         7
46.600        27
46.620        17
46.640        17
46.660        10
46.680        17
46.700        30
46.720        13
46.740         7
46.760        23
46.780        10
46.800        13
46.820        27
46.840        10
46.860        27
46.880        13
46.900        13
46.920        17
46.940        27
46.960        33
46.980        10
47.000        10
47.020        17
47.040        20
47.060        17
47.080        13
47.100        17
47.120        13
47.140         7
47.160        30
47.180        17
47.200        33
47.220        17
47.240        23
47.260        23
47.280        23
47.300        23
47.320        40
47.340        33
47.360        13
47.380        13
47.400        17
47.420        23
47.440        13
47.460        30
47.480        17
47.500        17
47.520        23
47.540        30
47.560        17
47.580         3
47.600        13
47.620        17
47.640        10
47.660        23
47.680         3
47.700        23
47.720        13
47.740        20
47.760        33
47.780        10
47.800        20
47.820        10
47.840        13
47.860        10
47.880         7
47.900        17
47.920        33
47.940        10
47.960        20
47.980        20
48.000        17
48.020        23
48.040        23
48.060         7
48.080        20
48.100        23
48.120        20
48.140        23
48.160        10
48.180        13
48.200        17
48.220         7
48.240        20
48.260        23
48.280        23
48.300        20
48.320        20
48.340         3
48.360        17
48.380        23
48.400        23
48.420        10
48.440        13
48.460        17
48.480        17
48.500        17
48.520        20
48.540        23
48.560        20
48.580        20
48.600        13
48.620        17
48.640         7
48.660        13
48.680         7
48.700        13
48.720         7
48.740        13
48.760        13
48.780        20
48.800        10
48.820        17
48.840        13
48.860        23
48.880        23
48.900         7
48.920        20
48.940        30
48.960        27
48.980        17
49.000        27
49.020        10
49.040        17
49.060        30
49.080        27
49.100        23
49.120        20
49.140        13
49.160        17
49.180        20
49.200        13
49.220        13
49.240        27
49.260        17
49.280         7
49.300         7
49.320        20
49.340        47
49.360         7
49.380        10
49.400        17
49.420        10
49.440        10
49.460        13
49.480        20
49.500        17
49.520        10
49.540        10
49.560        17
49.580         7
49.600        17
49.620        17
49.640         7
49.660        27
49.680        13
49.700        17
49.720        23
49.740        17
49.760        10
49.780        13
49.800        20
49.820        17
49.840        33
49.860        30
49.880        17
49.900        10
49.920        23
49.940        17
49.960        17
49.980        13
50.000        17
50.020        23
50.040         3
50.060        30
50.080        27
50.100        10
50.120        17
50.140        20
50.160        33
50.180        10
50.200        10
50.220        20
50.240         7
50.260        10
50.280        17
50.300        20
50.320        27
50.340        20
50.360        13
50.380        13
50.400        17
50.420        23
50.440        10
50.460        13
50.480        20
50.500        17
50.520        23
50.540        20
50.560        20
50.580        10
50.600        27
50.620        17
50.640        10
50.660        33
50.680        20
50.700         3
50.720        17
50.740        17
50.760        23
50.780        17
50.800        10
50.820        17
50.840        10
50.860         7
50.880        17
50.900        20
50.920        27
50.940        10
50.960        13
50.980        17
51.000        23
51.020        13
51.040        20
51.060         7
51.080        27
51.100        27
51.120        33
51.140        17
51.160        30
51.180        17
51.200        27
51.220         7
51.240        17
51.260        10
51.280         3
51.300         3
51.320        10
51.340        30
51.360        30
51.380        23
51.400        23
51.420        23
51.440         7
51.460        10
51.480         3
51.500        10
51.520        30
51.540        17
51.560        10
51.580        20
51.600        13
51.620        30
51.640        20
51.660         3
51.680        17
51.700        13
51.720        20
51.740        30
51.760        20
51.780        17
51.800        13
51.820        13
51.840         7
51.860         7
51.880        20
51.900        13
51.920        17
51.940         7
51.960        30
51.980         3
52.000        27
52.020        27
52.040        17
52.060         3
52.080        17
52.100        17
52.120        17
52.140        13
52.160        13
52.180        23
52.200        10
52.220        10
52.240        20
52.260        27
52.280        27
52.300         7
52.320        30
52.340        17
52.360        20
52.380        13
52.400        13
52.420        27
52.440        10
52.460        23
52.480        13
52.500        10
52.520        13
52.540        13
52.560        17
52.580        23
52.600        23
52.620        43
52.640        53
52.660        27
52.680        30
52.700        17
52.720        30
52.740        20
52.760        23
52.780        17
52.800        23
52.820         7
52.840        27
52.860        13
52.880        10
52.900        20
52.920        10
52.940        17
52.960        13
52.980         7
53.000         7
53.020        10
53.040        10
53.060        20
53.080        23
53.100        10
53.120        23
53.140        13
53.160         7
53.180         7
53.200        10
53.220        27
53.240        10
53.260         7
53.280         7
53.300        20
53.320        23
53.340        30
53.360        17
53.380        13
53.400        20
53.420        13
53.440        10
53.460         7
53.480         7
53.500        13
53.520         3
53.540        20
53.560         7
53.580        17
53.600        13
53.620        13
53.640        27
53.660        10
53.680        17
53.700         7
53.720        17
53.740        20
53.760        13
53.780        13
53.800        10
53.820        37
53.840        23
53.860        23
53.880         7
53.900        10
53.920        17
53.940        17
53.960        17
53.980        23
54.000        13
54.020        17
54.040        33
54.060        17
54.080        17
54.100        27
54.120        13
54.140        23
54.160        13
54.180        17
54.200        23
54.220        17
54.240        33
54.260        30
54.280        10
54.300        10
54.320        13
54.340        27
54.360        20
54.380        27
54.400         7
54.420        23
54.440        27
54.460        17
54.480        23
54.500        13
54.520        17
54.540        17
54.560        30
54.580        20
54.600        17
54.620        30
54.640         3
54.660        13
54.680        23
54.700        20
54.720        20
54.740        37
54.760        13
54.780        27
54.800        13
54.820        13
54.840        10
54.860        30
54.880        23
54.900        30
54.920        17
54.940        23
54.960        27
54.980        23
55.000        17
55.020        33
55.040         3
55.060        33
55.080        10
55.100        23
55.120        20
55.140        17
55.160        27
55.180        27
55.200        33
55.220        47
55.240        40
55.260        40
55.280        37
55.300        50
55.320        23
55.340        37
55.360        70
55.380        77
55.400        73
55.420       100
55.440        73
55.460       117
55.480       160
55.500       193
55.520       260
55.540       280
55.560       380
55.580       347
55.600       407
55.620       440
55.640       367
55.660       380
55.680       263
55.700       313
55.720       250
55.740       280
55.760       197
55.780       217
55.800       187
55.820       173
55.840        90
55.860       123
55.880        83
55.900        37
55.920        57
55.940        50
55.960        43
55.980        50
56.000        43
56.020        20
56.040        37
56.060        13
56.080        27
56.100        30
56.120        27
56.140        17
56.160        27
56.180        37
56.200        27
56.220        17
56.240        17
56.260        30
56.280        10
56.300        13
56.320        17
56.340        17
56.360        23
56.380        13
56.400        13
56.420        13
56.440        17
56.460        13
56.480        17
56.500        20
56.520        30
56.540        17
56.560        17
56.580        30
56.600        13
56.620        27
56.640        17
56.660        17
56.680        27
56.700        27
56.720        17
56.740        10
56.760        10
56.780        17
56.800        23
56.820        37
56.840         7
56.860        27
56.880        10
56.900        43
56.920        23
56.940        27
56.960        20
56.980        27
57.000        13
57.020        13
57.040        33
57.060        17
57.080        20
57.100        23
57.120        23
57.140        20
57.160        27
57.180        20
57.200        13
57.220        47
57.240        27
57.260        53
57.280        27
57.300        17
57.320        27
57.340        37
57.360        13
57.380        30
57.400        30
57.420        37
57.440        37
57.460        17
57.480        23
57.500        20
57.520        27
57.540        37
57.560       123
57.580       153
57.600       183
57.620       163
57.640        93
57.660        40
57.680        20
57.700        60
57.720        67
57.740       113
57.760        93
57.780        90
57.800        50
57.820        63
57.840        13
57.860        13
57.880        33
57.900        23
57.920        23
57.940        23
57.960         3
57.980        13
58.000        17
58.020        20
58.040        20
58.060        23
58.080        27
58.100        23
58.120        27
58.140        20
58.160        43
58.180        17
58.200        20
58.220        20
58.240        27
58.260        27
58.280        10
58.300        33
58.320        13
58.340        13
58.360        20
58.380        17
58.400        17
58.420        17
58.440        27
58.460        17
58.480        20
58.500        17
58.520        20
58.540        30
58.560        17
58.580        27
58.600        20
58.620        23
58.640        13
58.660        23
58.680        10
58.700        13
58.720        17
58.740        17
58.760         7
58.780        23
58.800        20
58.820        17
58.840        10
58.860        17
58.880        10
58.900        20
58.920        13
58.940        13
58.960         7
58.980        20
59.000        13
59.020        13
59.040        30
59.060        23
59.080        13
59.100        33
59.120        27
59.140        23
59.160        17
59.180        17
59.200        10
59.220        27
59.240        13
59.260        10
59.280         3
59.300         7
59.320        20
59.340         7
59.360         7
59.380        20
59.400        13
59.420        23
59.440        17
59.460        17
59.480        17
59.500        20
59.520         0
59.540        27
59.560        13
59.580        10
59.600        13
59.620         3
59.640        17
59.660        17
59.680        10
59.700         7
59.720        17
59.740        27
59.760        20
59.780        13
59.800        20
59.820        10
59.840        27
59.860        10
59.880        17
59.900        17
59.920         7
59.940        13
59.960        17
59.980        13
60.000        13
