20.000        27
20.010        27
20.020        53
20.030        80
20.040        73
20.050        73
20.060        87
20.070        60
20.080        53
20.090        67
20.100        73
20.110        47
20.120        33
20.130        93
20.140        93
20.150        33
20.160        93
20.170        60
20.180        33
20.190        47
20.200        47
20.210        53
20.220        80
20.230        80
20.240        53
20.250        60
20.260        73
20.270        73
20.280        47
20.290        53
20.300        80
20.310       107
20.320        33
20.330        40
20.340        53
20.350        80
20.360        67
20.370        80
20.380        53
20.390        60
20.400        73
20.410        87
20.420        67
20.430        93
20.440        60
20.450        60
20.460       133
20.470        67
20.480        87
20.490        93
20.500        53
20.510        80
20.520        67
20.530        60
20.540        73
20.550        73
20.560        93
20.570        73
20.580        53
20.590        80
20.600       113
20.610        67
20.620        60
20.630        73
20.640        67
20.650        53
20.660        80
20.670        20
20.680        47
20.690       133
20.700        93
20.710        93
20.720        80
20.730        67
20.740        80
20.750        80
20.760        93
20.770        67
20.780        33
20.790        67
20.800        73
20.810        93
20.820        87
20.830        73
20.840        60
20.850        93
20.860        73
20.870        60
20.880        60
20.890       100
20.900       133
20.910        73
20.920        93
20.930        73
20.940        67
20.950        93
20.960        80
20.970        87
20.980       100
20.990        67
21.000        80
21.010       100
21.020        93
21.030        67
21.040        67
21.050        67
21.060        80
21.070        53
21.080        67
21.090        60
21.100        53
21.110        80
21.120        80
21.130        87
21.140        53
21.150        53
21.160        87
21.170        73
21.180        53
21.190        80
21.200        80
21.210       107
21.220        60
21.230        67
21.240        80
21.250        87
21.260        60
21.270        87
21.280        60
21.290        33
21.300       100
21.310        80
21.320        80
21.330        80
21.340        67
21.350        60
21.360       100
21.370        73
21.380       107
21.390        80
21.400        60
21.410        33
21.420        80
21.430       107
21.440       113
21.450        67
21.460        73
21.470        80
21.480       100
21.490       147
21.500        53
21.510       120
21.520       180
21.530       100
21.540       147
21.550        53
21.560        87
21.570        80
21.580        87
21.590       127
21.600       100
21.610        60
21.620        80
21.630       140
21.640       100
21.650        60
21.660       120
21.670        67
21.680       100
21.690        73
21.700        67
21.710       107
21.720        60
21.730        80
21.740        73
21.750       120
21.760        73
21.770       107
21.780        87
21.790        87
21.800       127
21.810       107
21.820        93
21.830       113
21.840       140
21.850        73
21.860        67
21.870       147
21.880        93
21.890       147
21.900       127
21.910       120
21.920       153
21.930        80
21.940       133
21.950        80
21.960       107
21.970       127
21.980       100
21.990       133
22.000       107
22.010        60
22.020       120
22.030       100
22.040        87
22.050       113
22.060       133
22.070       100
22.080       107
22.090       107
22.100       107
22.110       133
22.120       107
22.130       120
22.140       133
22.150       147
22.160       127
22.170       113
22.180        67
22.190       167
22.200       153
22.210        93
22.220       113
22.230        87
22.240       173
22.250       133
22.260       127
22.270       127
22.280        93
22.290       100
22.300        67
22.310       133
22.320       107
22.330       120
22.340       133
22.350       107
22.360       113
22.370       167
22.380        93
22.390       107
22.400       127
22.410       127
22.420       120
22.430       133
22.440       113
22.450       127
22.460       173
22.470       173
22.480       107
22.490       107
22.500       100
22.510       107
22.520       127
22.530       100
22.540        93
22.550       133
22.560       120
22.570       113
22.580       113
22.590       140
22.600        87
22.610       153
22.620       107
22.630        87
22.640       140
22.650        93
22.660       160
22.670        73
22.680       147
22.690       133
22.700       153
22.710       133
22.720       140
22.730       200
22.740       113
22.750        87
22.760        93
22.770       127
22.780       180
22.790       140
22.800       133
22.810       127
22.820       120
22.830       113
22.840       107
22.850       147
22.860       167
22.870       187
22.880       100
22.890       133
22.900       153
22.910       147
22.920       147
22.930       147
22.940       140
22.950       213
22.960       193
22.970       147
22.980       140
22.990       167
23.000       153
23.010       107
23.020       107
23.030       147
23.040       147
23.050        87
23.060       160
23.070       220
23.080       240
23.090       247
23.100       353
23.110       287
23.120       340
23.130       453
23.140       213
23.150       280
23.160       267
23.170       193
23.180       227
23.190       107
23.200       180
23.210       107
23.220       127
23.230       127
23.240       140
23.250       213
23.260       220
23.270       153
23.280       153
23.290       147
23.300       207
23.310       193
23.320       140
23.330       133
23.340       180
23.350       180
23.360       187
23.370       140
23.380       193
23.390       133
23.400       147
23.410       133
23.420       160
23.430       173
23.440       133
23.450       133
23.460       193
23.470       113
23.480       180
23.490       127
23.500       173
23.510       207
23.520       173
23.530       207
23.540       113
23.550       133
23.560       147
23.570       147
23.580       200
23.590       147
23.600       200
23.610       180
23.620       147
23.630       180
23.640       207
23.650       107
23.660       127
23.670       153
23.680       207
23.690       207
23.700       100
23.710       147
23.720       193
23.730       147
23.740       160
23.750       153
23.760       120
23.770       147
23.780       180
23.790       160
23.800       180
23.810       207
23.820       173
23.830       127
23.840       200
23.850       133
23.860       133
23.870       187
23.880       113
23.890       120
23.900       160
23.910       147
23.920       173
23.930       180
23.940       153
23.950       173
23.960       147
23.970       200
23.980       180
23.990       133
24.000       133
24.010       153
24.020       200
24.030       107
24.040       127
24.050       120
24.060       140
24.070       120
24.080       160
24.090       133
24.100       100
24.110       153
24.120       113
24.130       127
24.140       227
24.150       140
24.160       153
24.170       173
24.180       220
24.190       167
24.200       133
24.210       173
24.220       147
24.230       133
24.240       180
24.250       147
24.260       153
24.270       153
24.280       160
24.290       107
24.300       107
24.310       213
24.320       153
24.330       147
24.340       127
24.350       133
24.360       147
24.370       173
24.380       187
24.390       160
24.400       120
24.410       113
24.420       147
24.430        93
24.440       167
24.450       160
24.460       167
24.470       153
24.480       127
24.490       133
24.500       147
24.510       153
24.520       173
24.530       173
24.540       173
24.550        80
24.560       200
24.570       200
24.580       213
24.590       187
24.600       127
24.610       127
24.620       280
24.630       173
24.640       120
24.650       113
24.660       207
24.670       153
24.680       160
24.690       140
24.700       127
24.710       140
24.720       153
24.730       193
24.740       180
24.750       193
24.760       227
24.770       187
24.780       200
24.790       193
24.800       213
24.810       187
24.820       187
24.830       200
24.840       153
24.850       167
24.860       167
24.870       207
24.880       187
24.890       193
24.900       153
24.910       160
24.920       193
24.930       180
24.940       160
24.950       267
24.960       167
24.970       127
24.980       173
24.990       167
25.000       167
25.010       160
25.020       133
25.030       227
25.040       193
25.050       187
25.060       153
25.070       180
25.080       273
25.090       213
25.100       113
25.110       153
25.120       187
25.130       180
25.140       160
25.150       213
25.160       160
25.170       180
25.180       140
25.190       227
25.200       173
25.210       200
25.220       193
25.230       220
25.240       213
25.250       213
25.260       180
25.270       207
25.280       147
25.290       173
25.300       200
25.310       200
25.320       213
25.330       167
25.340       267
25.350       200
25.360       173
25.370       240
25.380       233
25.390       233
25.400       187
25.410       233
25.420       247
25.430       260
25.440       167
25.450       313
25.460       320
25.470       480
25.480       513
25.490       626
25.500       700
25.510       780
25.520       900
25.530       980
25.540      1213
25.550      1233
25.560      1759
25.570      3239
25.580      6864
25.590     12042
25.600     16733
25.610     19945
25.620     20732
25.630     21685
25.640     21865
25.650     21192
25.660     18159
25.670     15247
25.680     12842
25.690     11249
25.700     10889
25.710     10436
25.720      8703
25.730      6078
25.740      3159
25.750      2053
25.760      1479
25.770      1306
25.780      1186
25.790       960
25.800       806
25.810       853
25.820       613
25.830       580
25.840       586
25.850       460
25.860       486
25.870       353
25.880       280
25.890       260
25.900       253
25.910       313
25.920       207
25.930       253
25.940       207
25.950       213
25.960       220
25.970       173
25.980       227
25.990       180
26.000       273
26.010       167
26.020       193
26.030       193
26.040       220
26.050       213
26.060       233
26.070       227
26.080       193
26.090       127
26.100       220
26.110       133
26.120       213
26.130       240
26.140       187
26.150       180
26.160       200
26.170       187
26.180       180
26.190       147
26.200       227
26.210       133
26.220       127
26.230       180
26.240       160
26.250       160
26.260       193
26.270       140
26.280       200
26.290       180
26.300       187
26.310       207
26.320       240
26.330       180
26.340       153
26.350       160
26.360       120
26.370       140
26.380       207
26.390       187
26.400       213
26.410       140
26.420       193
26.430       147
26.440       167
26.450       147
26.460       167
26.470       173
26.480       133
26.490       187
26.500       173
26.510       220
26.520       140
26.530       213
26.540       227
26.550       193
26.560       120
26.570       153
26.580       140
26.590       127
26.600       160
26.610       153
26.620        87
26.630       153
26.640       140
26.650       213
26.660       147
26.670       153
26.680       120
26.690       100
26.700       113
26.710       213
26.720       193
26.730       133
26.740       107
26.750       147
26.760       113
26.770        93
26.780       173
26.790       147
26.800       133
26.810       180
26.820       153
26.830        87
26.840       140
26.850       187
26.860       173
26.870       153
26.880       207
26.890       160
26.900       160
26.910       153
26.920       147
26.930       160
26.940       147
26.950       153
26.960       113
26.970       153
26.980       260
26.990       147
27.000       160
27.010       133
27.020        73
27.030       167
27.040       153
27.050       167
27.060       153
27.070       113
27.080       120
27.090       120
27.100       127
27.110       100
27.120       107
27.130       133
27.140       160
27.150       160
27.160       173
27.170       180
27.180       147
27.190       120
27.200       173
27.210       120
27.220       160
27.230       100
27.240       140
27.250        87
27.260       133
27.270       160
27.280       113
27.290       180
27.300       200
27.310       220
27.320       187
27.330       167
27.340       173
27.350       120
27.360        87
27.370       133
27.380       147
27.390       187
27.400       160
27.410       133
27.420       133
27.430       100
27.440       147
27.450       127
27.460       160
27.470        93
27.480       153
27.490       127
27.500       140
27.510       240
27.520        93
27.530        60
27.540       173
27.550       160
27.560       140
27.570       113
27.580       140
27.590       120
27.600       120
27.610       167
27.620       167
27.630       147
27.640       120
27.650       100
27.660       187
27.670       173
27.680       127
27.690       180
27.700       140
27.710       140
27.720       187
27.730       160
27.740       200
27.750       133
27.760       167
27.770       220
27.780       173
27.790       180
27.800       167
27.810       140
27.820       153
27.830       213
27.840       153
27.850       227
27.860       253
27.870       200
27.880       140
27.890       180
27.900       200
27.910       160
27.920       207
27.930       160
27.940       147
27.950       127
27.960       200
27.970       147
27.980       140
27.990       127
28.000       133
28.010       100
28.020       180
28.030       153
28.040       180
28.050       180
28.060       167
28.070       127
28.080       100
28.090       107
28.100       167
28.110       160
28.120       140
28.130       153
28.140       153
28.150       127
28.160       133
28.170       100
28.180       113
28.190       107
28.200       140
28.210       180
28.220       100
28.230       133
28.240       147
28.250       167
28.260       193
28.270       120
28.280       107
28.290       147
28.300       120
28.310       127
28.320       100
28.330       120
28.340       173
28.350       133
28.360       167
28.370       107
28.380       153
28.390       140
28.400       140
28.410       167
28.420       147
28.430       100
28.440       167
28.450       100
28.460       127
28.470        93
28.480       120
28.490       120
28.500       127
28.510       193
28.520       140
28.530       160
28.540       127
28.550       180
28.560       153
28.570       160
28.580       173
28.590        67
28.600       120
28.610       127
28.620       147
28.630       160
28.640        87
28.650       167
28.660        87
28.670       180
28.680       147
28.690       173
28.700       153
28.710        80
28.720       140
28.730       167
28.740       113
28.750       147
28.760        87
28.770       160
28.780       133
28.790       147
28.800       140
28.810       127
28.820       147
28.830       113
28.840       160
28.850        93
28.860       167
28.870       113
28.880       207
28.890       160
28.900       147
28.910       173
28.920       107
28.930       193
28.940        33
28.950       140
28.960       147
28.970       127
28.980       140
28.990       193
29.000       200
29.010       153
29.020       133
29.030       153
29.040       140
29.050        93
29.060       127
29.070        67
29.080       100
29.090       147
29.100       140
29.110       173
29.120       113
29.130       153
29.140        67
29.150       133
29.160       220
29.170       107
29.180       133
29.190       113
29.200       120
29.210       180
29.220       207
29.230       147
29.240       173
29.250       193
29.260        93
29.270       140
29.280       113
29.290       107
29.300       133
29.310       140
29.320       153
29.330       140
29.340       113
29.350       127
29.360       133
29.370       113
29.380       147
29.390       180
29.400        93
29.410       133
29.420       153
29.430       127
29.440       147
29.450       133
29.460       120
29.470       120
29.480       180
29.490       127
29.500        80
29.510       100
29.520       140
29.530       127
29.540       140
29.550       140
29.560       167
29.570        93
29.580       153
29.590       120
29.600       153
29.610       160
29.620       153
29.630       133
29.640       253
29.650       107
29.660        87
29.670       120
29.680       127
29.690       113
29.700       127
29.710       120
29.720       107
29.730       113
29.740       227
29.750       133
29.760       147
29.770        73
29.780        87
29.790       133
29.800       100
29.810       147
29.820        60
29.830       140
29.840       153
29.850       140
29.860       113
29.870       167
29.880       187
29.890        80
29.900       127
29.910       167
29.920       140
29.930       127
29.940       133
29.950       153
29.960       187
29.970       153
29.980       107
29.990       160
30.000       140
30.010       153
30.020       140
30.030       180
30.040       140
30.050       107
30.060       107
30.070       153
30.080       160
30.090       133
30.100       140
30.110       160
30.120       153
30.130       160
30.140       140
30.150       127
30.160       173
30.170       100
30.180       153
30.190       167
30.200       167
30.210       200
30.220       120
30.230       147
30.240       153
30.250       133
30.260       120
30.270       127
30.280        87
30.290       180
30.300       127
30.310        80
30.320       120
30.330       120
30.340       120
30.350       147
30.360       173
30.370       100
30.380       147
30.390       147
30.400       140
30.410       107
30.420       107
30.430       113
30.440       167
30.450       120
30.460       207
30.470       133
30.480       227
30.490       113
30.500       147
30.510       160
30.520       113
30.530       140
30.540       133
30.550       167
30.560       180
30.570       180
30.580       160
30.590       247
30.600       173
30.610       147
30.620       207
30.630       253
30.640       273
30.650       267
30.660       240
30.670       313
30.680       313
30.690       360
30.700       433
30.710       367
30.720       440
30.730       513
30.740       413
30.750       640
30.760       660
30.770       866
30.780       626
30.790       946
30.800      1093
30.810       993
30.820      1226
30.830      1446
30.840      1746
30.850      1913
30.860      2292
30.870      2739
30.880      3012
30.890      2985
30.900      3272
30.910      3785
30.920      3878
30.930      3925
30.940      4232
30.950      3878
30.960      3778
30.970      3752
30.980      3165
30.990      3292
31.000      2839
31.010      2406
31.020      2332
31.030      1866
31.040      1759
31.050      1479
31.060      1146
31.070      1060
31.080       840
31.090       706
31.100       526
31.110       446
31.120       387
31.130       393
31.140       293
31.150       227
31.160       200
31.170       240
31.180       220
31.190       220
31.200       207
31.210       180
31.220       180
31.230       147
31.240       240
31.250       187
31.260       173
31.270       187
31.280       167
31.290        80
31.300       160
31.310       153
31.320       127
31.330       113
31.340       127
31.350       140
31.360       133
31.370       153
31.380       160
31.390       113
31.400       107
31.410       167
31.420       153
31.430       147
31.440       173
31.450       113
31.460       127
31.470       133
31.480       147
31.490        93
31.500        73
31.510       107
31.520       100
31.530       160
31.540       100
31.550       120
31.560       160
31.570       140
31.580       100
31.590       133
31.600       100
31.610        73
31.620       120
31.630       160
31.640       133
31.650        87
31.660       120
31.670       100
31.680       173
31.690        80
31.700       120
31.710       107
31.720       140
31.730        87
31.740       133
31.750        93
31.760        67
31.770       167
31.780        67
31.790       127
31.800       120
31.810       100
31.820        67
31.830       120
31.840       173
31.850       107
31.860        60
31.870       147
31.880       100
31.890       113
31.900       133
31.910        93
31.920       120
31.930        47
31.940        73
31.950       140
31.960       100
31.970        80
31.980        87
31.990       120
32.000       127
32.010       140
32.020        67
32.030       100
32.040       107
32.050        73
32.060        93
32.070       100
32.080       107
32.090       100
32.100       107
32.110        80
32.120       107
32.130       107
32.140       113
32.150       120
32.160       100
32.170        60
32.180       107
32.190        73
32.200       100
32.210       127
32.220        93
32.230       107
32.240       127
32.250        80
32.260       107
32.270        93
32.280       107
32.290        47
32.300       100
32.310       120
32.320        87
32.330        73
32.340        80
32.350       100
32.360       100
32.370        80
32.380        80
32.390       120
32.400        73
32.410       120
32.420        73
32.430        80
32.440       113
32.450        67
32.460        53
32.470        53
32.480        93
32.490        67
32.500        93
32.510        47
32.520        93
32.530        80
32.540        93
32.550       113
32.560        67
32.570       147
32.580        60
32.590       113
32.600        73
32.610        80
32.620        47
32.630        93
32.640        73
32.650       133
32.660       127
32.670        53
32.680        80
32.690        93
32.700        60
32.710        67
32.720       120
32.730        40
32.740        60
32.750        60
32.760        87
32.770        73
32.780        80
32.790        60
32.800       100
32.810       107
32.820        47
32.830       107
32.840        40
32.850       153
32.860        93
32.870        87
32.880        73
32.890        53
32.900        73
32.910        67
32.920        93
32.930        60
32.940        80
32.950       113
32.960        53
32.970        47
32.980        67
32.990        40
33.000        80
33.010        87
33.020        80
33.030        53
33.040        93
33.050        80
33.060       147
33.070        87
33.080       107
33.090       107
33.100        73
33.110        60
33.120        87
33.130        73
33.140       100
33.150        73
33.160        40
33.170        87
33.180        73
33.190        87
33.200        87
33.210        53
33.220       140
33.230        87
33.240        80
33.250        47
33.260        93
33.270       107
33.280        93
33.290        87
33.300       120
33.310       100
33.320       107
33.330       107
33.340        80
33.350       107
33.360        40
33.370       100
33.380        93
33.390       107
33.400       113
33.410       107
33.420       100
33.430        67
33.440        93
33.450       100
33.460       113
33.470       100
33.480       100
33.490        53
33.500        47
33.510        33
33.520        73
33.530        87
33.540        40
33.550        47
33.560        87
33.570       100
33.580        80
33.590        87
33.600        67
33.610        87
33.620        80
33.630        93
33.640        73
33.650       107
33.660        73
33.670        67
33.680        60
33.690        80
33.700        87
33.710        87
33.720        47
33.730        60
33.740        73
33.750        87
33.760        80
33.770        67
33.780        87
33.790        87
33.800        53
33.810       107
33.820        80
33.830        80
33.840       100
33.850        60
33.860        40
33.870        40
33.880        80
33.890        53
33.900       100
33.910        87
33.920        67
33.930        53
33.940        60
33.950       133
33.960        80
33.970        27
33.980       107
33.990        53
34.000        87
34.010       113
34.020       140
34.030        60
34.040        53
34.050       113
34.060        87
34.070        67
34.080       133
34.090        73
34.100        80
34.110        60
34.120        67
34.130        67
34.140        53
34.150        73
34.160        73
34.170        93
34.180        67
34.190        93
34.200       107
34.210       153
34.220        67
34.230        80
34.240       100
34.250       113
34.260        80
34.270        53
34.280        67
34.290        53
34.300       100
34.310        93
34.320        53
34.330       100
34.340        67
34.350        33
34.360        80
34.370        73
34.380        40
34.390        67
34.400        80
34.410       107
34.420        67
34.430        53
34.440        27
34.450        80
34.460        87
34.470        53
34.480        60
34.490        93
34.500        67
34.510       107
34.520        80
34.530        20
34.540        67
34.550        73
34.560        13
34.570        73
34.580        87
34.590        80
34.600       113
34.610        40
34.620        60
34.630        80
34.640        73
34.650        53
34.660        73
34.670       113
34.680        60
34.690        60
34.700        67
34.710        80
34.720        53
34.730        47
34.740        80
34.750        60
34.760        87
34.770        73
34.780        80
34.790        80
34.800        73
34.810        87
34.820        73
34.830        53
34.840        67
34.850        67
34.860        60
34.870        47
34.880        93
34.890        53
34.900        60
34.910        87
34.920        40
34.930        80
34.940        53
34.950       100
34.960        53
34.970        93
34.980        87
34.990        60
35.000        60
35.010        80
35.020        67
35.030        93
35.040        80
35.050        53
35.060        67
35.070        53
35.080        47
35.090        40
35.100       100
35.110       113
35.120        60
35.130        73
35.140        33
35.150        47
35.160        60
35.170        87
35.180        60
35.190        20
35.200       113
35.210        67
35.220        87
35.230        33
35.240        60
35.250        47
35.260        60
35.270        73
35.280        40
35.290        80
35.300        53
35.310        27
35.320        67
35.330        73
35.340        53
35.350        80
35.360        87
35.370        93
35.380        53
35.390        40
35.400        53
35.410        80
35.420        67
35.430       100
35.440        93
35.450        67
35.460        60
35.470        73
35.480        73
35.490        87
35.500       107
35.510        93
35.520        87
35.530        60
35.540        93
35.550        67
35.560        47
35.570        67
35.580        60
35.590        80
35.600        53
35.610        53
35.620       100
35.630        60
35.640        80
35.650        33
35.660        47
35.670        73
35.680       100
35.690        60
35.700        27
35.710        67
35.720        67
35.730       113
35.740        47
35.750        53
35.760        60
35.770        60
35.780        93
35.790        53
35.800        60
35.810        87
35.820        67
35.830        87
35.840        27
35.850        40
35.860        73
35.870       147
35.880        20
35.890       127
35.900        47
35.910        47
35.920        47
35.930        60
35.940        40
35.950        60
35.960        47
35.970        33
35.980        73
35.990        40
36.000        73
36.010        67
36.020        73
36.030        27
36.040       107
36.050        60
36.060        53
36.070        73
36.080        47
36.090        40
36.100        60
36.110        87
36.120        60
36.130       100
36.140        67
36.150        67
36.160        67
36.170        47
36.180        27
36.190        80
36.200        73
36.210        67
36.220        80
36.230        53
36.240        60
36.250        47
36.260        47
36.270        93
36.280        40
36.290        87
36.300        40
36.310       107
36.320        60
36.330        53
36.340       120
36.350        40
36.360        33
36.370        47
36.380        73
36.390        33
36.400        47
36.410        27
36.420        20
36.430        53
36.440        87
36.450        53
36.460        60
36.470        87
36.480        40
36.490        33
36.500        60
36.510        53
36.520        73
36.530       120
36.540        60
36.550        80
36.560        53
36.570        87
36.580        73
36.590        40
36.600        33
36.610        47
36.620        47
36.630        40
36.640        80
36.650        87
36.660        33
36.670        47
36.680        67
36.690        53
36.700        53
36.710        53
36.720        53
36.730        47
36.740        13
36.750        80
36.760        47
36.770        60
36.780        60
36.790        27
36.800        73
36.810        60
36.820        87
36.830        67
36.840        60
36.850        33
36.860       100
36.870        73
36.880        73
36.890        67
36.900        80
36.910        40
36.920       100
36.930        40
36.940        60
36.950        47
36.960        53
36.970        53
36.980        47
36.990        80
37.000        87
37.010        67
37.020        53
37.030        53
37.040        40
37.050        67
37.060        60
37.070        47
37.080        60
37.090        60
37.100        87
37.110        60
37.120        80
37.130        40
37.140        53
37.150        73
37.160        53
37.170        40
37.180        40
37.190        60
37.200        33
37.210        40
37.220        33
37.230        67
37.240        47
37.250        67
37.260        80
37.270        60
37.280        40
37.290        73
37.300        47
37.310        33
37.320        40
37.330        47
37.340        87
37.350        33
37.360        67
37.370        60
37.380        27
37.390        40
37.400        80
37.410        47
37.420        47
37.430        60
37.440        40
37.450        73
37.460        60
37.470        67
37.480        47
37.490        67
37.500        47
37.510        27
37.520        67
37.530        47
37.540        53
37.550       100
37.560        47
37.570        47
37.580        80
37.590        60
37.600        67
37.610        80
37.620        67
37.630        60
37.640        73
37.650        80
37.660        47
37.670        80
37.680        87
37.690        47
37.700        80
37.710        80
37.720        53
37.730        73
37.740        60
37.750        73
37.760        73
37.770        67
37.780        60
37.790        87
37.800        80
37.810        87
37.820        47
37.830       100
37.840        67
37.850        53
37.860        73
37.870        87
37.880        73
37.890        60
37.900        33
37.910        73
37.920        67
37.930        33
37.940        53
37.950        40
37.960        73
37.970        60
37.980        73
37.990        87
38.000        53
38.010        93
38.020       153
38.030        93
38.040       127
38.050        47
38.060       100
38.070        53
38.080        93
38.090        87
38.100       107
38.110       100
38.120       120
38.130       173
38.140       100
38.150        93
38.160       173
38.170       113
38.180       127
38.190        47
38.200       100
38.210       133
38.220       107
38.230        93
38.240        60
38.250        73
38.260        67
38.270        87
38.280        73
38.290       133
38.300       113
38.310       100
38.320       107
38.330       107
38.340        80
38.350        60
38.360        87
38.370        93
38.380       100
38.390        80
38.400       107
38.410        47
38.420        80
38.430       100
38.440       120
38.450        53
38.460       100
38.470        80
38.480       100
38.490        80
38.500        87
38.510       120
38.520       113
38.530       100
38.540        80
38.550        53
38.560        93
38.570        67
38.580       107
38.590        60
38.600        80
38.610       120
38.620       113
38.630        40
38.640        80
38.650        93
38.660        60
38.670       127
38.680       113
38.690        53
38.700        60
38.710        60
38.720        53
38.730        60
38.740        67
38.750        40
38.760        60
38.770        73
38.780        27
38.790        53
38.800        73
38.810        53
38.820        67
38.830        40
38.840        67
38.850        60
38.860        33
38.870        40
38.880        67
38.890        40
38.900        20
38.910        67
38.920        73
38.930        87
38.940        67
38.950        27
38.960        47
38.970        53
38.980        60
38.990        27
39.000        33
39.010        53
39.020        40
39.030        47
39.040        27
39.050        67
39.060        47
39.070        27
39.080        33
39.090        53
39.100        33
39.110        47
39.120        33
39.130        47
39.140        60
39.150        60
39.160        40
39.170        13
39.180        47
39.190        60
39.200        60
39.210        73
39.220        53
39.230        47
39.240        13
39.250        47
39.260        60
39.270        40
39.280        47
39.290        27
39.300         7
39.310        53
39.320        53
39.330        53
39.340        60
39.350        53
39.360        33
39.370        53
39.380        33
39.390        60
39.400        40
39.410        67
39.420        27
39.430        60
39.440        47
39.450        40
39.460        40
39.470        13
39.480        47
39.490        13
39.500        53
39.510        27
39.520        33
39.530        13
39.540        27
39.550        20
39.560        40
39.570        67
39.580        27
39.590        27
39.600        60
39.610        33
39.620        40
39.630        47
39.640        33
39.650        60
39.660        27
39.670        47
39.680        33
39.690        20
39.700        33
39.710        33
39.720        27
39.730        27
39.740        27
39.750        40
39.760        20
39.770        60
39.780        53
39.790        27
39.800        40
39.810        33
39.820        33
39.830        53
39.840        33
39.850        20
39.860        47
39.870        20
39.880        40
39.890        40
39.900        27
39.910        27
39.920        47
39.930         7
39.940        33
39.950        53
39.960        33
39.970        13
39.980        53
39.990        53
40.000        40
40.010        33
40.020        13
40.030        40
40.040        13
40.050        13
40.060        13
40.070        53
40.080        20
40.090        33
40.100        20
40.110        53
40.120        13
40.130        53
40.140        53
40.150        33
40.160        20
40.170        47
40.180        80
40.190        67
40.200        33
40.210        27
40.220        40
40.230        33
40.240        53
40.250        33
40.260        40
40.270        53
40.280        47
40.290        27
40.300        40
40.310        53
40.320        27
40.330        40
40.340        40
40.350        27
40.360        40
40.370         0
40.380        33
40.390        40
40.400        53
40.410        27
40.420        20
40.430        53
40.440        67
40.450        27
40.460        73
40.470        40
40.480        33
40.490        27
40.500        60
40.510        60
40.520        60
40.530        33
40.540         0
40.550        47
40.560        20
40.570        13
40.580        60
40.590        20
40.600        47
40.610        13
40.620        47
40.630        40
40.640        40
40.650        53
40.660        47
40.670        20
40.680        27
40.690        53
40.700        33
40.710        27
40.720        40
40.730        47
40.740        33
40.750        60
40.760        60
40.770        20
40.780        13
40.790        87
40.800        33
40.810        13
40.820        33
40.830        53
40.840         7
40.850        27
40.860        60
40.870        73
40.880        27
40.890        33
40.900        47
40.910        33
40.920        33
40.930        20
40.940         7
40.950        33
40.960        47
40.970        40
40.980        40
40.990        20
41.000        40
41.010        47
41.020        67
41.030        40
41.040        27
41.050        53
41.060         7
41.070        40
41.080        47
41.090        20
41.100        27
41.110        33
41.120        33
41.130        27
41.140        47
41.150        80
41.160        13
41.170        20
41.180        53
41.190        53
41.200        47
41.210        13
41.220        87
41.230        33
41.240        33
41.250        33
41.260        33
41.270        27
41.280        40
41.290        60
41.300        20
41.310        40
41.320        27
41.330        33
41.340        40
41.350        20
41.360        27
41.370        40
41.380        20
41.390        20
41.400        73
41.410        40
41.420        60
41.430        13
41.440        40
41.450        53
41.460        33
41.470        47
41.480        27
41.490        13
41.500        20
41.510        33
41.520        47
41.530        40
41.540        33
41.550        13
41.560         0
41.570        33
41.580        20
41.590        40
41.600        20
41.610        13
41.620        33
41.630        40
41.640        33
41.650        53
41.660        47
41.670        20
41.680        27
41.690        47
41.700        13
41.710        33
41.720        33
41.730        53
41.740        27
41.750        53
41.760        20
41.770        73
41.780        40
41.790        33
41.800        33
41.810        60
41.820        40
41.830        33
41.840        33
41.850        40
41.860        20
41.870        40
41.880        33
41.890        87
41.900        40
41.910        40
41.920        53
41.930        53
41.940        47
41.950        40
41.960        40
41.970        53
41.980        47
41.990        20
42.000         7
42.010        27
42.020        47
42.030        40
42.040        40
42.050        47
42.060        27
42.070        20
42.080        47
42.090        33
42.100        27
42.110        47
42.120        33
42.130        33
42.140        20
42.150        20
42.160        60
42.170        33
42.180        40
42.190        13
42.200        47
42.210        40
42.220        80
42.230        60
42.240        20
42.250        40
42.260        40
42.270         7
42.280        13
42.290        53
42.300        67
42.310        20
42.320        33
42.330        40
42.340        13
42.350        47
42.360        40
42.370        47
42.380        47
42.390        27
42.400        33
42.410        20
42.420        27
42.430        27
42.440        33
42.450        27
42.460        40
42.470        27
42.480        27
42.490        47
42.500        40
42.510        47
42.520        33
42.530        13
42.540        40
42.550        13
42.560        40
42.570        27
42.580        47
42.590        73
42.600        20
42.610        20
42.620        73
42.630        67
42.640        33
42.650        40
42.660        13
42.670        33
42.680        20
42.690         7
42.700        40
42.710        20
42.720        20
42.730        47
42.740        47
42.750        40
42.760        47
42.770        33
42.780        80
42.790        40
42.800        33
42.810        20
42.820        27
42.830        27
42.840        40
42.850        53
42.860        40
42.870        20
42.880        47
42.890        27
42.900        27
42.910        47
42.920        47
42.930        53
42.940        67
42.950        27
42.960        33
42.970        13
42.980        20
42.990        93
43.000        20
43.010        67
43.020        73
43.030        33
43.040        13
43.050         7
43.060        40
43.070        40
43.080        13
43.090        27
43.100        27
43.110        53
43.120        33
43.130        20
43.140        40
43.150        20
43.160        40
43.170        27
43.180        53
43.190        27
43.200        27
43.210         7
43.220        67
43.230         7
43.240        33
43.250        53
43.260        27
43.270        33
43.280        33
43.290        20
43.300        20
43.310        33
43.320        27
43.330        67
43.340        67
43.350        13
43.360        27
43.370        33
43.380        73
43.390        40
43.400        13
43.410        47
43.420        40
43.430        40
43.440        13
43.450        27
43.460        33
43.470        33
43.480        60
43.490        40
43.500        33
43.510        20
43.520        27
43.530        27
43.540         7
43.550        33
43.560        20
43.570        33
43.580        20
43.590        47
43.600        40
43.610        40
43.620        53
43.630        13
43.640        40
43.650        40
43.660        13
43.670        47
43.680        20
43.690        73
43.700        60
43.710        40
43.720        20
43.730        47
43.740        53
43.750        40
43.760        27
43.770        27
43.780        13
43.790        27
43.800        27
43.810        40
43.820        53
43.830        53
43.840        40
43.850        40
43.860         7
43.870        27
43.880        40
43.890        27
43.900        40
43.910        20
43.920        40
43.930        47
43.940        40
43.950        47
43.960        47
43.970        33
43.980        47
43.990        53
44.000        73
44.010        67
44.020        27
44.030        33
44.040        27
44.050        47
44.060        27
44.070        53
44.080        60
44.090        53
44.100        20
44.110        27
44.120        33
44.130        33
44.140        47
44.150        40
44.160        27
44.170        20
44.180        20
44.190        13
44.200        27
44.210        20
44.220        20
44.230        20
44.240        13
44.250        33
44.260        27
44.270        33
44.280        33
44.290        40
44.300        47
44.310        40
44.320        33
44.330        27
44.340        20
44.350        40
44.360        60
44.370        13
44.380        27
44.390        33
44.400        27
44.410        27
44.420        20
44.430        13
44.440        33
44.450        20
44.460        27
44.470        13
44.480        20
44.490        20
44.500        40
44.510        13
44.520        47
44.530        33
44.540         0
44.550        20
44.560        27
44.570        13
44.580        40
44.590        40
44.600        20
44.610        27
44.620        20
44.630        27
44.640        20
44.650        27
44.660        53
44.670        27
44.680        60
44.690        13
44.700        20
44.710        27
44.720         7
44.730        33
44.740        53
44.750        13
44.760        27
44.770        27
44.780        47
44.790        33
44.800        20
44.810        47
44.820        33
44.830        27
44.840        27
44.850        53
44.860        40
44.870        40
44.880        40
44.890        33
44.900        27
44.910        33
44.920        47
44.930        33
44.940        73
44.950        33
44.960        53
44.970        20
44.980        27
44.990        40
45.000        47
45.010        53
45.020        33
45.030        20
45.040        33
45.050        33
45.060        40
45.070        60
45.080        27
45.090         0
45.100        53
45.110         7
45.120        67
45.130        27
45.140        33
45.150        33
45.160        27
45.170        40
45.180        33
45.190        40
45.200        13
45.210        13
45.220        53
45.230        33
45.240        13
45.250        27
45.260        33
45.270        20
45.280        20
45.290        33
45.300        20
45.310        13
45.320        13
45.330        40
45.340        33
45.350        40
45.360        40
45.370        53
45.380        13
45.390        27
45.400        40
45.410        53
45.420        13
45.430        33
45.440        27
45.450        53
45.460         7
45.470        53
45.480        40
45.490        47
45.500        40
45.510        40
45.520        20
45.530        20
45.540        13
45.550        13
45.560        33
45.570        60
45.580        33
45.590        47
45.600        27
45.610        47
45.620        47
45.630        27
45.640        47
45.650        33
45.660        40
45.670        40
45.680        27
45.690        40
45.700         0
45.710        27
45.720        27
45.730        27
45.740        33
45.750        27
45.760        20
45.770        27
45.780        40
45.790        33
45.800        27
45.810        47
45.820        47
45.830        33
45.840        33
45.850        40
45.860        20
45.870        40
45.880        60
45.890        53
45.900        27
45.910        33
45.920        47
45.930        27
45.940        33
45.950        33
45.960        60
45.970        47
45.980        33
45.990         7
46.000        53
46.010        20
46.020        33
46.030        27
46.040        33
46.050        20
46.060        13
46.070        27
46.080        27
46.090        47
46.100        27
46.110        27
46.120        27
46.130        13
46.140        33
46.150        33
46.160        33
46.170        27
46.180        53
46.190        20
46.200        20
46.210         7
46.220        20
46.230        33
46.240        13
46.250        53
46.260        20
46.270        33
46.280        33
46.290        20
46.300        27
46.310        27
46.320        27
46.330        13
46.340        40
46.350        27
46.360        53
46.370        13
46.380        53
46.390        47
46.400        33
46.410        27
46.420        47
46.430        67
46.440        40
46.450        27
46.460        40
46.470        67
46.480        13
46.490        13
46.500        27
46.510        33
46.520        33
46.530        40
46.540        53
46.550        40
46.560        33
46.570        40
46.580        33
46.590        33
46.600        13
46.610        53
46.620        40
46.630        93
46.640        40
46.650        33
46.660        40
46.670        13
46.680        53
46.690        40
46.700        13
46.710        33
46.720        13
46.730        73
46.740        53
46.750        13
46.760        33
46.770        40
46.780        47
46.790        60
46.800        40
46.810        47
46.820        27
46.830        47
46.840        67
46.850        60
46.860        33
46.870        67
46.880        33
46.890        60
46.900        40
46.910        67
46.920        47
46.930        80
46.940        20
46.950        33
46.960        40
46.970        60
46.980        40
46.990        20
47.000        73
47.010        67
47.020        27
47.030        53
47.040        73
47.050        47
47.060        40
47.070        53
47.080        67
47.090        40
47.100        60
47.110        80
47.120        27
47.130        60
47.140        73
47.150        53
47.160        73
47.170        67
47.180        87
47.190       127
47.200       147
47.210       213
47.220       320
47.230       446
47.240       520
47.250       560
47.260       460
47.270       486
47.280       413
47.290       387
47.300       247
47.310       253
47.320       140
47.330       107
47.340        93
47.350        73
47.360       133
47.370       127
47.380       107
47.390        60
47.400        73
47.410        40
47.420        67
47.430        73
47.440        67
47.450        40
47.460        27
47.470        27
47.480        27
47.490        87
47.500        53
47.510        33
47.520        47
47.530        47
47.540        33
47.550        20
47.560        53
47.570        47
47.580        33
47.590        47
47.600        60
47.610        53
47.620        53
47.630        53
47.640        40
47.650        40
47.660        40
47.670        33
47.680        27
47.690        67
47.700        67
47.710        33
47.720        73
47.730        47
47.740        80
47.750        47
47.760        40
47.770        60
47.780        40
47.790        40
47.800        20
47.810        33
47.820        20
47.830        40
47.840        13
47.850        40
47.860        20
47.870        33
47.880        33
47.890        27
47.900        47
47.910        40
47.920        47
47.930        40
47.940        47
47.950        13
47.960        33
47.970        47
47.980        13
47.990         0
48.000        27
48.010        60
48.020        27
48.030        47
48.040        33
48.050        27
48.060        53
48.070        53
48.080        40
48.090        53
48.100        20
48.110        47
48.120        13
48.130        27
48.140        33
48.150         0
48.160        33
48.170         7
48.180        33
48.190        40
48.200        33
48.210        27
48.220        53
48.230        27
48.240        53
48.250        27
48.260        33
48.270        40
48.280        13
48.290        20
48.300        27
48.310        80
48.320        40
48.330        20
48.340        13
48.350        33
48.360        40
48.370        27
48.380        20
48.390        40
48.400        27
48.410        33
48.420        20
48.430        53
48.440        47
48.450        40
48.460        53
48.470         7
48.480        27
48.490        20
48.500        47
48.510        40
48.520         7
48.530        20
48.540        73
48.550        40
48.560        20
48.570        40
48.580        33
48.590         7
48.600        13
48.610        27
48.620        67
48.630        20
48.640        27
48.650        47
48.660        53
48.670        13
48.680        67
48.690        27
48.700        67
48.710        40
48.720        20
48.730        27
48.740        33
48.750        27
48.760        33
48.770        13
48.780        47
48.790        33
48.800        40
48.810        33
48.820         7
48.830        40
48.840        13
48.850         7
48.860        13
48.870        33
48.880        33
48.890        47
48.900        40
48.910        20
48.920        67
48.930        47
48.940        47
48.950        73
48.960        67
48.970        33
48.980        33
48.990        20
49.000        33
49.010        40
49.020        47
49.030        53
49.040        33
49.050        47
49.060        33
49.070        20
49.080        47
49.090        20
49.100        20
49.110        53
49.120        47
49.130        67
49.140        13
49.150        27
49.160        13
49.170        27
49.180        20
49.190        80
49.200        40
49.210        47
49.220        33
49.230        47
49.240        33
49.250        40
49.260        67
49.270        47
49.280        60
49.290        40
49.300        40
49.310         7
49.320        60
49.330        27
49.340        33
49.350        13
49.360        27
49.370        20
49.380        27
49.390        27
49.400        33
49.410        40
49.420        33
49.430        20
49.440        20
49.450        13
49.460        40
49.470        33
49.480        33
49.490        53
49.500        67
49.510        27
49.520        40
49.530        47
49.540        80
49.550        33
49.560        47
49.570        20
49.580        20
49.590        53
49.600        47
49.610        20
49.620        47
49.630        47
49.640        53
49.650        47
49.660        53
49.670        40
49.680        47
49.690        73
49.700         7
49.710        67
49.720         7
49.730        40
49.740        60
49.750        33
49.760        27
49.770        13
49.780        67
49.790        20
49.800        53
49.810        33
49.820        40
49.830        33
49.840        47
49.850        27
49.860        47
49.870        40
49.880        20
49.890        33
49.900        53
49.910        40
49.920         7
49.930        67
49.940        40
49.950        33
49.960         7
49.970        27
49.980        53
49.990        13
50.000         0
50.010        40
50.020        27
50.030        47
50.040        33
50.050        40
50.060        33
50.070         7
50.080        33
50.090        33
50.100        40
50.110        20
50.120        40
50.130        40
50.140         7
50.150         7
50.160        40
50.170        47
50.180        20
50.190        27
50.200        27
50.210         7
50.220        47
50.230        27
50.240        33
50.250        27
50.260        47
50.270        40
50.280        27
50.290        27
50.300        40
50.310        60
50.320        27
50.330        47
50.340        60
50.350        20
50.360        33
50.370        27
50.380        40
50.390        33
50.400        53
50.410        20
50.420        40
50.430        33
50.440        47
50.450        20
50.460        20
50.470        40
50.480        67
50.490        40
50.500         7
50.510        47
50.520        60
50.530        53
50.540        27
50.550        20
50.560        67
50.570        47
50.580        67
50.590        40
50.600        33
50.610        33
50.620        27
50.630        27
50.640        27
50.650        33
50.660        40
50.670        27
50.680        47
50.690        33
50.700        27
50.710        53
50.720        67
50.730        67
50.740        87
50.750        93
50.760       107
50.770        87
50.780       100
50.790       120
50.800       147
50.810       140
50.820       113
50.830       167
50.840       147
50.850       113
50.860       100
50.870       113
50.880       167
50.890       100
50.900       113
50.910       107
50.920       113
50.930       180
50.940       147
50.950       160
50.960       133
50.970       127
50.980       147
50.990       153
51.000       100
51.010       120
51.020        73
51.030       120
51.040        93
51.050       120
51.060       100
51.070       133
51.080       187
51.090       127
51.100       133
51.110       120
51.120       127
51.130       153
51.140       140
51.150       140
51.160       107
51.170       120
51.180       187
51.190       120
51.200       140
51.210       173
51.220       120
51.230       140
51.240       173
51.250       153
51.260       127
51.270       180
51.280       147
51.290       140
51.300       120
51.310       100
51.320       200
51.330       107
51.340       120
51.350       127
51.360       147
51.370       180
51.380       113
51.390       193
51.400       147
51.410       147
51.420       100
51.430       127
51.440       100
51.450       100
51.460        93
51.470       120
51.480       153
51.490       113
51.500       160
51.510       167
51.520       167
51.530       167
51.540       107
51.550       127
51.560       147
51.570       140
51.580       133
51.590       127
51.600       180
51.610       207
51.620       160
51.630       140
51.640       113
51.650       133
51.660       127
51.670       147
51.680       113
51.690       173
51.700       100
51.710        73
51.720       120
51.730       173
51.740       107
51.750       180
51.760       107
51.770       107
51.780       147
51.790       167
51.800       140
51.810        87
51.820       200
51.830       173
51.840       147
51.850       180
51.860       153
51.870       133
51.880       220
51.890       173
51.900       180
51.910       113
51.920       160
51.930       160
51.940       127
51.950       200
51.960       227
51.970       113
51.980       160
51.990       213
52.000       167
52.010       180
52.020       200
52.030       207
52.040       187
52.050       160
52.060       167
52.070       187
52.080       140
52.090       147
52.100       200
52.110       207
52.120       153
52.130       267
52.140       260
52.150       260
52.160       213
52.170       253
52.180       267
52.190       193
52.200       220
52.210       207
52.220       260
52.230       273
52.240       213
52.250       320
52.260       267
52.270       320
52.280       300
52.290       207
52.300       273
52.310       360
52.320       380
52.330       493
52.340       393
52.350       433
52.360       493
52.370       653
52.380       753
52.390       706
52.400       786
52.410       766
52.420       753
52.430       906
52.440       913
52.450       986
52.460       926
52.470       840
52.480      1106
52.490       940
52.500       886
52.510      1086
52.520      1366
52.530      1619
52.540      1913
52.550      2586
52.560      2945
52.570      3539
52.580      4605
52.590      6031
52.600      9316
52.610     17313
52.620     27796
52.630     38725
52.640     49920
52.650     56531
52.660     59116
52.670     59036
52.680     55798
52.690     46308
52.700     33973
52.710     22011
52.720     14414
52.730     10822
52.740     10016
52.750     12762
52.760     17540
52.770     22818
52.780     28489
52.790     30928
52.800     31587
52.810     31501
52.820     30434
52.830     24583
52.840     17340
52.850     11542
52.860      7177
52.870      4758
52.880      3639
52.890      2879
52.900      2419
52.910      2292
52.920      2272
52.930      1906
52.940      1693
52.950      1546
52.960      1313
52.970      1126
52.980       913
52.990       706
53.000       646
53.010       526
53.020       373
53.030       473
53.040       453
53.050       446
53.060       526
53.070       280
53.080       393
53.090       433
53.100       240
53.110       313
53.120       287
53.130       327
53.140       407
53.150       300
53.160       300
53.170       293
53.180       307
53.190       213
53.200       280
53.210       227
53.220       173
53.230       213
53.240       300
53.250       247
53.260       180
53.270       220
53.280       213
53.290       193
53.300       233
53.310       213
53.320       187
53.330       200
53.340       240
53.350       213
53.360       180
53.370       247
53.380       207
53.390       173
53.400       160
53.410       173
53.420       213
53.430       167
53.440       147
53.450       160
53.460       113
53.470       140
53.480       173
53.490       167
53.500       120
53.510       167
53.520       167
53.530       140
53.540       153
53.550       120
53.560       187
53.570       180
53.580       160
53.590       160
53.600       160
53.610       113
53.620       140
53.630       147
53.640       180
53.650       133
53.660       140
53.670       167
53.680       147
53.690       127
53.700       140
53.710       207
53.720       207
53.730       113
53.740       153
53.750       153
53.760        93
53.770       200
53.780       140
53.790       153
53.800       233
53.810       100
53.820       107
53.830       107
53.840        93
53.850       120
53.860       113
53.870       113
53.880        93
53.890        93
53.900       113
53.910        53
53.920       160
53.930       133
53.940       127
53.950       113
53.960       107
53.970        80
53.980       113
53.990       100
54.000       127
54.010       113
54.020       167
54.030       113
54.040        87
54.050        93
54.060       107
54.070       187
54.080       173
54.090       100
54.100       113
54.110       153
54.120       120
54.130       113
54.140       133
54.150       120
54.160       113
54.170       140
54.180       107
54.190       113
54.200       140
54.210       100
54.220       100
54.230       107
54.240       120
54.250        80
54.260        93
54.270       107
54.280       160
54.290        87
54.300       107
54.310        40
54.320       120
54.330       120
54.340        80
54.350        53
54.360        93
54.370        73
54.380       113
54.390       173
54.400       113
54.410       127
54.420        93
54.430       120
54.440        60
54.450       133
54.460       127
54.470       120
54.480        93
54.490       100
54.500       120
54.510       173
54.520       140
54.530        93
54.540        87
54.550       107
54.560        87
54.570       113
54.580        87
54.590       100
54.600        47
54.610       113
54.620       133
54.630        93
54.640       127
54.650       100
54.660        87
54.670        87
54.680        73
54.690        87
54.700       180
54.710       133
54.720        87
54.730       153
54.740        87
54.750       133
54.760       107
54.770       107
54.780        93
54.790       113
54.800        87
54.810       127
54.820       147
54.830       133
54.840       153
54.850        93
54.860       120
54.870       180
54.880       127
54.890       113
54.900       120
54.910       140
54.920        73
54.930       120
54.940       227
54.950       107
54.960       100
54.970       153
54.980       113
54.990       160
55.000       240
55.010       213
55.020       160
55.030       233
55.040       200
55.050       287
55.060       187
55.070       253
55.080       207
55.090       260
55.100       153
55.110       200
55.120       160
55.130       173
55.140       220
55.150       147
55.160       140
55.170       213
55.180       160
55.190       173
55.200       160
55.210       213
55.220       160
55.230       207
55.240       153
55.250       167
55.260       113
55.270       167
55.280       187
55.290       160
55.300       153
55.310       127
55.320       120
55.330        60
55.340       100
55.350       187
55.360        93
55.370        67
55.380        93
55.390       113
55.400        60
55.410       107
55.420       100
55.430       100
55.440       120
55.450       100
55.460       100
55.470        80
55.480       127
55.490       153
55.500       133
55.510       100
55.520        40
55.530        47
55.540        73
55.550        47
55.560       107
55.570        33
55.580        47
55.590        93
55.600        80
55.610        20
55.620        87
55.630       100
55.640       100
55.650       100
55.660        93
55.670        80
55.680        73
55.690        87
55.700        67
55.710        53
55.720        93
55.730        67
55.740        67
55.750        93
55.760        60
55.770       113
55.780        60
55.790        80
55.800       107
55.810       113
55.820        60
55.830        27
55.840       107
55.850        93
55.860       100
55.870        73
55.880        87
55.890        80
55.900        87
55.910        73
55.920        73
55.930        67
55.940       107
55.950        40
55.960        87
55.970        67
55.980       133
55.990       100
56.000       120
56.010        80
56.020       120
56.030        80
56.040        47
56.050        47
56.060        47
56.070        67
56.080        67
56.090        67
56.100        87
56.110        73
56.120        67
56.130        60
56.140        87
56.150        73
56.160        93
56.170       100
56.180        40
56.190       100
56.200        87
56.210        80
56.220        73
56.230        80
56.240        87
56.250        53
56.260        60
56.270        53
56.280        87
56.290        93
56.300        53
56.310        67
56.320       120
56.330        73
56.340        60
56.350        73
56.360       100
56.370        80
56.380        93
56.390       113
56.400        60
56.410       120
56.420       100
56.430       120
56.440        67
56.450        87
56.460       113
56.470        80
56.480        60
56.490        60
56.500        67
56.510        60
56.520        87
56.530        93
56.540        60
56.550        67
56.560        33
56.570       100
56.580        73
56.590        67
56.600        47
56.610        87
56.620        60
56.630        53
56.640        47
56.650        87
56.660        87
56.670        87
56.680        60
56.690        87
56.700        60
56.710        80
56.720        73
56.730        53
56.740        53
56.750       100
56.760       120
56.770        80
56.780        73
56.790        80
56.800        60
56.810        53
56.820        80
56.830        60
56.840       107
56.850       133
56.860        80
56.870        33
56.880        47
56.890        60
56.900        80
56.910        60
56.920        40
56.930        73
56.940       100
56.950        60
56.960        53
56.970        47
56.980        80
56.990        60
57.000       133
57.010        80
57.020        87
57.030        60
57.040       107
57.050        73
57.060        87
57.070        87
57.080        67
57.090        73
57.100        60
57.110        47
57.120        87
57.130        87
57.140        40
57.150        60
57.160        40
57.170        47
57.180        60
57.190        80
57.200        60
57.210        87
57.220        60
57.230        40
57.240        67
57.250        40
57.260        33
57.270        60
57.280        93
57.290        47
57.300        87
57.310        73
57.320        33
57.330        53
57.340        67
57.350        20
57.360        87
57.370        47
57.380        33
57.390        60
57.400        60
57.410        80
57.420        33
57.430        73
57.440        87
57.450        73
57.460        73
57.470        73
57.480        73
57.490        53
57.500        73
57.510        60
57.520        87
57.530        60
57.540        87
57.550        73
57.560        53
57.570        87
57.580        73
57.590        40
57.600        87
57.610        60
57.620        53
57.630        47
57.640        67
57.650        53
57.660       100
57.670       100
57.680        60
57.690        53
57.700        80
57.710        67
57.720        80
57.730        67
57.740        60
57.750        33
57.760       127
57.770        53
57.780        73
57.790       153
57.800        40
57.810        60
57.820        73
57.830       100
57.840        40
57.850        33
57.860        40
57.870        53
57.880        60
57.890        73
57.900        27
57.910        60
57.920        47
57.930        67
57.940        33
57.950        73
57.960        53
57.970        60
57.980        67
57.990        60
58.000       100
58.010        60
58.020        87
58.030        67
58.040        40
58.050        60
58.060        80
58.070        80
58.080        73
58.090        60
58.100        73
58.110        67
58.120        60
58.130       100
58.140        67
58.150        40
58.160        80
58.170        80
58.180        40
58.190        60
58.200        47
58.210        47
58.220        73
58.230        40
58.240        60
58.250        87
58.260        73
58.270        60
58.280        53
58.290        60
58.300        40
58.310        33
58.320        40
58.330        27
58.340        73
58.350        73
58.360       100
58.370        33
58.380        60
58.390        60
58.400        73
58.410        27
58.420        40
58.430        80
58.440        53
58.450        40
58.460        33
58.470        60
58.480        67
58.490        40
58.500        33
58.510        73
58.520        67
58.530        67
58.540        40
58.550        67
58.560        67
58.570        40
58.580        73
58.590        67
58.600        13
58.610        40
58.620        67
58.630        93
58.640        67
58.650        73
58.660        80
58.670        53
58.680        40
58.690        33
58.700        60
58.710        87
58.720        33
58.730        27
58.740        73
58.750       107
58.760        67
58.770        53
58.780        40
58.790        73
58.800        60
58.810        80
58.820        33
58.830        73
58.840        60
58.850        47
58.860        40
58.870        53
58.880        53
58.890        73
58.900        53
58.910        47
58.920        47
58.930        47
58.940        60
58.950        67
58.960        47
58.970        67
58.980        47
58.990        67
59.000        47
59.010        33
59.020        73
59.030        67
59.040       113
59.050        60
59.060        53
59.070        60
59.080        27
59.090        33
59.100        53
59.110        53
59.120        13
59.130        33
59.140        33
59.150        47
59.160        33
59.170        40
59.180        33
59.190        40
59.200        53
59.210        53
59.220        73
59.230        80
59.240        40
59.250        93
59.260        53
59.270        47
59.280        27
59.290        60
59.300        73
59.310        40
59.320        60
59.330        53
59.340        47
59.350        40
59.360        47
59.370        40
59.380        40
59.390        87
59.400        40
59.410        73
59.420        53
59.430        60
59.440        40
59.450        80
59.460        47
59.470        27
59.480        53
59.490        27
59.500        67
59.510        33
59.520        40
59.530        47
59.540        60
59.550        60
59.560        40
59.570       100
59.580        53
59.590        67
59.600        27
59.610        33
59.620        73
59.630        87
59.640        40
59.650        67
59.660        40
59.670        53
59.680        40
59.690        87
59.700        20
59.710        60
59.720        13
59.730        53
59.740        33
59.750        60
59.760        27
59.770        47
59.780        67
59.790        53
59.800        60
59.810        93
59.820        67
59.830        40
59.840        73
59.850        60
59.860        40
59.870        60
59.880        47
59.890        40
59.900        53
59.910        60
59.920        33
59.930        80
59.940       100
59.950        67
59.960        13
59.970        93
59.980        60
59.990        60
60.000        53
