20.000        40
20.020        30
20.040        43
20.060        47
20.080        47
20.100        37
20.120        40
20.140        23
20.160        47
20.180        40
20.200        53
20.220        20
20.240        70
20.260        57
20.280        43
20.300        37
20.320        40
20.340        27
20.360        37
20.380        53
20.400        43
20.420        60
20.440        33
20.460        37
20.480        23
20.500        47
20.520        33
20.540        63
20.560        30
20.580        57
20.600        23
20.620        37
20.640        17
20.660        37
20.680        13
20.700        27
20.720        73
20.740        30
20.760        40
20.780        27
20.800        60
20.820        17
20.840        63
20.860        27
20.880        50
20.900        43
20.920        37
20.940        27
20.960        47
20.980        33
21.000        40
21.020        47
21.040        27
21.060        53
21.080        37
21.100        40
21.120        27
21.140        30
21.160        27
21.180        50
21.200        40
21.220        37
21.240        60
21.260        33
21.280        63
21.300        27
21.320        27
21.340        30
21.360        37
21.380        43
21.400        30
21.420        57
21.440        47
21.460        27
21.480        13
21.500        40
21.520        47
21.540        57
21.560        27
21.580        23
21.600        27
21.620        33
21.640        40
21.660        40
21.680        23
21.700        57
21.720        27
21.740        43
21.760        43
21.780        30
21.800        30
21.820        60
21.840        60
21.860        47
21.880        50
21.900        23
21.920        23
21.940        57
21.960        33
21.980        23
22.000        40
22.020        23
22.040        27
22.060        27
22.080        33
22.100        37
22.120        37
22.140        33
22.160        53
22.180        37
22.200        40
22.220        30
22.240        23
22.260        33
22.280        53
22.300        47
22.320        40
22.340        30
22.360        40
22.380        30
22.400        40
22.420        30
22.440        30
22.460        50
22.480        30
22.500        27
22.520        33
22.540        33
22.560        33
22.580        50
22.600        50
22.620        33
22.640        23
22.660        47
22.680        30
22.700        47
22.720         7
22.740        37
22.760        37
22.780        33
22.800        43
22.820        37
22.840        40
22.860        27
22.880        23
22.900        23
22.920        23
22.940        37
22.960        20
22.980        50
23.000        33
23.020        37
23.040        23
23.060        37
23.080        33
23.100        17
23.120        47
23.140        30
23.160        33
23.180        37
23.200        33
23.220        33
23.240        20
23.260        40
23.280        30
23.300        23
23.320        40
23.340        23
23.360        47
23.380        27
23.400        20
23.420        27
23.440        47
23.460        20
23.480        30
23.500        13
23.520        23
23.540        30
23.560        37
23.580        40
23.600        30
23.620        17
23.640        33
23.660        20
23.680        53
23.700        17
23.720        23
23.740        17
23.760        53
23.780        37
23.800        40
23.820        40
23.840        37
23.860        27
23.880        23
23.900        17
23.920        50
23.940        20
23.960        33
23.980        40
24.000        23
24.020        23
24.040        43
24.060        40
24.080        27
24.100        30
24.120        10
24.140        23
24.160        27
24.180        40
24.200        13
24.220        43
24.240        23
24.260        20
24.280        37
24.300        37
24.320        30
24.340        20
24.360        23
24.380        47
24.400        17
24.420        33
24.440        27
24.460        33
24.480        23
24.500        37
24.520        30
24.540        47
24.560        37
24.580        23
24.600        37
24.620        27
24.640        27
24.660        33
24.680        27
24.700        33
24.720        30
24.740        37
24.760        27
24.780        30
24.800        20
24.820        23
24.840        37
24.860        20
24.880        37
24.900        23
24.920        53
24.940        23
24.960        27
24.980        20
25.000        23
25.020        27
25.040        27
25.060        57
25.080        40
25.100        47
25.120        37
25.140        43
25.160        23
25.180        13
25.200        40
25.220        40
25.240        27
25.260        33
25.280        27
25.300        43
25.320        23
25.340        37
25.360        23
25.380        37
25.400        47
25.420        23
25.440        43
25.460        33
25.480        53
25.500        63
25.520        43
25.540        67
25.560       107
25.580        90
25.600        63
25.620        60
25.640        83
25.660        43
25.680        47
25.700        33
25.720        43
25.740        43
25.760        37
25.780        40
25.800        43
25.820        27
25.840        20
25.860        17
25.880        17
25.900        37
25.920        50
25.940        27
25.960        40
25.980        40
26.000        10
26.020        30
26.040        30
26.060        33
26.080        30
26.100        17
26.120        27
26.140        33
26.160        23
26.180        23
26.200        23
26.220        43
26.240        27
26.260        20
26.280        50
26.300        23
26.320        27
26.340        23
26.360        33
26.380        43
26.400        33
26.420        33
26.440        50
26.460        20
26.480        30
26.500        27
26.520        33
26.540        30
26.560        27
26.580        33
26.600        30
26.620        27
26.640        27
26.660        17
26.680        20
26.700        20
26.720        27
26.740        30
26.760        27
26.780        13
26.800        30
26.820        50
26.840        33
26.860        27
26.880        40
26.900        27
26.920        40
26.940        30
26.960        27
26.980        27
27.000        50
27.020        30
27.040        20
27.060        23
27.080        27
27.100        13
27.120        33
27.140        37
27.160        20
27.180        33
27.200        23
27.220        17
27.240        23
27.260        20
27.280        23
27.300        27
27.320        23
27.340        33
27.360        30
27.380        23
27.400        27
27.420        27
27.440        43
27.460        17
27.480        13
27.500        33
27.520        20
27.540        40
27.560        33
27.580        27
27.600        30
27.620        23
27.640        10
27.660        13
27.680        20
27.700        27
27.720        27
27.740        13
27.760        17
27.780        23
27.800        37
27.820        30
27.840        20
27.860        17
27.880        37
27.900        13
27.920        33
27.940        23
27.960        30
27.980        30
28.000        23
28.020         7
28.040        30
28.060        20
28.080         7
28.100        17
28.120        20
28.140        40
28.160        30
28.180        23
28.200        37
28.220        13
28.240        20
28.260        23
28.280        23
28.300        17
28.320        27
28.340        20
28.360        17
28.380         7
28.400        17
28.420        17
28.440        27
28.460        20
28.480        33
28.500        27
28.520        17
28.540        17
28.560        17
28.580        27
28.600        17
28.620         7
28.640        27
28.660        20
28.680        10
28.700        13
28.720        33
28.740        13
28.760        23
28.780        20
28.800        23
28.820        13
28.840        17
28.860        33
28.880        17
28.900        30
28.920        30
28.940        13
28.960        30
28.980        40
29.000        13
29.020        40
29.040        30
29.060        10
29.080        27
29.100        27
29.120        17
29.140        27
29.160        30
29.180        20
29.200        13
29.220        27
29.240        27
29.260        23
29.280        17
29.300        50
29.320        13
29.340        20
29.360        30
29.380        47
29.400        23
29.420        30
29.440        10
29.460        17
29.480        47
29.500        23
29.520        20
29.540        33
29.560        10
29.580        20
29.600        20
29.620        10
29.640        13
29.660        20
29.680        23
29.700        23
29.720        20
29.740        13
29.760        40
29.780        37
29.800        20
29.820        17
29.840        30
29.860        20
29.880        23
29.900        20
29.920        37
29.940        23
29.960        27
29.980        33
30.000        20
30.020        20
30.040        27
30.060        47
30.080        20
30.100        20
30.120        17
30.140        40
30.160        20
30.180        10
30.200        20
30.220        10
30.240        27
30.260        20
30.280        37
30.300        23
30.320        17
30.340        30
30.360        23
30.380        20
30.400        17
30.420        13
30.440        20
30.460        20
30.480        17
30.500        23
30.520        30
30.540        13
30.560        27
30.580        20
30.600        37
30.620        23
30.640        40
30.660        37
30.680        37
30.700        30
30.720        33
30.740        67
30.760        53
30.780        73
30.800        90
30.820        93
30.840       130
30.860       130
30.880        83
30.900       130
30.920       130
30.940        73
30.960        73
30.980        80
31.000        37
31.020        53
31.040        43
31.060        27
31.080        10
31.100        27
31.120        30
31.140        37
31.160        33
31.180        13
31.200        23
31.220        30
31.240        20
31.260        20
31.280        30
31.300        17
31.320        33
31.340        33
31.360        13
31.380        47
31.400        27
31.420        27
31.440        27
31.460        23
31.480        33
31.500        30
31.520        27
31.540        17
31.560        17
31.580        33
31.600        23
31.620        30
31.640        20
31.660        23
31.680        23
31.700        30
31.720        20
31.740        20
31.760        13
31.780         7
31.800         7
31.820        20
31.840        33
31.860        30
31.880        27
31.900        17
31.920        10
31.940        20
31.960        17
31.980        20
32.000        20
32.020        13
32.040        13
32.060        27
32.080        20
32.100        33
32.120        17
32.140        23
32.160        17
32.180        27
32.200        17
32.220        20
32.240        23
32.260        27
32.280        23
32.300        20
32.320        17
32.340        30
32.360        37
32.380        17
32.400        20
32.420        10
32.440        30
32.460        23
32.480        10
32.500        27
32.520        20
32.540        40
32.560        30
32.580        13
32.600        13
32.620        23
32.640        13
32.660        17
32.680        20
32.700         7
32.720        17
32.740        23
32.760        10
32.780        13
32.800        23
32.820        27
32.840        30
32.860        17
32.880        17
32.900        27
32.920        13
32.940        33
32.960        30
32.980        37
33.000        20
33.020        17
33.040         7
33.060        10
33.080        10
33.100        33
33.120        20
33.140        20
33.160        17
33.180        20
33.200        20
33.220        27
33.240        13
33.260        17
33.280        27
33.300        20
33.320        30
33.340        37
33.360        27
33.380        27
33.400         7
33.420        13
33.440        17
33.460        13
33.480        23
33.500        13
33.520        30
33.540        20
33.560        20
33.580        50
33.600         3
33.620        13
33.640        20
33.660        20
33.680        30
33.700        13
33.720        10
33.740        10
33.760        13
33.780        30
33.800        20
33.820        23
33.840        27
33.860        13
33.880        20
33.900        27
33.920        27
33.940        13
33.960        23
33.980        30
34.000         3
34.020        40
34.040        30
34.060        10
34.080        17
34.100        10
34.120        27
34.140        37
34.160        30
34.180        23
34.200        10
34.220        17
34.240        40
34.260        17
34.280         7
34.300        13
34.320        30
34.340        20
34.360        10
34.380        37
34.400        17
34.420        37
34.440        13
34.460        10
34.480        37
34.500        23
34.520        23
34.540        33
34.560        23
34.580        17
34.600        17
34.620        23
34.640        37
34.660        17
34.680         7
34.700        23
34.720        13
34.740        13
34.760        20
34.780        17
34.800        10
34.820        10
34.840        27
34.860        30
34.880        30
34.900        30
34.920        27
34.940        30
34.960        37
34.980        53
35.000        40
35.020       100
35.040       113
35.060        53
35.080       107
35.100       130
35.120       143
35.140       130
35.160       160
35.180       213
35.200       150
35.220       117
35.240       117
35.260        93
35.280       123
35.300        37
35.320        33
35.340        17
35.360        33
35.380        27
35.400        33
35.420        23
35.440        27
35.460        23
35.480        13
35.500        30
35.520        17
35.540        27
35.560        17
35.580        17
35.600        17
35.620        20
35.640        20
35.660         7
35.680        13
35.700        17
35.720        37
35.740        20
35.760        13
35.780        17
35.800        13
35.820        30
35.840        10
35.860        40
35.880        13
35.900        13
35.920        33
35.940        30
35.960        13
35.980        30
36.000         7
36.020        27
36.040        40
36.060        13
36.080        27
36.100        10
36.120        27
36.140        20
36.160        37
36.180        23
36.200        27
36.220        20
36.240        37
36.260        20
36.280        17
36.300        13
36.320        30
36.340        20
36.360        33
36.380        13
36.400        23
36.420        10
36.440        27
36.460        20
36.480        27
36.500        27
36.520        27
36.540        27
36.560        37
36.580        27
36.600        17
36.620        20
36.640        20
36.660        27
36.680        17
36.700        20
36.720        30
36.740        37
36.760        20
36.780        10
36.800         7
36.820        13
36.840        13
36.860        27
36.880         7
36.900        13
36.920        27
36.940        23
36.960        27
36.980        47
37.000        30
37.020        13
37.040        23
37.060        37
37.080        13
37.100        17
37.120        17
37.140        27
37.160        20
37.180        20
37.200        30
37.220        27
37.240        13
37.260        30
37.280        10
37.300        33
37.320        17
37.340        17
37.360        27
37.380        33
37.400         7
37.420        23
37.440        17
37.460        20
37.480        30
37.500        40
37.520        30
37.540        13
37.560        13
37.580         7
37.600        30
37.620        40
37.640        20
37.660        40
37.680        27
37.700        33
37.720        30
37.740        53
37.760        57
37.780        53
37.800        47
37.820        37
37.840        67
37.860        47
37.880        23
37.900        40
37.920        27
37.940        20
37.960        40
37.980        23
38.000        17
38.020        27
38.040        23
38.060        17
38.080        10
38.100        30
38.120        13
38.140        13
38.160        23
38.180        10
38.200        30
38.220        30
38.240        17
38.260        20
38.280        27
38.300        27
38.320        10
38.340        10
38.360        20
38.380        30
38.400        37
38.420        27
38.440        27
38.460        20
38.480        20
38.500        23
38.520        33
38.540        23
38.560        20
38.580        13
38.600        13
38.620        13
38.640        27
38.660        17
38.680        20
38.700        20
38.720        13
38.740        27
38.760        20
38.780        10
38.800        23
38.820        13
38.840        27
38.860        37
38.880        20
38.900        23
38.920        27
38.940        20
38.960        30
38.980        17
39.000        20
39.020        17
39.040        17
39.060        13
39.080        13
39.100        20
39.120        10
39.140        27
39.160        27
39.180        23
39.200        43
39.220        13
39.240        27
39.260        23
39.280        23
39.300        17
39.320        23
39.340        10
39.360        37
39.380        10
39.400        10
39.420         3
39.440        20
39.460        23
39.480        23
39.500        27
39.520        30
39.540        37
39.560        30
39.580        13
39.600        37
39.620        13
39.640        13
39.660        23
39.680        20
39.700        23
39.720        13
39.740        30
39.760        13
39.780        23
39.800        13
39.820        20
39.840        33
39.860        20
39.880        17
39.900        23
39.920        27
39.940        10
39.960        17
39.980        40
40.000        33
40.020        10
40.040        20
40.060        17
40.080        37
40.100        33
40.120        20
40.140        20
40.160        13
40.180        13
40.200        27
40.220        30
40.240        23
40.260        13
40.280        17
40.300        20
40.320        23
40.340        17
40.360        10
40.380        30
40.400        17
40.420        17
40.440        23
40.460        17
40.480        23
40.500        17
40.520         7
40.540        10
40.560        40
40.580        20
40.600        10
40.620        43
40.640        20
40.660        23
40.680        17
40.700        20
40.720         3
40.740        13
40.760        10
40.780        30
40.800        17
40.820        23
40.840        20
40.860        23
40.880        37
40.900        27
40.920        27
40.940        10
40.960        17
40.980         7
41.000        20
41.020        13
41.040        23
41.060        10
41.080        13
41.100        20
41.120        20
41.140        17
41.160        27
41.180        20
41.200        10
41.220        27
41.240        20
41.260        20
41.280        20
41.300        23
41.320        20
41.340        20
41.360        20
41.380        13
41.400        23
41.420        30
41.440        33
41.460        33
41.480        33
41.500        20
41.520        40
41.540        50
41.560        67
41.580        77
41.600        73
41.620        80
41.640       140
41.660       167
41.680       210
41.700       130
41.720       163
41.740        97
41.760        87
41.780       103
41.800        77
41.820        93
41.840        57
41.860        30
41.880        27
41.900        20
41.920        30
41.940        30
41.960         3
41.980        13
42.000        17
42.020        17
42.040        17
42.060        40
42.080        17
42.100        13
42.120        23
42.140        27
42.160        37
42.180         7
42.200        27
42.220        33
42.240        17
42.260        20
42.280        23
42.300        13
42.320        20
42.340        17
42.360        37
42.380        17
42.400        30
42.420        20
42.440        10
42.460        17
42.480        17
42.500        20
42.520        17
42.540        30
42.560        33
42.580        13
42.600        10
42.620        27
42.640        17
42.660        20
42.680        23
42.700        33
42.720        33
42.740         7
42.760        27
42.780        23
42.800        20
42.820        17
42.840        13
42.860        13
42.880        23
42.900         7
42.920        17
42.940        20
42.960        27
42.980        20
43.000        40
43.020        10
43.040        23
43.060        33
43.080         7
43.100        13
43.120        27
43.140        13
43.160        20
43.180        30
43.200        20
43.220        37
43.240        57
43.260        43
43.280        33
43.300        73
43.320       107
43.340       123
43.360       210
43.380       160
43.400       110
43.420       110
43.440       127
43.460       103
43.480       110
43.500       113
43.520        57
43.540        37
43.560        20
43.580        37
43.600        30
43.620        27
43.640        30
43.660        27
43.680        17
43.700        13
43.720        20
43.740        13
43.760        10
43.780        23
43.800        17
43.820        23
43.840        17
43.860        27
43.880        17
43.900        27
43.920         7
43.940        23
43.960        23
43.980        40
44.000        23
44.020        20
44.040        23
44.060        13
44.080        13
44.100        10
44.120        30
44.140        33
44.160        23
44.180        27
44.200        17
44.220        27
44.240        17
44.260        30
44.280        23
44.300        13
44.320        20
44.340        20
44.360        40
44.380        20
44.400        30
44.420        17
44.440        10
44.460        13
44.480        17
44.500        20
44.520        33
44.540        27
44.560        27
44.580        27
44.600        20
44.620        20
44.640        20
44.660        27
44.680         7
44.700        10
44.720        23
44.740         7
44.760         7
44.780        13
44.800         7
44.820        23
44.840        17
44.860        40
44.880        23
44.900        20
44.920        13
44.940        33
44.960        17
44.980        27
45.000        23
45.020        20
45.040        27
45.060        17
45.080        17
45.100        20
45.120        23
45.140        33
45.160        27
45.180        20
45.200        20
45.220        27
45.240        13
45.260        23
45.280        23
45.300        27
45.320        20
45.340        17
45.360         7
45.380        10
45.400        27
45.420        10
45.440        23
45.460        30
45.480        27
45.500        17
45.520        30
45.540        13
45.560        20
45.580        23
45.600        13
45.620        20
45.640        10
45.660        17
45.680        30
45.700         3
45.720        30
45.740        27
45.760        13
45.780        23
45.800        10
45.820        20
45.840        20
45.860        23
45.880         7
45.900        13
45.920        13
45.940        10
45.960        10
45.980        17
46.000        27
46.020        13
46.040        10
46.060        20
46.080        37
46.100        30
46.120        20
46.140        17
46.160        10
46.180        33
46.200        37
46.220        43
46.240        37
46.260        13
46.280        13
46.300        27
46.320        17
46.340         7
46.360        20
46.380        20
46.400        27
46.420        27
46.440        23
46.460        17
46.480        13
46.500        10
46.520         3
46.540        17
46.560        23
46.580        10
46.600        17
46.620        13
46.640        17
46.660        13
46.680        23
46.700        20
46.720        17
46.740        30
46.760        17
46.780        17
46.800        37
46.820        17
46.840        17
46.860        20
46.880        20
46.900        17
46.920        10
46.940        20
46.960        10
46.980        27
47.000        23
47.020        20
47.040        10
47.060        13
47.080        27
47.100        20
47.120        10
47.140        10
47.160         3
47.180        13
47.200        30
47.220        30
47.240        33
47.260        30
47.280        37
47.300         7
47.320        20
47.340        20
47.360        13
47.380        20
47.400         7
47.420        23
47.440        10
47.460        17
47.480        20
47.500        20
47.520        13
47.540        20
47.560         3
47.580        20
47.600        17
47.620        10
47.640        33
47.660        20
47.680        17
47.700        20
47.720        17
47.740        10
47.760        13
47.780        20
47.800         3
47.820        30
47.840        17
47.860        17
47.880        23
47.900         3
47.920        10
47.940        20
47.960        20
47.980        27
48.000        30
48.020        27
48.040        23
48.060        13
48.080        20
48.100         7
48.120        20
48.140         3
48.160        20
48.180        10
48.200        17
48.220        27
48.240        23
48.260        13
48.280         7
48.300        17
48.320        20
48.340        10
48.360        17
48.380        30
48.400        17
48.420        10
48.440        17
48.460        20
48.480        13
48.500        27
48.520        10
48.540         7
48.560        17
48.580        10
48.600        20
48.620         7
48.640        13
48.660        37
48.680        20
48.700        23
48.720        13
48.740        20
48.760         3
48.780        17
48.800        10
48.820        13
48.840        20
48.860        17
48.880        10
48.900         7
48.920        30
48.940        20
48.960        37
48.980        10
49.000        13
49.020         7
49.040        20
49.060        13
49.080        13
49.100        17
49.120        20
49.140        10
49.160        13
49.180        13
49.200        10
49.220        17
49.240        30
49.260        20
49.280        20
49.300        10
49.320        27
49.340        10
49.360        20
49.380         7
49.400        13
49.420        17
49.440        13
49.460        13
49.480        13
49.500        17
49.520        17
49.540        13
49.560        20
49.580        17
49.600        27
49.620        17
49.640        27
49.660        27
49.680        10
49.700        30
49.720         7
49.740        13
49.760        23
49.780        13
49.800        17
49.820        17
49.840        27
49.860        20
49.880        13
49.900        20
49.920        17
49.940        10
49.960        17
49.980         7
50.000         7
50.020        17
50.040        20
50.060        20
50.080        13
50.100        23
50.120        30
50.140        27
50.160        27
50.180        20
50.200         7
50.220         7
50.240        27
50.260         3
50.280        17
50.300         7
50.320        17
50.340        13
50.360         3
50.380        30
50.400        13
50.420        20
50.440        20
50.460        20
50.480        20
50.500         3
50.520        13
50.540         3
50.560        20
50.580        20
50.600        27
50.620        23
50.640        13
50.660        27
50.680        20
50.700        23
50.720        20
50.740         7
50.760        10
50.780        20
50.800        20
50.820        23
50.840        23
50.860        20
50.880        10
50.900        33
50.920        33
50.940        17
50.960        17
50.980        27
51.000        23
51.020        33
51.040        13
51.060        10
51.080        27
51.100        20
51.120        20
51.140        10
51.160        17
51.180        10
51.200         7
51.220        10
51.240        23
51.260        13
51.280        23
51.300        13
51.320         7
51.340        10
51.360        13
51.380         0
51.400         7
51.420        20
51.440        10
51.460        10
51.480        20
51.500         7
51.520        10
51.540        27
51.560        20
51.580        30
51.600        20
51.620        13
51.640        13
51.660        13
51.680         7
51.700        10
51.720        17
51.740        13
51.760        27
51.780        10
51.800        13
51.820        17
51.840        10
51.860        10
51.880        10
51.900        10
51.920         7
51.940        13
51.960        13
51.980        23
52.000        23
52.020        17
52.040        17
52.060        13
52.080        17
52.100        13
52.120        13
52.140        17
52.160        17
52.180        30
52.200        20
52.220        13
52.240         7
52.260         3
52.280        17
52.300        10
52.320        13
52.340        23
52.360        20
52.380        23
52.400        13
52.420        40
52.440        80
52.460        53
52.480        70
52.500        50
52.520        63
52.540        87
52.560       100
52.580       113
52.600        70
52.620        43
52.640        63
52.660        53
52.680        33
52.700        50
52.720        53
52.740        43
52.760        20
52.780        27
52.800        20
52.820        13
52.840        13
52.860        23
52.880        23
52.900        23
52.920        27
52.940        20
52.960         0
52.980        27
53.000        33
53.020        30
53.040        13
53.060         7
53.080        17
53.100        17
53.120        10
53.140        13
53.160        10
53.180        17
53.200        30
53.220        23
53.240        10
53.260         3
53.280        10
53.300        13
53.320        10
53.340        23
53.360        10
53.380        10
53.400        20
53.420        17
53.440        13
53.460        23
53.480        17
53.500        17
53.520        17
53.540        20
53.560        10
53.580        13
53.600        13
53.620        20
53.640        13
53.660        27
53.680        10
53.700        13
53.720        13
53.740        10
53.760        10
53.780        20
53.800        17
53.820        30
53.840        20
53.860         0
53.880        17
53.900        13
53.920        13
53.940         7
53.960        17
53.980        10
54.000         3
54.020        17
54.040        17
54.060        30
54.080        23
54.100        17
54.120        10
54.140         7
54.160        13
54.180         3
54.200         7
54.220        17
54.240        17
54.260        13
54.280        17
54.300        17
54.320        20
54.340         7
54.360        17
54.380        13
54.400        13
54.420         7
54.440        20
54.460        20
54.480        10
54.500        17
54.520        10
54.540        10
54.560        10
54.580        10
54.600        23
54.620        17
54.640        20
54.660         7
54.680        23
54.700        10
54.720        10
54.740        20
54.760        13
54.780        13
54.800        23
54.820        30
54.840        17
54.860        17
54.880         7
54.900        23
54.920        13
54.940        17
54.960        20
54.980        10
55.000        20
55.020         7
55.040        13
55.060        20
55.080        10
55.100        33
55.120        17
55.140        23
55.160        20
55.180         7
55.200        17
55.220         7
55.240        17
55.260         7
55.280         3
55.300        10
55.320        13
55.340        23
55.360        10
55.380        13
55.400        10
55.420         7
55.440        10
55.460        27
55.480        13
55.500        23
55.520        13
55.540        20
55.560         7
55.580        13
55.600        10
55.620        33
55.640        23
55.660        37
55.680        13
55.700        10
55.720        10
55.740        13
55.760        13
55.780        20
55.800        23
55.820        10
55.840        20
55.860         3
55.880        23
55.900        17
55.920        33
55.940        17
55.960        13
55.980        17
56.000        17
56.020        17
56.040        17
56.060        13
56.080        17
56.100        17
56.120        17
56.140         7
56.160        17
56.180         7
56.200         7
56.220        17
56.240         7
56.260        23
56.280        17
56.300        10
56.320         7
56.340        17
56.360        13
56.380        17
56.400         7
56.420        33
56.440        13
56.460        13
56.480        17
56.500        17
56.520        43
56.540        17
56.560        23
56.580        10
56.600         7
56.620        13
56.640        17
56.660        13
56.680        30
56.700        10
56.720         7
56.740        10
56.760        10
56.780        17
56.800        13
56.820        13
56.840        17
56.860        13
56.880        13
56.900        10
56.920        13
56.940        10
56.960        27
56.980        13
57.000        10
57.020        20
57.040        20
57.060         7
57.080        10
57.100        17
57.120        23
57.140         3
57.160        17
57.180        13
57.200        13
57.220        13
57.240        27
57.260        23
57.280        33
57.300        23
57.320        23
57.340        40
57.360        17
57.380        30
57.400        23
57.420        53
57.440        80
57.460        83
57.480       103
57.500       120
57.520       167
57.540       143
57.560       133
57.580        80
57.600        97
57.620        53
57.640        73
57.660        80
57.680        60
57.700        60
57.720        70
57.740        23
57.760        40
57.780        27
57.800        17
57.820        20
57.840        13
57.860        27
57.880        10
57.900        13
57.920        13
57.940        13
57.960        10
57.980        13
58.000        20
58.020        10
58.040        13
58.060        23
58.080        23
58.100         7
58.120        17
58.140         7
58.160        13
58.180        13
58.200        20
58.220         0
58.240        10
58.260        17
58.280        30
58.300        13
58.320         7
58.340        10
58.360        10
58.380        17
58.400        10
58.420        23
58.440         3
58.460         3
58.480        23
58.500        10
58.520         7
58.540        17
58.560        33
58.580        20
58.600        10
58.620        10
58.640        13
58.660         7
58.680        20
58.700        10
58.720        23
58.740        13
58.760        27
58.780        10
58.800        10
58.820        10
58.840        37
58.860        17
58.880         7
58.900        23
58.920        30
58.940         3
58.960        17
58.980        10
59.000         7
59.020        17
59.040        13
59.060         3
59.080        13
59.100        13
59.120        17
59.140        17
59.160        10
59.180        13
59.200        10
59.220        17
59.240        13
59.260        17
59.280        20
59.300        10
59.320        10
59.340        23
59.360        20
59.380        10
59.400        13
59.420        17
59.440         7
59.460        30
59.480        20
59.500         7
59.520        17
59.540        13
59.560         7
59.580        23
59.600        27
59.620        10
59.640        10
59.660        10
59.680        20
59.700        23
59.720        23
59.740        17
59.760        20
59.780        17
59.800        13
59.820         7
59.840        17
59.860        20
59.880        13
59.900        17
59.920        13
59.940        20
59.960         7
59.980        10
60.000        10
