20.000        30
20.020        30
20.040        30
20.060        53
20.080        27
20.100        37
20.120        23
20.140        50
20.160        43
20.180        47
20.200        43
20.220        43
20.240        47
20.260        63
20.280        37
20.300        57
20.320        73
20.340        60
20.360        43
20.380        43
20.400        53
20.420        67
20.440        33
20.460        17
20.480        50
20.500        53
20.520        53
20.540        57
20.560        63
20.580        47
20.600        57
20.620        67
20.640        23
20.660        57
20.680        33
20.700        53
20.720        63
20.740        40
20.760        73
20.780        37
20.800        47
20.820        37
20.840        57
20.860        40
20.880        57
20.900        53
20.920        23
20.940        53
20.960        50
20.980        30
21.000        53
21.020        57
21.040        63
21.060        43
21.080        50
21.100        50
21.120        43
21.140        53
21.160        73
21.180        40
21.200        53
21.220        47
21.240        47
21.260        27
21.280        20
21.300        87
21.320        67
21.340        37
21.360        53
21.380        60
21.400        37
21.420        10
21.440        63
21.460        80
21.480        53
21.500        63
21.520        80
21.540        63
21.560        97
21.580       100
21.600       117
21.620       137
21.640       203
21.660       263
21.680       280
21.700       363
21.720       343
21.740       253
21.760       220
21.780       137
21.800       140
21.820        73
21.840        90
21.860        67
21.880        57
21.900        63
21.920        80
21.940        67
21.960        37
21.980        40
22.000        37
22.020        77
22.040        20
22.060        50
22.080        47
22.100        43
22.120        50
22.140        40
22.160        37
22.180        47
22.200        33
22.220        63
22.240        37
22.260        50
22.280        40
22.300        30
22.320        60
22.340        53
22.360        30
22.380        33
22.400        57
22.420        23
22.440        33
22.460        47
22.480        37
22.500        40
22.520        43
22.540        37
22.560        43
22.580        37
22.600        27
22.620        27
22.640        33
22.660        33
22.680        40
22.700        43
22.720        20
22.740        50
22.760        43
22.780        27
22.800        37
22.820        57
22.840        60
22.860        33
22.880        50
22.900        27
22.920        23
22.940        57
22.960        43
22.980        37
23.000        33
23.020        30
23.040        33
23.060        30
23.080        40
23.100        33
23.120        27
23.140        37
23.160        37
23.180        60
23.200        20
23.220        33
23.240        47
23.260        43
23.280        37
23.300        57
23.320        47
23.340        70
23.360        33
23.380        20
23.400        27
23.420        37
23.440        37
23.460        40
23.480        37
23.500        20
23.520        17
23.540        10
23.560        30
23.580        53
23.600        37
23.620        27
23.640        37
23.660        27
23.680        37
23.700        20
23.720        23
23.740        50
23.760        43
23.780        47
23.800        17
23.820        37
23.840        33
23.860        40
23.880        30
23.900        30
23.920        30
23.940        23
23.960        27
23.980        37
24.000        33
24.020         7
24.040        33
24.060        37
24.080        43
24.100        37
24.120        27
24.140        37
24.160        43
24.180        30
24.200        30
24.220        47
24.240        27
24.260        23
24.280        27
24.300        30
24.320        30
24.340        33
24.360        30
24.380        33
24.400        10
24.420        27
24.440        43
24.460        27
24.480        40
24.500        33
24.520        33
24.540        43
24.560        53
24.580        47
24.600        43
24.620        37
24.640        33
24.660        63
24.680        17
24.700        30
24.720        27
24.740        10
24.760        37
24.780        43
24.800        33
24.820        27
24.840        30
24.860        33
24.880        23
24.900        23
24.920        23
24.940        23
24.960        20
24.980        33
25.000        40
25.020        33
25.040        40
25.060        13
25.080        43
25.100        27
25.120        27
25.140        23
25.160        30
25.180        30
25.200        27
25.220        20
25.240        40
25.260        43
25.280        40
25.300        27
25.320        43
25.340        37
25.360        27
25.380        43
25.400        23
25.420        50
25.440        23
25.460        30
25.480        20
25.500        37
25.520        30
25.540        47
25.560        33
25.580        43
25.600        27
25.620        13
25.640        27
25.660        57
25.680        37
25.700        47
25.720        40
25.740        37
25.760        33
25.780        53
25.800        27
25.820        30
25.840        20
25.860        40
25.880        40
25.900        50
25.920        30
25.940        10
25.960        10
25.980        33
26.000        27
26.020        30
26.040        20
26.060        33
26.080        30
26.100        37
26.120        50
26.140        57
26.160        27
26.180        50
26.200        27
26.220        20
26.240        30
26.260        53
26.280        17
26.300        40
26.320        37
26.340        23
26.360        27
26.380        27
26.400        23
26.420        40
26.440        17
26.460        23
26.480        17
26.500        30
26.520        27
26.540        30
26.560        37
26.580        30
26.600        50
26.620        30
26.640        30
26.660        27
26.680        23
26.700        40
26.720        30
26.740        47
26.760        27
26.780        33
26.800        23
26.820        20
26.840        37
26.860        23
26.880         3
26.900        30
26.920        10
26.940        27
26.960        47
26.980        17
27.000        37
27.020        13
27.040        37
27.060        30
27.080        17
27.100        40
27.120        20
27.140        47
27.160        40
27.180        27
27.200        10
27.220        37
27.240        27
27.260        20
27.280        40
27.300        23
27.320        27
27.340        27
27.360        23
27.380        27
27.400        17
27.420        20
27.440        33
27.460        17
27.480        30
27.500        30
27.520        27
27.540        20
27.560        23
27.580        43
27.600        40
27.620        43
27.640        40
27.660        40
27.680        40
27.700        67
27.720        47
27.740        77
27.760        60
27.780        77
27.800        37
27.820        37
27.840        67
27.860        33
27.880        40
27.900        20
27.920        33
27.940        30
27.960        37
27.980        20
28.000        10
28.020        50
28.040        33
28.060        30
28.080        33
28.100        57
28.120        33
28.140         7
28.160        23
28.180        20
28.200        27
28.220        30
28.240        37
28.260        27
28.280        30
28.300        43
28.320        47
28.340        27
28.360        50
28.380        17
28.400        20
28.420        27
28.440        23
28.460        23
28.480        27
28.500        40
28.520        40
28.540        23
28.560        20
28.580        40
28.600        27
28.620        27
28.640        40
28.660        27
28.680        33
28.700        13
28.720        33
28.740        43
28.760        23
28.780        27
28.800        53
28.820        27
28.840        33
28.860        37
28.880        27
28.900        43
28.920        27
28.940        27
28.960        30
28.980        23
29.000        43
29.020        27
29.040        20
29.060        37
29.080        37
29.100        33
29.120        37
29.140        30
29.160        27
29.180        43
29.200        20
29.220        37
29.240        23
29.260        30
29.280        33
29.300        47
29.320        33
29.340        33
29.360        47
29.380        20
29.400        53
29.420        47
29.440        30
29.460        47
29.480        20
29.500        27
29.520        37
29.540        33
29.560        37
29.580        27
29.600        30
29.620        37
29.640        33
29.660        73
29.680        40
29.700        40
29.720        63
29.740        40
29.760        47
29.780        60
29.800        60
29.820        43
29.840        47
29.860        47
29.880        53
29.900        60
29.920       103
29.940        70
29.960        57
29.980        73
30.000        40
30.020        70
30.040       100
30.060        80
30.080        73
30.100        53
30.120        53
30.140        87
30.160       103
30.180       100
30.200        97
30.220       107
30.240        83
30.260       107
30.280        87
30.300        93
30.320        77
30.340       103
30.360       100
30.380       127
30.400       153
30.420       107
30.440       120
30.460       180
30.480       190
30.500       210
30.520       253
30.540       250
30.560       337
30.580       383
30.600       390
30.620       593
30.640       786
30.660       953
30.680      1203
30.700      1556
30.720      1779
30.740      2392
30.760      3165
30.780      4408
30.800      5564
30.820      5634
30.840      5481
30.860      4681
30.880      3832
30.900      3242
30.920      2492
30.940      1746
30.960      1193
30.980       856
31.000       600
31.020       520
31.040       466
31.060       350
31.080       360
31.100       300
31.120       290
31.140       213
31.160       217
31.180       250
31.200       210
31.220       197
31.240       233
31.260       257
31.280       233
31.300       220
31.320       223
31.340       147
31.360       173
31.380       180
31.400       177
31.420       130
31.440       177
31.460       203
31.480       177
31.500       140
31.520       140
31.540       120
31.560       113
31.580       140
31.600       153
31.620       140
31.640       123
31.660       127
31.680       117
31.700       120
31.720       137
31.740       103
31.760       113
31.780       120
31.800        80
31.820       103
31.840        80
31.860       103
31.880        90
31.900       103
31.920        90
31.940       113
31.960        73
31.980       103
32.000        53
32.020       103
32.040       100
32.060        63
32.080        97
32.100        53
32.120        70
32.140        80
32.160        63
32.180        43
32.200        67
32.220        53
32.240        70
32.260        87
32.280        50
32.300        47
32.320        73
32.340        43
32.360        67
32.380        57
32.400        60
32.420        47
32.440        53
32.460        47
32.480        67
32.500        53
32.520        40
32.540        17
32.560        33
32.580        43
32.600        43
32.620        67
32.640        40
32.660        53
32.680        40
32.700        57
32.720        50
32.740        60
32.760        70
32.780        53
32.800        33
32.820        37
32.840        37
32.860        40
32.880        30
32.900        47
32.920        40
32.940        47
32.960        57
32.980        30
33.000        43
33.020        20
33.040        43
33.060        33
33.080        47
33.100        17
33.120        43
33.140        30
33.160        27
33.180        30
33.200        33
33.220        30
33.240        50
33.260        23
33.280        33
33.300        20
33.320        33
33.340        33
33.360        40
33.380        37
33.400        27
33.420        30
33.440        40
33.460        30
33.480        20
33.500        27
33.520        27
33.540        57
33.560        60
33.580        30
33.600        40
33.620        37
33.640        40
33.660        27
33.680        40
33.700        23
33.720        47
33.740        33
33.760        37
33.780        50
33.800        30
33.820        50
33.840        30
33.860        43
33.880        17
33.900        30
33.920        37
33.940        27
33.960        40
33.980        40
34.000        57
34.020        43
34.040        33
34.060        33
34.080        43
34.100        37
34.120        27
34.140        43
34.160        37
34.180        50
34.200        43
34.220        43
34.240        33
34.260        17
34.280        33
34.300        43
34.320        40
34.340        30
34.360        27
34.380        30
34.400        30
34.420        33
34.440        40
34.460        30
34.480        27
34.500        27
34.520        33
34.540        23
34.560        17
34.580        20
34.600        33
34.620        47
34.640        47
34.660        47
34.680        30
34.700        30
34.720        23
34.740        27
34.760        17
34.780        37
34.800        23
34.820        27
34.840        40
34.860        33
34.880        17
34.900        40
34.920        33
34.940        27
34.960        20
34.980        27
35.000        17
35.020        33
35.040        13
35.060        27
35.080        43
35.100        23
35.120        37
35.140        17
35.160        27
35.180        17
35.200        27
35.220        27
35.240        30
35.260        23
35.280        33
35.300        37
35.320         3
35.340        40
35.360        23
35.380        30
35.400        20
35.420        27
35.440        23
35.460        10
35.480        27
35.500        37
35.520        40
35.540        23
35.560        43
35.580        33
35.600        30
35.620        17
35.640        30
35.660        17
35.680        27
35.700        10
35.720        37
35.740        33
35.760        23
35.780        30
35.800        13
35.820        33
35.840        23
35.860        17
35.880        30
35.900        27
35.920        23
35.940        20
35.960        30
35.980        33
36.000        40
36.020        27
36.040        20
36.060        17
36.080        27
36.100        23
36.120        20
36.140        23
36.160        27
36.180        60
36.200        30
36.220        30
36.240        40
36.260        40
36.280        33
36.300        33
36.320        17
36.340        20
36.360        27
36.380        23
36.400        23
36.420        17
36.440        30
36.460        20
36.480        20
36.500        27
36.520        20
36.540        30
36.560        10
36.580        43
36.600        13
36.620        40
36.640        23
36.660        30
36.680        17
36.700        33
36.720        27
36.740        23
36.760        37
36.780        33
36.800        43
36.820        17
36.840        30
36.860        17
36.880         7
36.900        30
36.920        30
36.940        23
36.960        17
36.980        17
37.000        40
37.020        13
37.040        27
37.060        17
37.080        30
37.100        33
37.120        30
37.140        20
37.160        30
37.180        33
37.200        43
37.220        20
37.240        37
37.260        37
37.280         7
37.300        23
37.320        23
37.340        27
37.360        20
37.380        30
37.400        30
37.420        40
37.440        43
37.460        23
37.480        43
37.500        33
37.520        23
37.540        37
37.560        53
37.580        50
37.600        53
37.620        33
37.640        37
37.660        60
37.680        53
37.700        47
37.720        47
37.740        60
37.760        83
37.780        80
37.800        87
37.820        97
37.840       100
37.860       113
37.880       153
37.900       193
37.920       180
37.940       313
37.960       337
37.980       470
38.000       606
38.020       793
38.040       910
38.060      1070
38.080      1013
38.100       866
38.120       800
38.140       723
38.160       670
38.180       653
38.200       553
38.220       313
38.240       260
38.260       223
38.280       150
38.300       127
38.320       143
38.340        90
38.360       117
38.380        93
38.400        83
38.420        80
38.440        80
38.460        67
38.480        50
38.500        40
38.520        70
38.540        47
38.560        47
38.580        57
38.600        30
38.620        57
38.640        53
38.660        20
38.680        57
38.700        30
38.720        63
38.740        50
38.760        40
38.780        40
38.800        40
38.820        47
38.840        50
38.860        57
38.880        40
38.900        27
38.920        27
38.940        43
38.960        47
38.980        53
39.000        33
39.020        27
39.040        33
39.060        53
39.080        50
39.100        30
39.120        27
39.140        30
39.160        37
39.180        20
39.200        40
39.220        20
39.240        27
39.260        43
39.280        50
39.300        30
39.320        43
39.340        30
39.360        23
39.380        37
39.400        10
39.420        27
39.440        27
39.460        30
39.480        27
39.500        40
39.520        20
39.540        37
39.560        30
39.580        37
39.600        37
39.620        53
39.640        40
39.660        23
39.680        20
39.700        23
39.720        33
39.740        20
39.760        43
39.780        37
39.800        57
39.820        13
39.840        13
39.860        33
39.880        33
39.900        23
39.920        33
39.940        33
39.960        23
39.980        33
40.000         7
40.020        30
40.040        37
40.060        23
40.080        50
40.100        37
40.120        23
40.140        30
40.160        17
40.180        27
40.200        23
40.220        17
40.240        13
40.260        40
40.280        30
40.300        17
40.320        13
40.340        17
40.360        13
40.380        33
40.400        20
40.420        23
40.440        20
40.460        23
40.480        33
40.500        20
40.520        23
40.540        20
40.560        30
40.580        30
40.600        20
40.620        23
40.640        30
40.660        20
40.680        17
40.700        37
40.720        23
40.740        20
40.760        17
40.780        17
40.800        20
40.820        33
40.840        20
40.860        23
40.880        17
40.900        20
40.920        23
40.940        37
40.960        17
40.980        27
41.000        17
41.020        20
41.040        10
41.060        37
41.080        40
41.100        17
41.120        23
41.140         7
41.160        13
41.180        30
41.200        37
41.220        23
41.240        20
41.260        27
41.280        17
41.300        10
41.320        27
41.340        20
41.360        20
41.380        17
41.400        27
41.420        37
41.440        27
41.460        27
41.480        27
41.500        20
41.520        20
41.540        20
41.560        23
41.580        17
41.600        30
41.620        33
41.640        40
41.660         7
41.680        47
41.700        50
41.720        77
41.740        83
41.760        70
41.780        40
41.800        60
41.820        53
41.840        33
41.860        43
41.880        43
41.900        47
41.920        10
41.940        27
41.960        33
41.980        20
42.000        17
42.020        13
42.040        37
42.060        33
42.080        30
42.100        20
42.120        10
42.140        20
42.160        23
42.180        27
42.200        17
42.220        17
42.240        23
42.260        20
42.280        33
42.300        37
42.320        30
42.340        20
42.360        37
42.380        13
42.400        27
42.420        23
42.440        20
42.460        23
42.480        37
42.500        17
42.520        27
42.540        23
42.560        23
42.580        30
42.600        33
42.620        37
42.640        33
42.660        37
42.680        40
42.700        37
42.720        43
42.740        20
42.760        20
42.780        50
42.800        20
42.820        30
42.840        47
42.860        23
42.880        43
42.900        30
42.920        40
42.940        53
42.960        17
42.980        27
43.000        20
43.020        63
43.040        47
43.060        43
43.080        50
43.100        43
43.120        33
43.140        50
43.160        40
43.180        43
43.200        47
43.220        30
43.240        50
43.260        33
43.280        57
43.300        63
43.320        33
43.340        27
43.360        50
43.380        87
43.400       150
43.420       110
43.440       183
43.460       157
43.480       173
43.500        67
43.520       103
43.540       170
43.560       110
43.580        83
43.600        83
43.620        70
43.640        83
43.660        57
43.680        50
43.700        50
43.720        67
43.740        80
43.760        67
43.780        83
43.800        80
43.820       103
43.840       127
43.860       100
43.880       100
43.900       137
43.920       180
43.940       163
43.960       183
43.980       207
44.000       227
44.020       240
44.040       323
44.060       367
44.080       573
44.100       700
44.120       850
44.140      1010
44.160      1093
44.180      1146
44.200      1210
44.220      1170
44.240      1123
44.260       836
44.280       766
44.300       763
44.320       623
44.340       593
44.360       473
44.380       377
44.400       283
44.420       243
44.440       167
44.460       160
44.480       127
44.500       167
44.520       140
44.540        90
44.560       103
44.580        93
44.600       127
44.620       107
44.640       130
44.660        77
44.680        63
44.700        57
44.720        70
44.740       107
44.760        80
44.780       117
44.800        70
44.820        53
44.840        80
44.860        63
44.880        83
44.900        37
44.920        73
44.940        80
44.960        57
44.980        63
45.000        47
45.020        50
45.040        53
45.060        67
45.080        53
45.100        50
45.120        73
45.140        63
45.160        60
45.180        53
45.200        27
45.220        53
45.240        63
45.260        63
45.280        47
45.300        33
45.320        40
45.340        33
45.360        37
45.380        20
45.400        47
45.420        43
45.440        27
45.460        43
45.480        20
45.500        57
45.520        27
45.540        40
45.560        47
45.580        37
45.600        13
45.620        37
45.640        43
45.660        30
45.680        10
45.700        27
45.720        33
45.740        27
45.760        43
45.780        23
45.800        53
45.820        40
45.840        30
45.860        23
45.880        27
45.900        23
45.920        23
45.940        27
45.960        17
45.980        23
46.000        30
46.020        40
46.040        43
46.060        43
46.080        27
46.100        30
46.120        40
46.140        33
46.160        33
46.180        33
46.200        27
46.220        33
46.240        40
46.260        17
46.280        53
46.300        27
46.320        37
46.340        13
46.360        13
46.380        23
46.400        17
46.420        40
46.440        23
46.460        27
46.480        20
46.500        30
46.520        17
46.540        17
46.560        30
46.580        27
46.600        27
46.620        27
46.640        10
46.660        27
46.680        10
46.700        17
46.720        23
46.740        23
46.760        27
46.780        30
46.800        20
46.820        33
46.840        30
46.860        50
46.880        47
46.900        17
46.920        30
46.940        20
46.960        10
46.980        27
47.000        20
47.020        33
47.040        33
47.060        13
47.080        13
47.100        23
47.120        17
47.140        17
47.160        43
47.180        23
47.200        27
47.220        30
47.240        17
47.260        27
47.280        20
47.300        20
47.320        20
47.340        30
47.360        33
47.380        13
47.400        37
47.420        27
47.440        10
47.460        50
47.480        17
47.500        37
47.520        33
47.540        37
47.560        27
47.580        43
47.600        27
47.620        20
47.640        33
47.660        30
47.680        23
47.700        17
47.720        23
47.740        23
47.760        20
47.780        30
47.800         7
47.820        33
47.840        23
47.860        30
47.880        20
47.900        20
47.920        23
47.940        30
47.960        23
47.980        17
48.000        33
48.020        27
48.040        33
48.060        23
48.080        30
48.100        23
48.120        33
48.140        47
48.160        27
48.180         7
48.200        10
48.220        13
48.240        13
48.260        30
48.280        23
48.300        30
48.320        43
48.340        20
48.360        17
48.380        27
48.400        33
48.420        50
48.440        33
48.460        13
48.480        33
48.500        30
48.520        50
48.540        30
48.560        17
48.580        33
48.600        20
48.620        17
48.640        27
48.660        37
48.680        10
48.700        17
48.720        17
48.740        20
48.760         7
48.780        33
48.800        17
48.820        10
48.840        30
48.860        17
48.880        23
48.900        30
48.920        27
48.940        10
48.960        20
48.980        13
49.000        23
49.020        27
49.040        17
49.060        17
49.080        10
49.100        27
49.120        87
49.140        13
49.160        17
49.180        13
49.200        13
49.220        27
49.240        17
49.260        23
49.280        33
49.300        13
49.320        10
49.340        13
49.360        13
49.380        20
49.400        17
49.420        17
49.440        17
49.460        17
49.480        33
49.500        40
49.520        17
49.540        23
49.560        23
49.580        27
49.600        17
49.620        30
49.640        30
49.660        23
49.680        20
49.700        17
49.720        27
49.740        20
49.760        20
49.780        20
49.800        23
49.820        13
49.840        17
49.860        17
49.880        40
49.900        10
49.920        23
49.940        30
49.960        13
49.980        13
50.000        20
50.020        30
50.040        20
50.060        10
50.080        13
50.100        13
50.120        33
50.140        30
50.160        27
50.180        30
50.200        40
50.220        10
50.240        17
50.260        20
50.280        23
50.300        13
50.320        30
50.340        30
50.360        23
50.380        23
50.400        17
50.420        43
50.440        23
50.460        27
50.480        37
50.500        23
50.520        27
50.540        20
50.560        13
50.580        27
50.600         7
50.620        13
50.640        43
50.660        20
50.680        10
50.700         7
50.720        30
50.740        13
50.760        10
50.780        13
50.800        30
50.820        23
50.840        20
50.860        23
50.880        17
50.900        13
50.920        17
50.940        17
50.960        27
50.980        13
51.000        17
51.020        33
51.040        13
51.060        17
51.080        40
51.100        10
51.120        13
51.140        23
51.160        30
51.180         7
51.200        20
51.220        23
51.240        13
51.260        13
51.280        23
51.300        27
51.320        13
51.340        10
51.360        20
51.380        20
51.400        13
51.420        23
51.440        13
51.460        23
51.480        23
51.500         7
51.520        17
51.540        10
51.560        13
51.580        23
51.600        10
51.620        10
51.640        20
51.660        20
51.680        30
51.700        17
51.720        23
51.740        27
51.760        33
51.780        13
51.800        40
51.820         7
51.840        13
51.860        23
51.880         7
51.900        17
51.920        23
51.940        13
51.960        13
51.980        27
52.000        17
52.020         7
52.040        23
52.060        30
52.080        10
52.100        17
52.120        13
52.140        13
52.160        17
52.180         0
52.200        17
52.220        17
52.240        17
52.260        10
52.280        17
52.300        23
52.320        10
52.340        17
52.360         7
52.380        23
52.400        17
52.420        17
52.440        20
52.460        23
52.480        20
52.500        17
52.520         3
52.540        17
52.560         3
52.580        20
52.600        17
52.620        13
52.640        27
52.660        27
52.680        23
52.700        13
52.720        10
52.740        30
52.760        23
52.780        23
52.800        20
52.820        27
52.840        17
52.860        30
52.880        13
52.900        13
52.920        33
52.940        23
52.960        20
52.980        23
53.000        33
53.020        20
53.040        13
53.060        17
53.080        17
53.100         7
53.120        30
53.140         7
53.160        17
53.180        30
53.200        17
53.220        13
53.240        17
53.260        23
53.280         7
53.300        17
53.320        10
53.340        23
53.360        10
53.380        13
53.400        27
53.420        17
53.440        23
53.460        17
53.480        33
53.500         7
53.520        13
53.540        10
53.560        23
53.580        13
53.600        17
53.620        30
53.640        17
53.660         7
53.680        13
53.700        13
53.720        20
53.740        10
53.760        10
53.780        17
53.800        10
53.820        17
53.840        10
53.860        23
53.880        10
53.900        30
53.920        20
53.940        13
53.960        17
53.980        23
54.000        17
54.020        10
54.040        10
54.060        27
54.080        20
54.100        13
54.120        13
54.140        10
54.160        17
54.180        43
54.200        20
54.220        10
54.240        17
54.260        17
54.280        23
54.300        27
54.320        40
54.340        30
54.360        23
54.380         7
54.400        20
54.420        17
54.440         3
54.460        20
54.480        30
54.500         3
54.520        20
54.540        23
54.560        23
54.580        27
54.600        40
54.620        13
54.640        17
54.660        27
54.680        23
54.700        30
54.720        23
54.740        37
54.760        27
54.780        53
54.800        53
54.820        43
54.840        63
54.860        33
54.880        67
54.900        83
54.920        60
54.940        27
54.960        20
54.980        40
55.000        27
55.020        37
55.040        27
55.060        43
55.080        17
55.100        27
55.120        20
55.140        23
55.160        30
55.180        30
55.200        27
55.220        20
55.240        33
55.260        33
55.280        20
55.300        30
55.320        13
55.340        13
55.360        13
55.380        30
55.400        30
55.420        27
55.440         7
55.460        30
55.480        27
55.500        10
55.520        23
55.540        27
55.560        23
55.580        10
55.600         3
55.620        20
55.640        33
55.660        13
55.680        43
55.700        33
55.720        37
55.740        20
55.760        17
55.780        13
55.800         3
55.820        37
55.840        23
55.860        23
55.880        17
55.900        10
55.920        13
55.940        20
55.960        13
55.980        10
56.000        10
56.020        23
56.040        20
56.060        27
56.080        20
56.100        20
56.120        27
56.140        13
56.160        10
56.180        17
56.200        10
56.220        23
56.240        10
56.260         3
56.280        20
56.300        27
56.320         7
56.340        30
56.360        10
56.380        23
56.400        20
56.420        13
56.440        10
56.460        23
56.480        20
56.500        13
56.520        23
56.540        10
56.560        17
56.580        17
56.600        30
56.620        13
56.640        17
56.660        10
56.680         7
56.700        17
56.720        10
56.740         7
56.760         7
56.780        17
56.800        27
56.820        13
56.840        10
56.860        13
56.880        10
56.900        23
56.920        10
56.940        13
56.960         3
56.980        10
57.000         7
57.020        10
57.040         3
57.060        23
57.080        20
57.100        30
57.120        20
57.140        27
57.160        20
57.180        43
57.200        13
57.220        27
57.240        10
57.260        13
57.280        27
57.300        23
57.320        20
57.340        37
57.360        30
57.380        10
57.400        20
57.420        17
57.440        33
57.460        23
57.480        27
57.500        17
57.520        20
57.540         7
57.560        17
57.580        33
57.600        30
57.620        13
57.640        27
57.660        17
57.680        17
57.700        37
57.720        23
57.740        27
57.760        17
57.780        10
57.800        17
57.820        17
57.840        13
57.860        13
57.880        17
57.900        17
57.920         7
57.940        10
57.960        17
57.980         7
58.000         7
58.020        27
58.040        30
58.060        17
58.080        20
58.100        10
58.120        20
58.140        20
58.160        13
58.180        10
58.200        10
58.220        10
58.240        13
58.260         3
58.280        17
58.300        10
58.320        17
58.340         7
58.360        20
58.380        27
58.400        20
58.420        17
58.440        20
58.460        27
58.480        13
58.500         7
58.520        23
58.540        17
58.560        20
58.580        30
58.600        17
58.620        17
58.640        17
58.660        13
58.680        20
58.700        27
58.720        10
58.740        10
58.760         7
58.780        20
58.800        20
58.820         7
58.840        20
58.860        20
58.880        13
58.900        10
58.920         3
58.940        17
58.960        10
58.980        10
59.000         7
59.020        13
59.040        17
59.060        17
59.080        17
59.100        20
59.120        10
59.140        20
59.160        23
59.180        17
59.200         3
59.220         7
59.240        13
59.260        17
59.280        20
59.300        13
59.320         7
59.340        10
59.360        10
59.380        10
59.400         3
59.420        10
59.440        17
59.460        20
59.480        20
59.500        20
59.520        30
59.540         7
59.560        13
59.580        23
59.600        10
59.620        20
59.640        10
59.660        17
59.680         7
59.700        17
59.720        20
59.740        20
59.760        20
59.780         7
59.800         7
59.820        10
59.840        13
59.860         7
59.880         3
59.900        17
59.920        13
59.940        13
59.960        17
59.980        10
60.000        13
