20.000        40
20.010        40
20.020        20
20.030        47
20.040        60
20.050        40
20.060        27
20.070        60
20.080        40
20.090        47
20.100        27
20.110        47
20.120        73
20.130        67
20.140        73
20.150        27
20.160        80
20.170        33
20.180        60
20.190        53
20.200        60
20.210        67
20.220        60
20.230        47
20.240        20
20.250        40
20.260        60
20.270        27
20.280        40
20.290        60
20.300        33
20.310        33
20.320        27
20.330        67
20.340        33
20.350        47
20.360        53
20.370        47
20.380        33
20.390        47
20.400        60
20.410        40
20.420        60
20.430        47
20.440        20
20.450        13
20.460        53
20.470        60
20.480        33
20.490        33
20.500        47
20.510        53
20.520        27
20.530        27
20.540        40
20.550        13
20.560        40
20.570        53
20.580        53
20.590        27
20.600        60
20.610        53
20.620        27
20.630        60
20.640        53
20.650        27
20.660        33
20.670        53
20.680        20
20.690        60
20.700        47
20.710        53
20.720        53
20.730        53
20.740        40
20.750        20
20.760        27
20.770        53
20.780        13
20.790        27
20.800        80
20.810        40
20.820        73
20.830        53
20.840        33
20.850        53
20.860        47
20.870        53
20.880        53
20.890        13
20.900        87
20.910        47
20.920        53
20.930        40
20.940        27
20.950        20
20.960        33
20.970        67
20.980        33
20.990        60
21.000        60
21.010        67
21.020        53
21.030        60
21.040        40
21.050        67
21.060        20
21.070        20
21.080        47
21.090        73
21.100        33
21.110        47
21.120        87
21.130        40
21.140        40
21.150         7
21.160        47
21.170        13
21.180        33
21.190        33
21.200        60
21.210        53
21.220        60
21.230        47
21.240        40
21.250        47
21.260        53
21.270        53
21.280        40
21.290         7
21.300        67
21.310        60
21.320        33
21.330        33
21.340        33
21.350        67
21.360        40
21.370        27
21.380        73
21.390        53
21.400        33
21.410        40
21.420        73
21.430        47
21.440        40
21.450        33
21.460        47
21.470        47
21.480        27
21.490        60
21.500        27
21.510        40
21.520        20
21.530        13
21.540        73
21.550        40
21.560        33
21.570        53
21.580        27
21.590        33
21.600        53
21.610        20
21.620        20
21.630        40
21.640        80
21.650        33
21.660        80
21.670        40
21.680        87
21.690        40
21.700        80
21.710        67
21.720        33
21.730        20
21.740        20
21.750        40
21.760        73
21.770        33
21.780        67
21.790        20
21.800         7
21.810        67
21.820        47
21.830        53
21.840        33
21.850        60
21.860        47
21.870        73
21.880        60
21.890        40
21.900        53
21.910        53
21.920        60
21.930        40
21.940        27
21.950        20
21.960        47
21.970        27
21.980        33
21.990        47
22.000        33
22.010        47
22.020        33
22.030        27
22.040        60
22.050        73
22.060        33
22.070        27
22.080        27
22.090        47
22.100        60
22.110        67
22.120        40
22.130        53
22.140        47
22.150        33
22.160        53
22.170        60
22.180        60
22.190        27
22.200        60
22.210        40
22.220        53
22.230        20
22.240        40
22.250        27
22.260        13
22.270        60
22.280        60
22.290        67
22.300        40
22.310        27
22.320        40
22.330        27
22.340        47
22.350        60
22.360        33
22.370        60
22.380        20
22.390        47
22.400        27
22.410        47
22.420         0
22.430        47
22.440        33
22.450        20
22.460        27
22.470        60
22.480        40
22.490        33
22.500        27
22.510        47
22.520        33
22.530        33
22.540        67
22.550        27
22.560        47
22.570        67
22.580        33
22.590        67
22.600        40
22.610        20
22.620        67
22.630        33
22.640        60
22.650        47
22.660        33
22.670        40
22.680        20
22.690        40
22.700        33
22.710        53
22.720        60
22.730        80
22.740        40
22.750        33
22.760        27
22.770        47
22.780        40
22.790        60
22.800        47
22.810        60
22.820        20
22.830        40
22.840        27
22.850        20
22.860        47
22.870        60
22.880        33
22.890        53
22.900        33
22.910        33
22.920        27
22.930        27
22.940        20
22.950        53
22.960        20
22.970        33
22.980        13
22.990        40
23.000        80
23.010        67
23.020        13
23.030        33
23.040        60
23.050        33
23.060         7
23.070        33
23.080        53
23.090        40
23.100        33
23.110        40
23.120        47
23.130        40
23.140        20
23.150        27
23.160        60
23.170        20
23.180        27
23.190        33
23.200        33
23.210        27
23.220        33
23.230        40
23.240        20
23.250        40
23.260        53
23.270        53
23.280        40
23.290        33
23.300        33
23.310        47
23.320        53
23.330        33
23.340        13
23.350        33
23.360        53
23.370        27
23.380        20
23.390        27
23.400        53
23.410        47
23.420        40
23.430        33
23.440        47
23.450        33
23.460        53
23.470        33
23.480        40
23.490        33
23.500        40
23.510        60
23.520        27
23.530        73
23.540        67
23.550        47
23.560        27
23.570        33
23.580        33
23.590        47
23.600        67
23.610        20
23.620        13
23.630        33
23.640        13
23.650        53
23.660        40
23.670        40
23.680        20
23.690        13
23.700        40
23.710        47
23.720        60
23.730        47
23.740        53
23.750        33
23.760        33
23.770        53
23.780        73
23.790        27
23.800        20
23.810        13
23.820        13
23.830        47
23.840        33
23.850        27
23.860        47
23.870        27
23.880        33
23.890        27
23.900        20
23.910        53
23.920        67
23.930        27
23.940        40
23.950        27
23.960        47
23.970        27
23.980        20
23.990        33
24.000        67
24.010        20
24.020        47
24.030        40
24.040        40
24.050        53
24.060         0
24.070        20
24.080        20
24.090        33
24.100        47
24.110        20
24.120        47
24.130        13
24.140        67
24.150        73
24.160        27
24.170        13
24.180        20
24.190        40
24.200        73
24.210        20
24.220        40
24.230        33
24.240        33
24.250        40
24.260        40
24.270        27
24.280        33
24.290        33
24.300        33
24.310        20
24.320        27
24.330        40
24.340        67
24.350        13
24.360        20
24.370        93
24.380        27
24.390        73
24.400        27
24.410        13
24.420        27
24.430        27
24.440        40
24.450        27
24.460        27
24.470       100
24.480        13
24.490        13
24.500        20
24.510        47
24.520        33
24.530        20
24.540        13
24.550        33
24.560        40
24.570        33
24.580        60
24.590        27
24.600        40
24.610        13
24.620        27
24.630        47
24.640        20
24.650        27
24.660        40
24.670        27
24.680        47
24.690        27
24.700        27
24.710        60
24.720        40
24.730        27
24.740        67
24.750        53
24.760        73
24.770        33
24.780        27
24.790        40
24.800        40
24.810        73
24.820        33
24.830        27
24.840        40
24.850        47
24.860        40
24.870        33
24.880        47
24.890        27
24.900        13
24.910        20
24.920        40
24.930        80
24.940        47
24.950        27
24.960        33
24.970        33
24.980        20
24.990        33
25.000        40
25.010        20
25.020        20
25.030        27
25.040        33
25.050        27
25.060        40
25.070        33
25.080        20
25.090        47
25.100        33
25.110        60
25.120        53
25.130        53
25.140        33
25.150        27
25.160        40
25.170        33
25.180        60
25.190        33
25.200        47
25.210        60
25.220        33
25.230        33
25.240        33
25.250        47
25.260         7
25.270        13
25.280        33
25.290        53
25.300        27
25.310        20
25.320        27
25.330        27
25.340        27
25.350        60
25.360        33
25.370        27
25.380        40
25.390        33
25.400        33
25.410        20
25.420        33
25.430        47
25.440        40
25.450        27
25.460        20
25.470        40
25.480        40
25.490        13
25.500        20
25.510        47
25.520        60
25.530        47
25.540        33
25.550        47
25.560        47
25.570        40
25.580        40
25.590        53
25.600        53
25.610       107
25.620        53
25.630        60
25.640        40
25.650        33
25.660        27
25.670        13
25.680        47
25.690        33
25.700        33
25.710        47
25.720        40
25.730        20
25.740        27
25.750        40
25.760        40
25.770        40
25.780        27
25.790        33
25.800        40
25.810        27
25.820        33
25.830        27
25.840        40
25.850        27
25.860        40
25.870        13
25.880        13
25.890        13
25.900        20
25.910        13
25.920        33
25.930        13
25.940        80
25.950        67
25.960        33
25.970        13
25.980        53
25.990        27
26.000        33
26.010        27
26.020        27
26.030        53
26.040        47
26.050        33
26.060        13
26.070        33
26.080        40
26.090        27
26.100        53
26.110        47
26.120        33
26.130        33
26.140        40
26.150        13
26.160        53
26.170        40
26.180        40
26.190        53
26.200        33
26.210        40
26.220        27
26.230        47
26.240        47
26.250        33
26.260        27
26.270        40
26.280        33
26.290        40
26.300        47
26.310        47
26.320        33
26.330        33
26.340        53
26.350        53
26.360        27
26.370         7
26.380        27
26.390        40
26.400        27
26.410        20
26.420        40
26.430        40
26.440        47
26.450        27
26.460        27
26.470        60
26.480        53
26.490        20
26.500        33
26.510        67
26.520        40
26.530        47
26.540        80
26.550        73
26.560        33
26.570        27
26.580        40
26.590        47
26.600        20
26.610        47
26.620        13
26.630        20
26.640        40
26.650        53
26.660        27
26.670        33
26.680        27
26.690        20
26.700        60
26.710        40
26.720        40
26.730        27
26.740        47
26.750        27
26.760        60
26.770        20
26.780        20
26.790        27
26.800        47
26.810        27
26.820        47
26.830        40
26.840        27
26.850        47
26.860        20
26.870        20
26.880        47
26.890        47
26.900        27
26.910        33
26.920        67
26.930        27
26.940        40
26.950        53
26.960        13
26.970        20
26.980        20
26.990        13
27.000        20
27.010        47
27.020        33
27.030        20
27.040        33
27.050        40
27.060        33
27.070        27
27.080        13
27.090        13
27.100        40
27.110        33
27.120        27
27.130        33
27.140        40
27.150        20
27.160        27
27.170        33
27.180        40
27.190        27
27.200        27
27.210        60
27.220        33
27.230        53
27.240        20
27.250        33
27.260        20
27.270        40
27.280        27
27.290        47
27.300        33
27.310        27
27.320        47
27.330         7
27.340        53
27.350        53
27.360        13
27.370        40
27.380        27
27.390        13
27.400        33
27.410        33
27.420        27
27.430        47
27.440        53
27.450        27
27.460        33
27.470        47
27.480        27
27.490        40
27.500        33
27.510        13
27.520        13
27.530        33
27.540        33
27.550        53
27.560        20
27.570        27
27.580        27
27.590        20
27.600        13
27.610        27
27.620        33
27.630        40
27.640        20
27.650        27
27.660        40
27.670        67
27.680        33
27.690        20
27.700        20
27.710        53
27.720        53
27.730        40
27.740        47
27.750        20
27.760        47
27.770        40
27.780        73
27.790        33
27.800        60
27.810        80
27.820        40
27.830        40
27.840        53
27.850        47
27.860        33
27.870        47
27.880        67
27.890       107
27.900        40
27.910        87
27.920        80
27.930        60
27.940        60
27.950        67
27.960        60
27.970        27
27.980        33
27.990        40
28.000        47
28.010        40
28.020        47
28.030        33
28.040        27
28.050        27
28.060        33
28.070        53
28.080        33
28.090       100
28.100        27
28.110        40
28.120        40
28.130        60
28.140        67
28.150        20
28.160        40
28.170        13
28.180        13
28.190        27
28.200        20
28.210        40
28.220        53
28.230        27
28.240        47
28.250        13
28.260         7
28.270        33
28.280        27
28.290         7
28.300        60
28.310        27
28.320        13
28.330        67
28.340        13
28.350        20
28.360        47
28.370        33
28.380        33
28.390        40
28.400        33
28.410        47
28.420        47
28.430        53
28.440        33
28.450        27
28.460        33
28.470        33
28.480        53
28.490        33
28.500        40
28.510        27
28.520        47
28.530         7
28.540        20
28.550        40
28.560        33
28.570        13
28.580        27
28.590        60
28.600        13
28.610        53
28.620        33
28.630        27
28.640        33
28.650        20
28.660        47
28.670        27
28.680        47
28.690        33
28.700        27
28.710        20
28.720        33
28.730        27
28.740        40
28.750        20
28.760        33
28.770        33
28.780        27
28.790        47
28.800        33
28.810        40
28.820        40
28.830        47
28.840        20
28.850        47
28.860        33
28.870        20
28.880        20
28.890        53
28.900        33
28.910        47
28.920        47
28.930        40
28.940        47
28.950        47
28.960        40
28.970        33
28.980        47
28.990        40
29.000        33
29.010        47
29.020         7
29.030        40
29.040        40
29.050        13
29.060        47
29.070        60
29.080        53
29.090        13
29.100        20
29.110        27
29.120        27
29.130        47
29.140        27
29.150         7
29.160        20
29.170        20
29.180        60
29.190        40
29.200        20
29.210        27
29.220        20
29.230        13
29.240        40
29.250        53
29.260        60
29.270        33
29.280        33
29.290        47
29.300        67
29.310        33
29.320        13
29.330        53
29.340        27
29.350        60
29.360        40
29.370        53
29.380        47
29.390        47
29.400        47
29.410        33
29.420        47
29.430        13
29.440        20
29.450        67
29.460        40
29.470        27
29.480        33
29.490        13
29.500        27
29.510        13
29.520        47
29.530        40
29.540        27
29.550        40
29.560        47
29.570        40
29.580        40
29.590        33
29.600        33
29.610        40
29.620        13
29.630        27
29.640        67
29.650        67
29.660        40
29.670        27
29.680        60
29.690        40
29.700        60
29.710        80
29.720        27
29.730        53
29.740        60
29.750        60
29.760        47
29.770        27
29.780        27
29.790        27
29.800        27
29.810        53
29.820        53
29.830        40
29.840        20
29.850        47
29.860        73
29.870        80
29.880       100
29.890        60
29.900        47
29.910        53
29.920        47
29.930        40
29.940        67
29.950        67
29.960        53
29.970        53
29.980        47
29.990       107
30.000        60
30.010        60
30.020        80
30.030        87
30.040        47
30.050        53
30.060        80
30.070        47
30.080        87
30.090        93
30.100        53
30.110        53
30.120       120
30.130        40
30.140        47
30.150        80
30.160        73
30.170        80
30.180        60
30.190        73
30.200        80
30.210        73
30.220       100
30.230        87
30.240        27
30.250       120
30.260        60
30.270        60
30.280       107
30.290       100
30.300        87
30.310        73
30.320        47
30.330        53
30.340        60
30.350        60
30.360        73
30.370        73
30.380       107
30.390        60
30.400        73
30.410       100
30.420       107
30.430       100
30.440       120
30.450        87
30.460       147
30.470        87
30.480        67
30.490        73
30.500        53
30.510        80
30.520        73
30.530        60
30.540        53
30.550       127
30.560       127
30.570        93
30.580       153
30.590       107
30.600       133
30.610       187
30.620       200
30.630       200
30.640       193
30.650       173
30.660       273
30.670       207
30.680       347
30.690       313
30.700       453
30.710       460
30.720       446
30.730       440
30.740       560
30.750       486
30.760       673
30.770       766
30.780       920
30.790       880
30.800      1020
30.810      1306
30.820      1186
30.830      1513
30.840      1506
30.850      2079
30.860      2172
30.870      2392
30.880      3132
30.890      3439
30.900      3912
30.910      4525
30.920      5025
30.930      5698
30.940      6031
30.950      7284
30.960      7324
30.970      7557
30.980      7484
30.990      7297
31.000      6611
31.010      6531
31.020      6024
31.030      5311
31.040      4885
31.050      4058
31.060      3852
31.070      3312
31.080      2839
31.090      2552
31.100      2013
31.110      1513
31.120      1093
31.130       806
31.140       726
31.150       606
31.160       486
31.170       373
31.180       267
31.190       360
31.200       227
31.210       220
31.220       273
31.230       167
31.240       207
31.250       133
31.260       147
31.270       167
31.280       133
31.290       113
31.300       180
31.310       127
31.320       100
31.330       173
31.340       100
31.350       133
31.360       113
31.370        80
31.380        93
31.390        93
31.400       133
31.410        67
31.420        80
31.430        73
31.440        40
31.450        80
31.460        87
31.470       120
31.480        60
31.490        73
31.500        60
31.510        53
31.520        73
31.530        93
31.540        73
31.550        80
31.560        73
31.570       120
31.580        67
31.590        87
31.600       113
31.610        13
31.620        80
31.630        87
31.640        93
31.650        73
31.660        40
31.670        67
31.680        73
31.690        87
31.700        80
31.710        60
31.720        67
31.730       127
31.740        80
31.750        67
31.760       120
31.770        87
31.780        47
31.790        40
31.800        67
31.810        67
31.820        60
31.830        53
31.840        47
31.850        80
31.860        40
31.870        27
31.880        53
31.890        47
31.900        53
31.910        47
31.920        67
31.930        80
31.940        33
31.950        60
31.960        60
31.970        67
31.980        53
31.990        47
32.000        60
32.010        73
32.020        47
32.030        47
32.040        47
32.050        40
32.060        67
32.070        33
32.080        53
32.090        53
32.100        53
32.110        20
32.120        60
32.130        53
32.140        73
32.150        60
32.160        33
32.170        47
32.180        40
32.190        93
32.200        53
32.210        67
32.220        47
32.230        87
32.240        53
32.250        40
32.260        80
32.270        67
32.280        80
32.290        47
32.300        53
32.310        60
32.320        40
32.330        93
32.340        33
32.350        20
32.360        33
32.370        73
32.380        53
32.390         7
32.400        40
32.410        53
32.420        60
32.430        27
32.440        47
32.450        53
32.460        47
32.470        87
32.480        47
32.490        40
32.500        60
32.510        47
32.520        33
32.530        60
32.540        87
32.550        40
32.560        53
32.570        67
32.580        87
32.590        53
32.600        13
32.610        80
32.620         7
32.630        93
32.640        20
32.650        80
32.660        40
32.670        27
32.680        47
32.690        73
32.700        60
32.710        33
32.720        40
32.730        33
32.740        73
32.750        47
32.760        53
32.770        27
32.780        40
32.790        33
32.800        47
32.810        27
32.820        33
32.830        47
32.840        93
32.850        40
32.860        40
32.870        33
32.880         7
32.890       207
32.900        67
32.910        27
32.920        33
32.930        60
32.940        47
32.950        40
32.960        60
32.970        40
32.980        27
32.990        40
33.000        20
33.010        60
33.020        47
33.030        40
33.040        20
33.050        60
33.060        33
33.070        33
33.080        20
33.090        87
33.100        33
33.110        73
33.120        47
33.130        33
33.140        60
33.150        47
33.160        73
33.170        60
33.180         7
33.190        40
33.200        27
33.210        67
33.220        33
33.230       100
33.240        27
33.250        33
33.260        20
33.270        27
33.280        33
33.290        47
33.300        33
33.310        20
33.320        27
33.330        40
33.340        47
33.350        53
33.360        20
33.370        73
33.380        33
33.390        33
33.400        20
33.410        20
33.420        60
33.430        60
33.440        53
33.450        73
33.460        33
33.470        40
33.480        60
33.490        53
33.500        20
33.510        47
33.520        47
33.530        67
33.540        40
33.550        47
33.560        33
33.570        20
33.580        73
33.590        53
33.600        47
33.610        33
33.620        40
33.630        53
33.640        33
33.650        40
33.660        13
33.670        27
33.680        40
33.690        33
33.700        33
33.710        60
33.720        13
33.730        33
33.740        27
33.750        27
33.760        47
33.770        33
33.780        20
33.790        53
33.800        33
33.810        40
33.820        33
33.830        20
33.840        53
33.850        20
33.860        40
33.870        33
33.880        40
33.890        40
33.900        27
33.910        60
33.920        40
33.930        20
33.940        13
33.950        60
33.960        33
33.970        40
33.980        13
33.990        27
34.000        27
34.010        27
34.020        40
34.030        33
34.040         7
34.050        47
34.060        53
34.070        60
34.080        47
34.090        67
34.100        33
34.110        20
34.120        33
34.130        27
34.140        27
34.150        67
34.160        47
34.170        40
34.180        27
34.190        20
34.200        27
34.210        33
34.220        53
34.230        40
34.240        47
34.250        27
34.260        47
34.270        40
34.280        73
34.290        40
34.300        40
34.310        60
34.320        20
34.330        67
34.340        47
34.350        27
34.360        27
34.370        60
34.380        60
34.390        40
34.400        40
34.410        27
34.420        67
34.430        20
34.440        27
34.450        20
34.460        40
34.470        13
34.480        33
34.490        40
34.500        33
34.510        60
34.520        27
34.530        47
34.540        27
34.550        27
34.560        13
34.570        67
34.580        27
34.590        40
34.600        13
34.610        40
34.620        33
34.630        33
34.640        40
34.650        47
34.660        13
34.670        27
34.680        33
34.690        40
34.700        27
34.710        20
34.720        40
34.730        20
34.740        20
34.750        67
34.760        67
34.770        47
34.780        27
34.790        40
34.800        33
34.810        40
34.820        13
34.830        33
34.840        60
34.850        53
34.860        40
34.870        33
34.880        53
34.890        47
34.900        13
34.910        47
34.920        33
34.930        40
34.940        47
34.950        20
34.960        60
34.970        40
34.980        27
34.990        20
35.000        33
35.010        53
35.020        33
35.030        27
35.040        27
35.050        73
35.060        80
35.070        40
35.080        47
35.090        47
35.100        47
35.110        53
35.120        33
35.130        73
35.140       107
35.150        53
35.160       100
35.170        67
35.180        93
35.190        73
35.200       107
35.210       133
35.220       127
35.230       100
35.240        73
35.250        67
35.260        53
35.270       160
35.280       100
35.290        60
35.300        87
35.310        73
35.320        73
35.330        47
35.340        60
35.350        27
35.360        40
35.370        53
35.380        33
35.390        47
35.400        47
35.410        47
35.420        47
35.430        27
35.440        20
35.450        80
35.460         7
35.470        60
35.480        33
35.490        60
35.500        53
35.510        20
35.520         0
35.530        13
35.540        20
35.550        33
35.560        80
35.570         7
35.580        40
35.590        27
35.600        40
35.610        53
35.620        33
35.630        27
35.640        33
35.650        33
35.660        40
35.670        27
35.680        13
35.690        13
35.700        33
35.710        40
35.720        40
35.730        47
35.740        27
35.750        33
35.760        20
35.770        53
35.780        47
35.790        40
35.800        20
35.810        40
35.820        47
35.830        33
35.840        33
35.850        20
35.860        33
35.870        40
35.880        27
35.890        13
35.900        13
35.910        53
35.920        33
35.930        47
35.940        47
35.950        33
35.960        20
35.970        40
35.980        33
35.990        27
36.000        27
36.010        40
36.020        27
36.030        20
36.040        33
36.050        20
36.060        20
36.070        27
36.080        13
36.090        53
36.100        27
36.110        27
36.120        40
36.130        13
36.140        33
36.150        33
36.160        27
36.170        33
36.180        47
36.190        47
36.200        33
36.210        40
36.220        20
36.230        40
36.240        20
36.250        27
36.260        33
36.270        13
36.280        40
36.290        20
36.300        40
36.310        27
36.320        33
36.330        47
36.340        33
36.350        20
36.360        13
36.370        27
36.380        27
36.390        20
36.400        40
36.410        20
36.420        40
36.430        33
36.440        20
36.450        80
36.460        20
36.470        53
36.480        27
36.490        27
36.500        33
36.510        53
36.520        27
36.530        33
36.540        27
36.550        33
36.560        40
36.570        20
36.580        13
36.590        20
36.600        13
36.610        20
36.620        13
36.630        40
36.640        20
36.650        40
36.660        20
36.670        20
36.680        20
36.690        47
36.700        27
36.710        53
36.720        47
36.730        20
36.740        27
36.750        60
36.760        20
36.770        33
36.780        40
36.790        20
36.800        13
36.810        20
36.820        20
36.830        20
36.840        13
36.850        27
36.860        40
36.870        13
36.880        20
36.890        80
36.900        33
36.910        53
36.920        27
36.930        27
36.940        20
36.950        40
36.960        20
36.970        20
36.980        20
36.990        20
37.000        73
37.010        67
37.020        40
37.030        27
37.040        20
37.050        13
37.060        40
37.070        47
37.080        13
37.090        13
37.100         7
37.110        20
37.120        13
37.130        40
37.140        53
37.150        20
37.160        53
37.170        13
37.180        33
37.190        33
37.200        33
37.210        20
37.220        33
37.230        27
37.240        20
37.250        47
37.260        60
37.270        27
37.280        27
37.290         7
37.300        40
37.310         7
37.320        47
37.330        40
37.340        27
37.350        33
37.360        27
37.370        27
37.380        47
37.390        20
37.400        33
37.410        20
37.420        20
37.430        33
37.440        40
37.450        13
37.460        27
37.470        27
37.480        27
37.490        27
37.500        20
37.510        27
37.520        33
37.530         7
37.540         7
37.550        27
37.560        13
37.570        33
37.580        53
37.590        13
37.600        27
37.610        27
37.620        27
37.630        47
37.640        20
37.650        13
37.660        47
37.670        47
37.680        27
37.690        33
37.700        40
37.710        27
37.720        27
37.730        40
37.740        33
37.750        20
37.760        27
37.770        40
37.780        13
37.790        20
37.800        40
37.810        33
37.820        40
37.830        60
37.840        33
37.850        20
37.860        73
37.870        27
37.880        73
37.890        53
37.900        73
37.910        20
37.920        20
37.930        13
37.940        33
37.950        33
37.960        33
37.970        27
37.980        40
37.990        47
38.000        33
38.010        47
38.020        13
38.030        27
38.040        27
38.050        20
38.060        40
38.070        27
38.080        40
38.090        73
38.100        87
38.110        40
38.120        60
38.130        40
38.140        67
38.150        20
38.160        60
38.170        20
38.180        87
38.190        53
38.200        80
38.210        67
38.220        80
38.230        87
38.240        47
38.250        67
38.260        87
38.270        67
38.280        60
38.290        87
38.300        33
38.310        33
38.320        47
38.330        27
38.340        47
38.350        67
38.360        33
38.370        40
38.380        53
38.390        33
38.400        20
38.410        20
38.420        33
38.430        20
38.440        40
38.450        40
38.460        27
38.470        13
38.480        13
38.490        47
38.500        20
38.510        27
38.520        13
38.530        13
38.540        13
38.550        33
38.560        47
38.570        20
38.580        13
38.590        33
38.600        47
38.610        27
38.620        27
38.630        47
38.640        27
38.650        27
38.660        27
38.670        27
38.680        33
38.690        20
38.700        20
38.710         7
38.720         0
38.730         7
38.740        47
38.750        27
38.760        47
38.770        33
38.780        20
38.790        20
38.800        33
38.810        20
38.820        20
38.830        33
38.840        33
38.850        33
38.860        13
38.870        67
38.880        33
38.890        20
38.900        13
38.910        27
38.920        27
38.930        13
38.940        40
38.950         7
38.960        20
38.970        13
38.980        67
38.990        20
39.000        27
39.010        47
39.020        27
39.030        33
39.040        13
39.050        27
39.060        20
39.070        47
39.080        20
39.090         0
39.100        20
39.110        13
39.120        13
39.130        27
39.140         7
39.150        33
39.160        40
39.170        27
39.180         7
39.190        20
39.200        27
39.210        33
39.220        20
39.230        40
39.240         0
39.250        53
39.260        53
39.270        27
39.280        33
39.290         0
39.300        20
39.310        13
39.320        20
39.330        47
39.340        40
39.350        13
39.360         7
39.370        20
39.380         0
39.390        20
39.400        13
39.410        13
39.420         7
39.430        13
39.440         7
39.450        20
39.460        13
39.470        27
39.480         7
39.490        33
39.500        27
39.510        13
39.520        27
39.530        20
39.540        13
39.550        27
39.560        27
39.570         7
39.580        13
39.590        40
39.600        33
39.610        20
39.620        20
39.630        27
39.640         7
39.650         7
39.660        13
39.670        27
39.680         7
39.690         7
39.700        13
39.710        20
39.720        13
39.730        40
39.740        13
39.750        53
39.760         0
39.770        47
39.780        27
39.790        13
39.800        13
39.810        13
39.820        27
39.830        33
39.840         0
39.850        13
39.860        27
39.870         7
39.880        40
39.890        13
39.900        13
39.910        33
39.920         7
39.930        13
39.940        27
39.950        40
39.960        33
39.970        20
39.980        20
39.990        27
40.000        20
40.010        27
40.020        13
40.030        40
40.040        47
40.050         7
40.060         0
40.070         7
40.080        33
40.090        27
40.100        13
40.110         7
40.120        33
40.130        33
40.140         0
40.150        13
40.160        40
40.170        27
40.180         7
40.190         7
40.200        27
40.210        33
40.220        13
40.230        20
40.240        27
40.250        20
40.260        27
40.270        27
40.280        27
40.290        27
40.300        27
40.310        27
40.320        33
40.330        20
40.340        33
40.350         7
40.360        33
40.370        13
40.380        40
40.390        47
40.400        33
40.410        13
40.420        27
40.430        13
40.440         7
40.450        13
40.460        40
40.470         7
40.480        13
40.490        20
40.500        20
40.510        33
40.520        13
40.530        13
40.540        47
40.550        20
40.560        33
40.570        47
40.580        13
40.590        20
40.600        53
40.610        20
40.620        20
40.630        20
40.640        20
40.650         7
40.660        27
40.670        13
40.680        40
40.690         7
40.700        13
40.710        20
40.720        13
40.730         7
40.740         0
40.750        13
40.760        13
40.770        20
40.780        13
40.790        13
40.800        47
40.810        13
40.820        27
40.830        33
40.840         7
40.850        33
40.860        33
40.870         7
40.880        13
40.890        20
40.900        13
40.910        40
40.920        13
40.930        40
40.940        27
40.950        13
40.960        27
40.970        27
40.980        20
40.990         7
41.000        13
41.010         0
41.020        20
41.030        40
41.040         7
41.050        27
41.060        20
41.070        27
41.080        20
41.090        20
41.100        27
41.110         0
41.120         7
41.130        20
41.140        13
41.150        33
41.160        20
41.170         0
41.180        47
41.190        13
41.200        20
41.210        20
41.220        20
41.230        13
41.240        47
41.250        27
41.260        33
41.270        47
41.280        20
41.290        20
41.300         7
41.310        33
41.320        33
41.330        13
41.340        40
41.350        20
41.360        33
41.370         7
41.380        20
41.390        20
41.400        27
41.410        33
41.420        13
41.430        33
41.440         7
41.450        20
41.460        13
41.470        27
41.480         7
41.490        27
41.500         7
41.510        20
41.520        40
41.530        13
41.540        27
41.550        13
41.560        20
41.570        27
41.580        33
41.590        40
41.600        13
41.610        27
41.620        13
41.630         7
41.640        47
41.650        33
41.660        40
41.670        33
41.680        47
41.690        40
41.700        93
41.710        60
41.720        87
41.730        93
41.740        93
41.750       100
41.760        80
41.770        33
41.780        87
41.790        40
41.800        53
41.810        13
41.820        47
41.830        53
41.840        40
41.850        47
41.860        40
41.870        60
41.880        47
41.890        20
41.900        13
41.910        20
41.920        13
41.930        33
41.940        13
41.950        13
41.960        13
41.970        13
41.980        20
41.990         7
42.000        20
42.010        33
42.020        40
42.030        40
42.040        20
42.050        40
42.060        27
42.070        13
42.080         7
42.090        60
42.100        13
42.110         7
42.120        20
42.130        13
42.140         7
42.150        40
42.160        33
42.170        27
42.180        27
42.190        13
42.200        33
42.210        20
42.220        33
42.230        27
42.240        13
42.250        20
42.260        27
42.270        13
42.280        20
42.290        20
42.300        27
42.310        20
42.320        27
42.330        27
42.340        20
42.350        20
42.360        13
42.370        20
42.380         0
42.390        27
42.400        13
42.410        20
42.420         7
42.430        27
42.440        27
42.450        27
42.460         7
42.470        27
42.480        20
42.490         7
42.500        33
42.510        13
42.520        40
42.530         7
42.540        27
42.550         0
42.560        13
42.570        40
42.580        27
42.590         0
42.600        13
42.610        27
42.620        27
42.630        33
42.640        20
42.650        13
42.660        47
42.670        13
42.680        13
42.690        20
42.700        27
42.710        20
42.720        20
42.730        33
42.740        20
42.750        40
42.760        13
42.770         7
42.780         7
42.790        20
42.800        20
42.810        20
42.820        13
42.830        20
42.840        13
42.850        20
42.860        40
42.870        40
42.880        27
42.890        13
42.900        20
42.910        20
42.920        33
42.930        27
42.940         0
42.950        13
42.960        13
42.970        33
42.980        27
42.990        33
43.000        20
43.010        13
43.020        40
43.030        27
43.040        20
43.050        13
43.060        47
43.070         7
43.080        13
43.090        20
43.100        13
43.110        27
43.120        33
43.130        13
43.140        20
43.150        13
43.160        33
43.170         0
43.180        27
43.190        27
43.200         7
43.210        20
43.220        33
43.230         7
43.240        20
43.250        40
43.260        47
43.270        40
43.280        27
43.290        27
43.300         7
43.310         7
43.320        53
43.330        33
43.340         7
43.350        53
43.360        20
43.370        73
43.380        53
43.390        67
43.400        67
43.410       107
43.420        73
43.430        47
43.440        80
43.450        40
43.460        40
43.470        27
43.480        40
43.490        40
43.500        53
43.510        80
43.520        47
43.530        53
43.540        73
43.550        53
43.560        40
43.570        47
43.580        13
43.590        40
43.600        20
43.610        27
43.620        33
43.630        27
43.640        33
43.650        33
43.660        20
43.670        20
43.680        27
43.690        27
43.700         7
43.710        33
43.720        20
43.730         7
43.740        27
43.750        40
43.760         0
43.770        13
43.780        27
43.790         7
43.800        27
43.810        20
43.820        33
43.830         7
43.840        13
43.850         0
43.860        27
43.870        13
43.880        27
43.890        27
43.900         7
43.910        13
43.920        47
43.930        13
43.940        27
43.950         7
43.960        13
43.970        33
43.980        20
43.990        20
44.000        20
44.010        13
44.020        20
44.030        20
44.040        20
44.050        13
44.060        40
44.070        20
44.080         0
44.090         0
44.100        13
44.110         7
44.120        13
44.130        33
44.140        27
44.150        33
44.160        13
44.170        33
44.180        27
44.190        33
44.200        27
44.210         7
44.220         7
44.230        53
44.240        27
44.250        27
44.260        33
44.270        13
44.280        33
44.290        20
44.300        27
44.310        60
44.320        40
44.330        20
44.340        53
44.350        27
44.360        27
44.370        33
44.380        60
44.390        20
44.400        40
44.410        27
44.420        27
44.430        47
44.440        40
44.450        47
44.460        60
44.470        40
44.480        33
44.490        40
44.500        27
44.510        40
44.520        20
44.530        33
44.540        27
44.550        40
44.560        73
44.570        33
44.580        33
44.590         7
44.600        20
44.610        40
44.620        40
44.630        27
44.640        33
44.650        20
44.660        33
44.670         7
44.680        27
44.690        20
44.700        27
44.710        40
44.720        47
44.730        13
44.740        33
44.750        67
44.760         7
44.770        13
44.780        27
44.790        33
44.800        40
44.810         7
44.820        13
44.830         7
44.840        13
44.850        40
44.860        27
44.870        27
44.880         0
44.890        13
44.900        13
44.910        13
44.920        20
44.930        20
44.940         7
44.950        33
44.960        13
44.970        13
44.980        27
44.990        27
45.000         7
45.010        20
45.020        27
45.030         7
45.040        20
45.050         0
45.060        27
45.070        20
45.080        20
45.090        13
45.100         0
45.110        27
45.120        20
45.130        20
45.140         7
45.150         7
45.160        33
45.170        13
45.180        27
45.190        13
45.200        27
45.210        13
45.220        20
45.230         0
45.240        13
45.250         7
45.260        27
45.270         7
45.280        33
45.290         7
45.300        20
45.310         7
45.320        27
45.330        33
45.340        33
45.350        20
45.360         7
45.370        13
45.380        13
45.390         7
45.400        13
45.410        20
45.420        13
45.430         7
45.440        20
45.450        33
45.460        20
45.470         7
45.480        13
45.490        27
45.500         7
45.510        20
45.520        13
45.530        13
45.540         0
45.550         7
45.560        33
45.570         7
45.580        20
45.590        27
45.600         7
45.610        20
45.620         7
45.630        27
45.640        20
45.650        13
45.660        20
45.670         7
45.680        13
45.690        20
45.700        27
45.710        40
45.720        13
45.730         0
45.740         0
45.750         7
45.760        13
45.770        33
45.780        27
45.790        40
45.800         0
45.810        27
45.820        13
45.830        13
45.840        20
45.850        20
45.860        20
45.870         7
45.880        27
45.890        33
45.900        20
45.910        13
45.920        13
45.930        27
45.940        20
45.950         0
45.960        27
45.970         0
45.980        13
45.990        20
46.000        27
46.010        20
46.020        13
46.030        20
46.040        33
46.050        40
46.060         7
46.070        20
46.080        20
46.090        13
46.100         7
46.110         7
46.120        27
46.130        13
46.140        13
46.150        20
46.160        33
46.170        33
46.180         7
46.190         0
46.200         7
46.210        27
46.220        27
46.230        20
46.240         0
46.250        33
46.260        13
46.270        33
46.280        13
46.290        13
46.300         0
46.310        20
46.320        40
46.330        20
46.340        13
46.350        13
46.360        27
46.370         0
46.380        20
46.390        33
46.400        13
46.410        13
46.420        13
46.430         7
46.440        40
46.450         7
46.460         7
46.470        20
46.480        33
46.490        27
46.500         7
46.510         0
46.520         7
46.530        20
46.540         0
46.550        20
46.560        40
46.570         7
46.580         7
46.590        13
46.600         7
46.610        20
46.620        27
46.630        13
46.640        27
46.650        13
46.660        20
46.670         7
46.680        20
46.690         7
46.700        13
46.710        20
46.720        13
46.730        13
46.740         0
46.750        13
46.760         7
46.770        13
46.780        20
46.790        20
46.800        20
46.810        20
46.820         7
46.830        27
46.840         0
46.850        20
46.860        13
46.870        13
46.880        13
46.890        13
46.900        27
46.910         7
46.920         7
46.930        20
46.940         7
46.950        20
46.960        20
46.970        13
46.980        20
46.990         7
47.000        20
47.010        13
47.020         7
47.030        20
47.040        13
47.050        13
47.060        20
47.070        27
47.080         7
47.090        20
47.100        20
47.110        40
47.120        20
47.130         0
47.140        27
47.150        20
47.160        27
47.170         7
47.180        13
47.190        27
47.200        20
47.210         7
47.220        20
47.230        33
47.240        20
47.250         7
47.260        13
47.270         7
47.280         7
47.290        20
47.300         7
47.310        20
47.320        20
47.330        20
47.340        27
47.350         7
47.360        27
47.370        13
47.380        13
47.390         7
47.400         0
47.410         0
47.420        13
47.430        13
47.440         7
47.450        27
47.460         7
47.470         7
47.480        27
47.490        40
47.500         7
47.510         0
47.520        20
47.530        20
47.540        27
47.550        20
47.560        20
47.570         7
47.580        40
47.590         7
47.600         7
47.610        33
47.620        27
47.630         0
47.640         0
47.650         0
47.660        27
47.670         7
47.680         7
47.690        13
47.700        13
47.710        13
47.720        20
47.730        20
47.740         7
47.750         0
47.760         0
47.770        20
47.780        33
47.790        13
47.800         7
47.810        13
47.820         0
47.830         7
47.840        13
47.850        20
47.860        20
47.870         7
47.880        33
47.890         0
47.900        13
47.910         0
47.920        27
47.930        27
47.940         7
47.950         7
47.960        33
47.970        27
47.980        40
47.990        20
48.000        13
48.010         0
48.020        13
48.030        13
48.040        27
48.050         7
48.060        20
48.070        40
48.080         0
48.090        13
48.100         7
48.110         7
48.120         7
48.130        33
48.140         0
48.150         7
48.160        20
48.170        13
48.180         0
48.190        27
48.200         0
48.210         7
48.220        27
48.230        13
48.240        20
48.250        13
48.260        13
48.270         7
48.280        13
48.290        13
48.300         0
48.310        27
48.320        13
48.330        27
48.340        13
48.350        13
48.360        13
48.370         0
48.380         0
48.390         7
48.400        20
48.410        40
48.420        27
48.430         7
48.440        13
48.450        13
48.460        27
48.470         7
48.480        13
48.490        13
48.500        27
48.510        33
48.520        20
48.530         7
48.540         7
48.550         7
48.560        27
48.570        13
48.580        13
48.590        13
48.600        13
48.610        20
48.620        33
48.630        47
48.640        20
48.650        13
48.660        27
48.670         7
48.680        20
48.690        13
48.700        33
48.710         7
48.720         0
48.730        20
48.740         0
48.750        20
48.760         7
48.770        27
48.780        20
48.790        13
48.800         7
48.810        20
48.820        13
48.830         0
48.840         7
48.850        20
48.860        20
48.870         7
48.880        20
48.890        13
48.900         0
48.910        33
48.920        40
48.930         7
48.940        20
48.950        20
48.960        33
48.970        20
48.980        13
48.990        13
49.000         7
49.010        20
49.020        20
49.030        13
49.040        33
49.050         7
49.060        27
49.070         7
49.080         0
49.090        20
49.100         0
49.110         0
49.120        13
49.130        20
49.140        20
49.150        27
49.160         0
49.170         0
49.180         7
49.190         7
49.200        20
49.210        20
49.220        33
49.230        27
49.240        20
49.250        20
49.260         0
49.270        13
49.280        13
49.290         7
49.300         7
49.310        13
49.320         0
49.330         0
49.340         7
49.350        13
49.360        27
49.370        13
49.380         0
49.390         7
49.400        13
49.410        27
49.420        13
49.430        27
49.440         0
49.450         7
49.460        13
49.470        40
49.480        13
49.490        40
49.500        20
49.510         7
49.520        13
49.530        20
49.540        27
49.550         7
49.560        20
49.570        13
49.580         0
49.590        33
49.600        20
49.610        27
49.620        13
49.630         0
49.640         0
49.650        13
49.660         0
49.670         0
49.680         7
49.690        13
49.700         7
49.710        13
49.720         0
49.730         0
49.740        27
49.750        20
49.760        27
49.770        20
49.780        13
49.790        27
49.800        20
49.810         0
49.820         7
49.830        13
49.840        13
49.850        13
49.860        20
49.870        13
49.880        40
49.890        13
49.900        20
49.910        13
49.920        27
49.930        20
49.940        20
49.950         0
49.960        27
49.970        20
49.980        13
49.990        20
50.000        20
50.010        27
50.020        13
50.030         7
50.040        20
50.050        13
50.060         0
50.070        33
50.080        13
50.090        40
50.100        13
50.110        13
50.120        13
50.130         0
50.140        13
50.150        27
50.160         7
50.170         7
50.180        13
50.190        20
50.200        20
50.210         7
50.220        27
50.230        27
50.240         7
50.250        27
50.260         7
50.270        20
50.280         0
50.290         7
50.300        13
50.310        27
50.320         7
50.330        27
50.340         7
50.350        13
50.360         0
50.370        13
50.380        27
50.390        20
50.400        13
50.410        27
50.420        20
50.430        40
50.440        27
50.450        13
50.460        13
50.470        33
50.480         7
50.490        20
50.500        13
50.510        33
50.520        20
50.530        13
50.540         7
50.550        40
50.560         7
50.570         0
50.580        20
50.590        27
50.600        27
50.610        13
50.620        13
50.630         0
50.640         7
50.650        13
50.660        13
50.670        27
50.680         7
50.690         7
50.700         7
50.710         7
50.720        33
50.730        13
50.740        13
50.750         7
50.760         7
50.770         0
50.780         0
50.790        20
50.800        13
50.810        13
50.820         7
50.830        33
50.840        13
50.850        13
50.860        13
50.870         7
50.880         7
50.890        20
50.900         7
50.910        13
50.920         7
50.930         0
50.940        13
50.950        27
50.960         7
50.970        13
50.980         7
50.990         7
51.000        20
51.010         7
51.020        13
51.030         0
51.040        13
51.050         0
51.060        20
51.070        20
51.080        13
51.090        13
51.100        13
51.110        13
51.120         0
51.130        13
51.140        27
51.150        20
51.160        13
51.170         7
51.180        27
51.190        13
51.200        13
51.210         7
51.220         0
51.230        20
51.240        20
51.250        20
51.260         7
51.270        20
51.280        13
51.290         7
51.300        13
51.310         7
51.320         0
51.330        27
51.340         7
51.350         7
51.360        20
51.370         7
51.380        13
51.390        20
51.400        27
51.410         0
51.420        13
51.430        13
51.440        20
51.450        27
51.460         0
51.470         7
51.480        20
51.490         0
51.500        13
51.510         7
51.520        13
51.530        13
51.540         7
51.550         7
51.560         0
51.570        20
51.580        20
51.590        27
51.600         7
51.610         7
51.620        27
51.630        13
51.640        20
51.650        20
51.660         0
51.670        13
51.680        20
51.690         7
51.700        20
51.710        27
51.720         0
51.730        13
51.740        20
51.750        13
51.760        20
51.770         0
51.780        20
51.790        20
51.800         7
51.810        20
51.820         7
51.830        20
51.840        13
51.850         0
51.860         7
51.870         7
51.880         7
51.890         0
51.900        40
51.910        13
51.920        13
51.930         7
51.940        13
51.950         7
51.960        20
51.970        13
51.980        20
51.990        13
52.000         7
52.010        13
52.020        20
52.030        20
52.040         0
52.050        33
52.060        13
52.070         7
52.080        33
52.090         7
52.100         7
52.110         7
52.120        20
52.130        20
52.140        27
52.150        13
52.160         7
52.170        20
52.180        27
52.190        20
52.200        13
52.210         7
52.220         7
52.230        20
52.240         7
52.250        13
52.260        20
52.270         7
52.280        27
52.290        13
52.300        20
52.310        20
52.320        33
52.330        13
52.340         7
52.350        13
52.360        33
52.370        33
52.380        20
52.390        13
52.400         7
52.410         0
52.420        27
52.430        13
52.440        13
52.450        13
52.460        13
52.470        33
52.480        13
52.490        33
52.500        13
52.510        33
52.520         7
52.530         0
52.540         7
52.550         7
52.560        40
52.570         7
52.580        27
52.590        27
52.600        20
52.610        20
52.620        20
52.630        20
52.640         7
52.650        40
52.660        20
52.670        27
52.680         7
52.690        20
52.700        13
52.710        13
52.720        33
52.730        33
52.740        20
52.750        13
52.760        13
52.770         0
52.780        27
52.790        13
52.800        20
52.810         0
52.820         7
52.830         0
52.840        20
52.850         7
52.860        27
52.870        27
52.880        20
52.890         7
52.900         7
52.910         7
52.920        20
52.930         7
52.940        20
52.950         7
52.960        20
52.970        13
52.980        27
52.990         0
53.000         0
53.010        13
53.020        33
53.030        13
53.040         7
53.050         7
53.060         0
53.070        33
53.080        20
53.090        13
53.100        13
53.110        27
53.120        13
53.130        27
53.140         0
53.150        13
53.160         7
53.170         7
53.180        27
53.190        20
53.200        13
53.210        13
53.220        27
53.230         0
53.240         0
53.250        20
53.260        27
53.270         7
53.280        13
53.290        13
53.300        20
53.310         7
53.320        20
53.330        13
53.340         7
53.350        20
53.360        13
53.370        13
53.380        13
53.390        33
53.400        13
53.410        13
53.420        20
53.430        20
53.440        13
53.450        13
53.460        27
53.470        13
53.480        40
53.490        20
53.500         7
53.510         0
53.520        27
53.530        20
53.540        47
53.550         7
53.560        27
53.570        27
53.580        33
53.590        13
53.600        33
53.610         7
53.620        20
53.630        13
53.640        20
53.650        13
53.660        13
53.670        13
53.680        13
53.690         7
53.700        13
53.710         7
53.720         7
53.730         0
53.740        40
53.750         7
53.760        20
53.770         7
53.780        27
53.790         7
53.800        13
53.810        13
53.820        27
53.830        20
53.840         7
53.850        13
53.860        33
53.870        13
53.880        13
53.890        27
53.900         7
53.910         0
53.920         0
53.930        47
53.940         7
53.950        27
53.960        20
53.970        27
53.980        20
53.990        27
54.000        13
54.010        20
54.020        13
54.030        27
54.040        13
54.050        13
54.060         7
54.070        20
54.080         7
54.090        20
54.100        33
54.110        13
54.120         7
54.130        20
54.140        13
54.150        20
54.160         7
54.170        13
54.180        13
54.190        13
54.200        20
54.210         7
54.220        20
54.230        13
54.240        13
54.250         7
54.260        13
54.270        20
54.280         0
54.290        27
54.300         7
54.310        20
54.320        27
54.330         0
54.340        13
54.350        20
54.360        13
54.370        13
54.380         0
54.390         7
54.400        27
54.410         0
54.420         7
54.430         7
54.440        13
54.450        13
54.460        20
54.470        20
54.480        27
54.490        20
54.500         7
54.510        13
54.520         7
54.530         0
54.540        20
54.550         0
54.560        27
54.570        27
54.580         7
54.590        27
54.600        27
54.610        33
54.620        20
54.630        20
54.640        13
54.650         7
54.660        20
54.670        13
54.680        33
54.690         0
54.700        33
54.710        20
54.720        33
54.730        53
54.740        27
54.750         7
54.760        33
54.770        60
54.780        20
54.790        13
54.800        20
54.810        13
54.820        27
54.830        60
54.840        20
54.850        40
54.860        20
54.870        20
54.880        40
54.890        67
54.900        53
54.910        67
54.920        53
54.930       100
54.940        67
54.950       120
54.960        87
54.970       120
54.980        33
54.990        93
55.000       147
55.010       160
55.020       133
55.030       180
55.040       207
55.050       167
55.060       280
55.070       187
55.080       333
55.090       287
55.100       213
55.110       293
55.120       367
55.130       347
55.140       200
55.150       227
55.160       320
55.170       233
55.180       320
55.190       327
55.200       200
55.210       280
55.220       147
55.230       233
55.240       213
55.250       167
55.260       167
55.270       167
55.280       167
55.290       133
55.300       113
55.310        93
55.320       127
55.330        80
55.340        73
55.350        60
55.360       140
55.370       140
55.380        60
55.390        60
55.400        53
55.410        73
55.420        20
55.430        27
55.440        13
55.450        33
55.460        33
55.470        20
55.480        20
55.490        13
55.500        40
55.510        27
55.520        33
55.530        40
55.540        27
55.550        47
55.560        27
55.570        20
55.580        13
55.590         7
55.600         0
55.610        13
55.620        13
55.630        20
55.640        40
55.650        20
55.660         0
55.670        13
55.680        13
55.690        13
55.700        33
55.710        13
55.720        13
55.730        27
55.740        20
55.750        27
55.760        27
55.770        27
55.780         7
55.790        27
55.800        27
55.810        20
55.820         7
55.830        13
55.840        13
55.850        27
55.860         7
55.870        33
55.880        27
55.890         7
55.900        20
55.910        40
55.920         7
55.930        27
55.940        20
55.950        27
55.960        13
55.970         0
55.980        20
55.990        27
56.000        20
56.010        40
56.020         7
56.030        27
56.040        13
56.050        13
56.060        27
56.070        13
56.080         7
56.090         7
56.100        20
56.110        27
56.120        20
56.130         7
56.140        20
56.150        13
56.160         7
56.170         7
56.180         7
56.190        33
56.200        13
56.210        13
56.220         7
56.230         7
56.240        13
56.250        27
56.260         7
56.270         0
56.280         7
56.290         0
56.300         7
56.310         7
56.320        27
56.330        47
56.340        13
56.350         7
56.360        20
56.370        27
56.380        33
56.390        33
56.400        33
56.410        40
56.420        20
56.430         7
56.440         7
56.450        20
56.460         7
56.470        40
56.480        20
56.490        20
56.500        13
56.510         7
56.520        13
56.530        20
56.540        13
56.550        13
56.560        27
56.570        27
56.580        33
56.590        27
56.600         7
56.610        20
56.620        27
56.630        20
56.640         7
56.650         0
56.660         0
56.670         7
56.680        20
56.690        13
56.700        33
56.710        27
56.720         7
56.730         7
56.740        13
56.750         7
56.760        40
56.770         0
56.780        27
56.790        13
56.800         0
56.810        13
56.820         7
56.830        20
56.840        13
56.850        33
56.860         7
56.870        20
56.880        40
56.890        20
56.900        13
56.910         7
56.920         7
56.930         7
56.940        27
56.950         7
56.960        27
56.970         7
56.980        20
56.990        20
57.000         7
57.010         7
57.020         0
57.030        13
57.040        13
57.050        20
57.060         7
57.070        20
57.080        13
57.090        13
57.100         7
57.110         7
57.120        27
57.130         0
57.140        40
57.150        13
57.160        27
57.170        13
57.180        40
57.190        20
57.200         7
57.210        13
57.220        13
57.230        40
57.240         0
57.250         0
57.260        13
57.270         7
57.280        13
57.290        27
57.300         0
57.310        13
57.320        33
57.330         7
57.340         7
57.350        20
57.360        33
57.370        27
57.380         7
57.390         7
57.400         7
57.410         7
57.420        13
57.430        13
57.440        33
57.450        33
57.460        13
57.470        27
57.480        33
57.490        33
57.500        20
57.510        13
57.520        40
57.530        13
57.540        20
57.550        60
57.560        53
57.570        20
57.580        47
57.590        53
57.600        60
57.610        47
57.620        80
57.630        93
57.640       100
57.650        60
57.660        40
57.670         7
57.680        27
57.690        53
57.700        40
57.710        27
57.720        13
57.730        47
57.740        33
57.750        53
57.760        13
57.770        47
57.780        33
57.790        73
57.800        27
57.810        27
57.820        20
57.830        27
57.840         7
57.850        20
57.860         7
57.870        27
57.880         0
57.890        20
57.900        13
57.910        20
57.920         7
57.930         0
57.940         0
57.950         7
57.960        33
57.970         7
57.980        13
57.990        13
58.000         0
58.010         7
58.020         7
58.030        27
58.040        20
58.050         0
58.060        20
58.070        20
58.080        20
58.090        20
58.100         7
58.110        13
58.120        40
58.130        47
58.140        20
58.150         7
58.160         7
58.170         0
58.180        20
58.190        33
58.200        20
58.210         7
58.220        33
58.230        20
58.240        20
58.250        27
58.260         7
58.270         7
58.280        13
58.290        13
58.300        13
58.310         7
58.320        20
58.330         7
58.340         7
58.350         0
58.360        13
58.370        13
58.380        13
58.390         7
58.400         7
58.410         0
58.420         7
58.430         7
58.440        27
58.450        13
58.460        33
58.470         0
58.480        20
58.490        33
58.500        33
58.510         7
58.520         7
58.530        20
58.540        40
58.550        20
58.560        20
58.570        20
58.580        27
58.590         0
58.600         0
58.610        20
58.620         0
58.630         7
58.640        13
58.650        20
58.660         0
58.670         7
58.680         7
58.690        13
58.700         0
58.710        13
58.720        20
58.730        13
58.740        13
58.750         7
58.760        13
58.770         0
58.780        13
58.790        13
58.800        13
58.810         0
58.820        20
58.830         7
58.840        20
58.850         7
58.860        13
58.870         7
58.880        13
58.890         7
58.900         7
58.910        13
58.920         7
58.930         7
58.940        20
58.950        13
58.960        13
58.970         7
58.980         7
58.990         7
59.000        13
59.010        20
59.020        13
59.030        13
59.040         0
59.050         7
59.060         7
59.070        13
59.080         7
59.090         7
59.100        13
59.110         0
59.120        27
59.130        40
59.140         7
59.150         0
59.160         0
59.170        27
59.180        13
59.190         7
59.200        40
59.210         0
59.220        13
59.230        13
59.240        13
59.250         0
59.260        20
59.270         7
59.280        13
59.290        33
59.300         0
59.310        13
59.320        20
59.330        20
59.340        27
59.350         7
59.360        27
59.370        13
59.380        13
59.390         7
59.400         0
59.410        13
59.420        13
59.430        20
59.440        20
59.450        20
59.460        60
59.470        27
59.480        20
59.490        13
59.500         0
59.510        13
59.520         7
59.530        13
59.540        27
59.550         0
59.560        13
59.570         7
59.580        13
59.590        20
59.600         7
59.610         0
59.620        20
59.630         7
59.640         0
59.650         7
59.660        13
59.670        20
59.680         0
59.690         0
59.700        27
59.710         0
59.720        27
59.730         7
59.740         7
59.750         7
59.760        13
59.770        20
59.780        13
59.790         7
59.800        13
59.810        27
59.820        13
59.830        13
59.840        20
59.850        33
59.860        13
59.870        20
59.880        20
59.890         7
59.900        27
59.910        20
59.920        13
59.930         7
59.940        13
59.950        20
59.960        13
59.970        20
59.980         7
59.990        20
60.000         7
