20.000        37
20.020        37
20.040        33
20.060        53
20.080        40
20.100        60
20.120        57
20.140        23
20.160        33
20.180        30
20.200        17
20.220        53
20.240        50
20.260        57
20.280        50
20.300        23
20.320        37
20.340        37
20.360        60
20.380        37
20.400        47
20.420        73
20.440        53
20.460        50
20.480        40
20.500        37
20.520        43
20.540        40
20.560        27
20.580        30
20.600        43
20.620        27
20.640        33
20.660        33
20.680        57
20.700        27
20.720        27
20.740        27
20.760        43
20.780        33
20.800        57
20.820        23
20.840        53
20.860        73
20.880        37
20.900        33
20.920        50
20.940        47
20.960        40
20.980        50
21.000        27
21.020        37
21.040        47
21.060        40
21.080        43
21.100        37
21.120        37
21.140        40
21.160        37
21.180        23
21.200        27
21.220        23
21.240        50
21.260        13
21.280        33
21.300        37
21.320        53
21.340        63
21.360        17
21.380        33
21.400        37
21.420        60
21.440        43
21.460        30
21.480        43
21.500        20
21.520        40
21.540        77
21.560        23
21.580        30
21.600        33
21.620        37
21.640        20
21.660        73
21.680        33
21.700        30
21.720        33
21.740        43
21.760        40
21.780        30
21.800        27
21.820        40
21.840        53
21.860        33
21.880        20
21.900        67
21.920        27
21.940        40
21.960        63
21.980        33
22.000        33
22.020        30
22.040        13
22.060        37
22.080        40
22.100        33
22.120        30
22.140        23
22.160        47
22.180        23
22.200        53
22.220        60
22.240        40
22.260        23
22.280        37
22.300        40
22.320        33
22.340        17
22.360        27
22.380        37
22.400        20
22.420        30
22.440        67
22.460        40
22.480        60
22.500        53
22.520        37
22.540        27
22.560        27
22.580        43
22.600        30
22.620        40
22.640        27
22.660        43
22.680        40
22.700        37
22.720        50
22.740        40
22.760        30
22.780        47
22.800        17
22.820        10
22.840        47
22.860        27
22.880        33
22.900        43
22.920        47
22.940        33
22.960        30
22.980        27
23.000        33
23.020        53
23.040        33
23.060        20
23.080        43
23.100        30
23.120        27
23.140        40
23.160        27
23.180        40
23.200        63
23.220        13
23.240        43
23.260        23
23.280        37
23.300        60
23.320        20
23.340        17
23.360        20
23.380        47
23.400        63
23.420        47
23.440        30
23.460        40
23.480        30
23.500        20
23.520        37
23.540        37
23.560        13
23.580        33
23.600        23
23.620        50
23.640        33
23.660        30
23.680        43
23.700        30
23.720        40
23.740        23
23.760        40
23.780        10
23.800        30
23.820        17
23.840        47
23.860        37
23.880        33
23.900        30
23.920        27
23.940        27
23.960        30
23.980        27
24.000        33
24.020        47
24.040        40
24.060        27
24.080        47
24.100        27
24.120        20
24.140        13
24.160        40
24.180        33
24.200        33
24.220        23
24.240        17
24.260        23
24.280        20
24.300        47
24.320        30
24.340        43
24.360        20
24.380        40
24.400        37
24.420        43
24.440        40
24.460        30
24.480        27
24.500        30
24.520        23
24.540        20
24.560        30
24.580        30
24.600        37
24.620        33
24.640        17
24.660        27
24.680        23
24.700        43
24.720        50
24.740        43
24.760        30
24.780        23
24.800        33
24.820        37
24.840        30
24.860        23
24.880        47
24.900        20
24.920        33
24.940        23
24.960        27
24.980        57
25.000        47
25.020        40
25.040        23
25.060        23
25.080        23
25.100        40
25.120        33
25.140        27
25.160        20
25.180        27
25.200        40
25.220        37
25.240        27
25.260        37
25.280        30
25.300        30
25.320        13
25.340        37
25.360        27
25.380        17
25.400        20
25.420        53
25.440        47
25.460        33
25.480        27
25.500        43
25.520        43
25.540        53
25.560        30
25.580        63
25.600        37
25.620        33
25.640        30
25.660        23
25.680        33
25.700        50
25.720        17
25.740        27
25.760        20
25.780        37
25.800        30
25.820        27
25.840        40
25.860        20
25.880        23
25.900        23
25.920        23
25.940        17
25.960        23
25.980        57
26.000        50
26.020        40
26.040        23
26.060        33
26.080        30
26.100        37
26.120         0
26.140        33
26.160        17
26.180        23
26.200        27
26.220        40
26.240        30
26.260        13
26.280        23
26.300        13
26.320        23
26.340        27
26.360        27
26.380        10
26.400        30
26.420        30
26.440        13
26.460        37
26.480        27
26.500        27
26.520        30
26.540        50
26.560        43
26.580        23
26.600        40
26.620        30
26.640        40
26.660        40
26.680        37
26.700        20
26.720        43
26.740        33
26.760        33
26.780        47
26.800        17
26.820        33
26.840        17
26.860        33
26.880        23
26.900        17
26.920        33
26.940        13
26.960        33
26.980        30
27.000        30
27.020        33
27.040        27
27.060        20
27.080        23
27.100        27
27.120        33
27.140        17
27.160        33
27.180        43
27.200        17
27.220        27
27.240        17
27.260        33
27.280        40
27.300        53
27.320        27
27.340        23
27.360        17
27.380        27
27.400        20
27.420        10
27.440        43
27.460        23
27.480        43
27.500        40
27.520         7
27.540        23
27.560        27
27.580        30
27.600        17
27.620        20
27.640        27
27.660        30
27.680        27
27.700        30
27.720        17
27.740        30
27.760        13
27.780        30
27.800        30
27.820        37
27.840        20
27.860        17
27.880        33
27.900        23
27.920        33
27.940        33
27.960        17
27.980        40
28.000        27
28.020        13
28.040        30
28.060        27
28.080        20
28.100        27
28.120        33
28.140        37
28.160        43
28.180        37
28.200        23
28.220         7
28.240        20
28.260        43
28.280        23
28.300        30
28.320        27
28.340        23
28.360        33
28.380        17
28.400        17
28.420        30
28.440        43
28.460        17
28.480        17
28.500        30
28.520        23
28.540        20
28.560        13
28.580        27
28.600        20
28.620        23
28.640        23
28.660        40
28.680         7
28.700        20
28.720        20
28.740        23
28.760        20
28.780        37
28.800        37
28.820         7
28.840        20
28.860        23
28.880        23
28.900        17
28.920        13
28.940        23
28.960        33
28.980        23
29.000        23
29.020        30
29.040        23
29.060        40
29.080        33
29.100        23
29.120        30
29.140        30
29.160        20
29.180        40
29.200        40
29.220        20
29.240        33
29.260        23
29.280        17
29.300        17
29.320        13
29.340        13
29.360        17
29.380        27
29.400        20
29.420        33
29.440        10
29.460        27
29.480        20
29.500        27
29.520        23
29.540        27
29.560        30
29.580        37
29.600        30
29.620        23
29.640        20
29.660        17
29.680        37
29.700        17
29.720        20
29.740        17
29.760        37
29.780        27
29.800        23
29.820        30
29.840        13
29.860        10
29.880        33
29.900        17
29.920        30
29.940        10
29.960        30
29.980        20
30.000        27
30.020        13
30.040        37
30.060        27
30.080        17
30.100        13
30.120        33
30.140        10
30.160        23
30.180        17
30.200        17
30.220        27
30.240        10
30.260        37
30.280        27
30.300        13
30.320        20
30.340        27
30.360        17
30.380        13
30.400        20
30.420        17
30.440        20
30.460        33
30.480        23
30.500        13
30.520        17
30.540        23
30.560        23
30.580        20
30.600        30
30.620        30
30.640        20
30.660        17
30.680        17
30.700        23
30.720        17
30.740        23
30.760        23
30.780        23
30.800        27
30.820        20
30.840        20
30.860        50
30.880        27
30.900        40
30.920        23
30.940        20
30.960        17
30.980        37
31.000        23
31.020        33
31.040        27
31.060        20
31.080        23
31.100        30
31.120        27
31.140        27
31.160        33
31.180        40
31.200        40
31.220        63
31.240        53
31.260        30
31.280        70
31.300        50
31.320        83
31.340        73
31.360        73
31.380        67
31.400        43
31.420        93
31.440        77
31.460        73
31.480        97
31.500        83
31.520        67
31.540        97
31.560        73
31.580        73
31.600        80
31.620        57
31.640        27
31.660        83
31.680        73
31.700        77
31.720        77
31.740        50
31.760        50
31.780        50
31.800        73
31.820        37
31.840        40
31.860        47
31.880        33
31.900        40
31.920        47
31.940        57
31.960        37
31.980        53
32.000        53
32.020        20
32.040        33
32.060        27
32.080        50
32.100        23
32.120        20
32.140        27
32.160        33
32.180        23
32.200        20
32.220        20
32.240        30
32.260        30
32.280        33
32.300        33
32.320        23
32.340        20
32.360        30
32.380        13
32.400        27
32.420        27
32.440        30
32.460        27
32.480        23
32.500         7
32.520        13
32.540        10
32.560        30
32.580        17
32.600         3
32.620        30
32.640        30
32.660        23
32.680        30
32.700        17
32.720        20
32.740        30
32.760        20
32.780        10
32.800        13
32.820        20
32.840        30
32.860        23
32.880        23
32.900        17
32.920        20
32.940        23
32.960        20
32.980        17
33.000        20
33.020        10
33.040        30
33.060        20
33.080        17
33.100        13
33.120        23
33.140        30
33.160        33
33.180        23
33.200        27
33.220        27
33.240        13
33.260        10
33.280        10
33.300        43
33.320        23
33.340        37
33.360        27
33.380        33
33.400        40
33.420        13
33.440         7
33.460        30
33.480        13
33.500        17
33.520        13
33.540        30
33.560        23
33.580        10
33.600        10
33.620        10
33.640        30
33.660        20
33.680        23
33.700        30
33.720        40
33.740        30
33.760        20
33.780        33
33.800        10
33.820        23
33.840        33
33.860        40
33.880        13
33.900        13
33.920        27
33.940        13
33.960        17
33.980        13
34.000        30
34.020        20
34.040        30
34.060        10
34.080        27
34.100         7
34.120        23
34.140        33
34.160        20
34.180        27
34.200        30
34.220        17
34.240        13
34.260        17
34.280        30
34.300        20
34.320        17
34.340        13
34.360        37
34.380        23
34.400        10
34.420        30
34.440        30
34.460        17
34.480        17
34.500        20
34.520        20
34.540        43
34.560        13
34.580        17
34.600        23
34.620        33
34.640        23
34.660        17
34.680        17
34.700        23
34.720        27
34.740        27
34.760        17
34.780        30
34.800        13
34.820        20
34.840        33
34.860        30
34.880        20
34.900        23
34.920        33
34.940        27
34.960        33
34.980        20
35.000        33
35.020        17
35.040        23
35.060        23
35.080        17
35.100        13
35.120        33
35.140        27
35.160        73
35.180        40
35.200       133
35.220       130
35.240       237
35.260       250
35.280       137
35.300       107
35.320       117
35.340       113
35.360        90
35.380        47
35.400        17
35.420        33
35.440        30
35.460        23
35.480        20
35.500        27
35.520        27
35.540        13
35.560        23
35.580        17
35.600        30
35.620        23
35.640        13
35.660        20
35.680        20
35.700        17
35.720        30
35.740        17
35.760        17
35.780         7
35.800        10
35.820        20
35.840        23
35.860        13
35.880        10
35.900         3
35.920        17
35.940        40
35.960        27
35.980        20
36.000        17
36.020        17
36.040        13
36.060        10
36.080        23
36.100        17
36.120        33
36.140        30
36.160        33
36.180        20
36.200        30
36.220        27
36.240        30
36.260        27
36.280        17
36.300        53
36.320        17
36.340        13
36.360        13
36.380        33
36.400        23
36.420        20
36.440        27
36.460        37
36.480        30
36.500        23
36.520        40
36.540        20
36.560        27
36.580        33
36.600        17
36.620        27
36.640         7
36.660        17
36.680        17
36.700        17
36.720        40
36.740         7
36.760         3
36.780        23
36.800        37
36.820        23
36.840        33
36.860        37
36.880        13
36.900        23
36.920        33
36.940        20
36.960        37
36.980        23
37.000        33
37.020        17
37.040        40
37.060        30
37.080        60
37.100        33
37.120        23
37.140        27
37.160        20
37.180        27
37.200        43
37.220        27
37.240        47
37.260        27
37.280        17
37.300        33
37.320        37
37.340        37
37.360        40
37.380        23
37.400        20
37.420        37
37.440        43
37.460        23
37.480        37
37.500        17
37.520        37
37.540        23
37.560        10
37.580        23
37.600        43
37.620        27
37.640        20
37.660        30
37.680        23
37.700        20
37.720        33
37.740        27
37.760        33
37.780        40
37.800        40
37.820        27
37.840        27
37.860        20
37.880        50
37.900        43
37.920        23
37.940        33
37.960        43
37.980        37
38.000        20
38.020        30
38.040        13
38.060        37
38.080        33
38.100        20
38.120        13
38.140        40
38.160        30
38.180        37
38.200        33
38.220        30
38.240        17
38.260        47
38.280        30
38.300        47
38.320        37
38.340        23
38.360        43
38.380        57
38.400        57
38.420        33
38.440        53
38.460        53
38.480        40
38.500        63
38.520        77
38.540        67
38.560        63
38.580        67
38.600        67
38.620        63
38.640        43
38.660        80
38.680        97
38.700       110
38.720        83
38.740        93
38.760        93
38.780       110
38.800       110
38.820        90
38.840        83
38.860        97
38.880        43
38.900        97
38.920        80
38.940        67
38.960        60
38.980        90
39.000        70
39.020        57
39.040        67
39.060        37
39.080        53
39.100        57
39.120        40
39.140        53
39.160        63
39.180        60
39.200        33
39.220        70
39.240        27
39.260        37
39.280        33
39.300        33
39.320        33
39.340        37
39.360        33
39.380        43
39.400        50
39.420        30
39.440        37
39.460        57
39.480        27
39.500        63
39.520        27
39.540        43
39.560        33
39.580        27
39.600        30
39.620        20
39.640        17
39.660        40
39.680        30
39.700        23
39.720        17
39.740        27
39.760        43
39.780        23
39.800        40
39.820        27
39.840        20
39.860        37
39.880        10
39.900        10
39.920        37
39.940        30
39.960        13
39.980        17
40.000        23
40.020        23
40.040        13
40.060        27
40.080        30
40.100        17
40.120        13
40.140        13
40.160        23
40.180        33
40.200        23
40.220         7
40.240        33
40.260         7
40.280        20
40.300        13
40.320        10
40.340        17
40.360        17
40.380        17
40.400        27
40.420        20
40.440        13
40.460        27
40.480        23
40.500        10
40.520        17
40.540        20
40.560        13
40.580        13
40.600         7
40.620        20
40.640        17
40.660         7
40.680        20
40.700        20
40.720        33
40.740        10
40.760        30
40.780        27
40.800        20
40.820        20
40.840        27
40.860        17
40.880        30
40.900        23
40.920        30
40.940        13
40.960        23
40.980         7
41.000        20
41.020        13
41.040        13
41.060        17
41.080        30
41.100        27
41.120        27
41.140        17
41.160        40
41.180        27
41.200        17
41.220        30
41.240        17
41.260         7
41.280        30
41.300        17
41.320        20
41.340        20
41.360        17
41.380        23
41.400        23
41.420        17
41.440        23
41.460        27
41.480        33
41.500        30
41.520        50
41.540        23
41.560        47
41.580        40
41.600        37
41.620        53
41.640        40
41.660        77
41.680       117
41.700       147
41.720       187
41.740       180
41.760       167
41.780       157
41.800        80
41.820        80
41.840        87
41.860        67
41.880        67
41.900        40
41.920        33
41.940        23
41.960        27
41.980        20
42.000        33
42.020        33
42.040        23
42.060        23
42.080        13
42.100        17
42.120        20
42.140        13
42.160        17
42.180        23
42.200        13
42.220        30
42.240        37
42.260        23
42.280        17
42.300        10
42.320        23
42.340        17
42.360        13
42.380        23
42.400        10
42.420        23
42.440        23
42.460        30
42.480        20
42.500        17
42.520        20
42.540        17
42.560        13
42.580        23
42.600        13
42.620        27
42.640        23
42.660        13
42.680        17
42.700        23
42.720        27
42.740        17
42.760        27
42.780         7
42.800        10
42.820        27
42.840        27
42.860        13
42.880        10
42.900        13
42.920        10
42.940        13
42.960        17
42.980        30
43.000        27
43.020        23
43.040        23
43.060        23
43.080         7
43.100        20
43.120        27
43.140        20
43.160        43
43.180        10
43.200        27
43.220        33
43.240        30
43.260        40
43.280        60
43.300        70
43.320        90
43.340       113
43.360       100
43.380       220
43.400       310
43.420       333
43.440       267
43.460       147
43.480       103
43.500       153
43.520       143
43.540       163
43.560       103
43.580        37
43.600        37
43.620        33
43.640        10
43.660        27
43.680        13
43.700        33
43.720        10
43.740        13
43.760        10
43.780        17
43.800        30
43.820        13
43.840        27
43.860        13
43.880        13
43.900        23
43.920        17
43.940        30
43.960        10
43.980        10
44.000        17
44.020        23
44.040        10
44.060        40
44.080        17
44.100        23
44.120        27
44.140        10
44.160        20
44.180        27
44.200        13
44.220        17
44.240        23
44.260        23
44.280        10
44.300        13
44.320        20
44.340        13
44.360        13
44.380        10
44.400        30
44.420        17
44.440        20
44.460        10
44.480        20
44.500        17
44.520        13
44.540        30
44.560        20
44.580        33
44.600        30
44.620        23
44.640        17
44.660        30
44.680        40
44.700        17
44.720        17
44.740        10
44.760         7
44.780        13
44.800        17
44.820        23
44.840         7
44.860        20
44.880        13
44.900        10
44.920        10
44.940        17
44.960        30
44.980        23
45.000        20
45.020        23
45.040        23
45.060        43
45.080        20
45.100        10
45.120        17
45.140        23
45.160        30
45.180        17
45.200        20
45.220        17
45.240        30
45.260         7
45.280        23
45.300        27
45.320        13
45.340        27
45.360        10
45.380         7
45.400        23
45.420        27
45.440        17
45.460        27
45.480        20
45.500        20
45.520        17
45.540         7
45.560        17
45.580        13
45.600        23
45.620        27
45.640        23
45.660        23
45.680        20
45.700        13
45.720        27
45.740        13
45.760        20
45.780        33
45.800        30
45.820        23
45.840        23
45.860        13
45.880        33
45.900        23
45.920        13
45.940        20
45.960        50
45.980        17
46.000        17
46.020        20
46.040        23
46.060        20
46.080        20
46.100        13
46.120        17
46.140        10
46.160        17
46.180        23
46.200        27
46.220        37
46.240        13
46.260        13
46.280        27
46.300        17
46.320        13
46.340        20
46.360        23
46.380        17
46.400         3
46.420         7
46.440        27
46.460        27
46.480         0
46.500        13
46.520        23
46.540        10
46.560        30
46.580         7
46.600        23
46.620        27
46.640        20
46.660        17
46.680        23
46.700        10
46.720         3
46.740        10
46.760        10
46.780        23
46.800        10
46.820        10
46.840        23
46.860        20
46.880        27
46.900        20
46.920        10
46.940        23
46.960        17
46.980        10
47.000        37
47.020        20
47.040         7
47.060        40
47.080        13
47.100        13
47.120        17
47.140        23
47.160        20
47.180        20
47.200        13
47.220        10
47.240        17
47.260        13
47.280        30
47.300         3
47.320        27
47.340        23
47.360        13
47.380        20
47.400        10
47.420         7
47.440        10
47.460        20
47.480        27
47.500        23
47.520        27
47.540        10
47.560        27
47.580        17
47.600        17
47.620        33
47.640        17
47.660        23
47.680        13
47.700        10
47.720         7
47.740        17
47.760        20
47.780        23
47.800         7
47.820        17
47.840        20
47.860        37
47.880         7
47.900        27
47.920        20
47.940        20
47.960        13
47.980        13
48.000        27
48.020        17
48.040        27
48.060        30
48.080        13
48.100        10
48.120        13
48.140        20
48.160        20
48.180        13
48.200        17
48.220        17
48.240        10
48.260         7
48.280        33
48.300        10
48.320        27
48.340        30
48.360        17
48.380        17
48.400        27
48.420        30
48.440        17
48.460        30
48.480        37
48.500        13
48.520        33
48.540        27
48.560        10
48.580         0
48.600        17
48.620        23
48.640        23
48.660        10
48.680        13
48.700        17
48.720        17
48.740        13
48.760        17
48.780        10
48.800        13
48.820        20
48.840        20
48.860        10
48.880        37
48.900        17
48.920        27
48.940         7
48.960         3
48.980        20
49.000        10
49.020        17
49.040        13
49.060        13
49.080        20
49.100        20
49.120        10
49.140        23
49.160        13
49.180        20
49.200         7
49.220        13
49.240        20
49.260        17
49.280        20
49.300         7
49.320        10
49.340        23
49.360        10
49.380        17
49.400        20
49.420        13
49.440        23
49.460         7
49.480        17
49.500        13
49.520        20
49.540        10
49.560        13
49.580        17
49.600        20
49.620        13
49.640        27
49.660        20
49.680        23
49.700        17
49.720        27
49.740        13
49.760         3
49.780        10
49.800         7
49.820        13
49.840        20
49.860         0
49.880        13
49.900         3
49.920        13
49.940        13
49.960        17
49.980        17
50.000        17
50.020        27
50.040        23
50.060        20
50.080        20
50.100        17
50.120        10
50.140        23
50.160         7
50.180        17
50.200        10
50.220        17
50.240        27
50.260        17
50.280         7
50.300        20
50.320        17
50.340        10
50.360        20
50.380        13
50.400        10
50.420        13
50.440        23
50.460        17
50.480        30
50.500        20
50.520        10
50.540        20
50.560        13
50.580        13
50.600        10
50.620        30
50.640        27
50.660        20
50.680        10
50.700        13
50.720        10
50.740        17
50.760         7
50.780        17
50.800        10
50.820        10
50.840        10
50.860        13
50.880        20
50.900        20
50.920        10
50.940         3
50.960        23
50.980        17
51.000        13
51.020        13
51.040        13
51.060        17
51.080        20
51.100        13
51.120        17
51.140        17
51.160        23
51.180        10
51.200         3
51.220        13
51.240        20
51.260        10
51.280        13
51.300        20
51.320        10
51.340        13
51.360        23
51.380        17
51.400        20
51.420        23
51.440        13
51.460         3
51.480        17
51.500        13
51.520        13
51.540        23
51.560        13
51.580        23
51.600        17
51.620        23
51.640        20
51.660        23
51.680        20
51.700         7
51.720        10
51.740         7
51.760         3
51.780        17
51.800        20
51.820         7
51.840        30
51.860        17
51.880        17
51.900        17
51.920         7
51.940        23
51.960        13
51.980         0
52.000        13
52.020        10
52.040         3
52.060        37
52.080         3
52.100        20
52.120        17
52.140         7
52.160        33
52.180        10
52.200        10
52.220        27
52.240        27
52.260        23
52.280        23
52.300         7
52.320        20
52.340        20
52.360        13
52.380        30
52.400        10
52.420        23
52.440        20
52.460        10
52.480        20
52.500        27
52.520        33
52.540        33
52.560        47
52.580        30
52.600        17
52.620        30
52.640        40
52.660        10
52.680        33
52.700        23
52.720        20
52.740        27
52.760        17
52.780        37
52.800        13
52.820        20
52.840        10
52.860        10
52.880        13
52.900        20
52.920        20
52.940        10
52.960        17
52.980        20
53.000        17
53.020        23
53.040        20
53.060        23
53.080        17
53.100         0
53.120        20
53.140        30
53.160        20
53.180         3
53.200         7
53.220        23
53.240        13
53.260        33
53.280        20
53.300        20
53.320        10
53.340        13
53.360        20
53.380        13
53.400        23
53.420        20
53.440        10
53.460         7
53.480        20
53.500        17
53.520        20
53.540        13
53.560        10
53.580        17
53.600        17
53.620        10
53.640        13
53.660         7
53.680         7
53.700        17
53.720        13
53.740        17
53.760         7
53.780        10
53.800        23
53.820        10
53.840        23
53.860         7
53.880        27
53.900        27
53.920        10
53.940        13
53.960         7
53.980        17
54.000         3
54.020        10
54.040        13
54.060        13
54.080         3
54.100         7
54.120         3
54.140        20
54.160        13
54.180        17
54.200        17
54.220        20
54.240        10
54.260        23
54.280         7
54.300        23
54.320        20
54.340        20
54.360        17
54.380        13
54.400        17
54.420         7
54.440        33
54.460         7
54.480        13
54.500        20
54.520        13
54.540        27
54.560         7
54.580        23
54.600        17
54.620        10
54.640        17
54.660        17
54.680         3
54.700        23
54.720        23
54.740        17
54.760        30
54.780        17
54.800        10
54.820        23
54.840        17
54.860         7
54.880        13
54.900        20
54.920        20
54.940        27
54.960        17
54.980        17
55.000        17
55.020         7
55.040         7
55.060        23
55.080         7
55.100         7
55.120        13
55.140         7
55.160        13
55.180        13
55.200        17
55.220        17
55.240        13
55.260         7
55.280        20
55.300        23
55.320        13
55.340        20
55.360        20
55.380        23
55.400        17
55.420        20
55.440        13
55.460        10
55.480         7
55.500        20
55.520        23
55.540        27
55.560         7
55.580        10
55.600        13
55.620         3
55.640        23
55.660        20
55.680         7
55.700         7
55.720        23
55.740        13
55.760        13
55.780        17
55.800        37
55.820        20
55.840        13
55.860         3
55.880        20
55.900        17
55.920        27
55.940        13
55.960        23
55.980        13
56.000        20
56.020         3
56.040        10
56.060        13
56.080        10
56.100        13
56.120        20
56.140        23
56.160        23
56.180        23
56.200        30
56.220        27
56.240        30
56.260         7
56.280        17
56.300        17
56.320         3
56.340        20
56.360        20
56.380        23
56.400         3
56.420        10
56.440        17
56.460        27
56.480        13
56.500        20
56.520        20
56.540        17
56.560        17
56.580        13
56.600        20
56.620        10
56.640        23
56.660         7
56.680        10
56.700         7
56.720         7
56.740        13
56.760        30
56.780        13
56.800        10
56.820         0
56.840         7
56.860        20
56.880        13
56.900        10
56.920        23
56.940        27
56.960        10
56.980        13
57.000         7
57.020        13
57.040        17
57.060        13
57.080        23
57.100        27
57.120        13
57.140        30
57.160        20
57.180        13
57.200        17
57.220        27
57.240        20
57.260        13
57.280        27
57.300        20
57.320        23
57.340        23
57.360        17
57.380        20
57.400        13
57.420        23
57.440        27
57.460        40
57.480        30
57.500        37
57.520        80
57.540        90
57.560       157
57.580       170
57.600       197
57.620        90
57.640        67
57.660        50
57.680        63
57.700        67
57.720        77
57.740       103
57.760       113
57.780       100
57.800        50
57.820        23
57.840        17
57.860        33
57.880         7
57.900        23
57.920        10
57.940        20
57.960        17
57.980        13
58.000        20
58.020        27
58.040        23
58.060        17
58.080        20
58.100        23
58.120        27
58.140        10
58.160        20
58.180        13
58.200         3
58.220        17
58.240        23
58.260         7
58.280        10
58.300         7
58.320        13
58.340        17
58.360        23
58.380        10
58.400        20
58.420         7
58.440         7
58.460        23
58.480        17
58.500        13
58.520        10
58.540        17
58.560        13
58.580        10
58.600         7
58.620         0
58.640        20
58.660        17
58.680        10
58.700        23
58.720        10
58.740         7
58.760        10
58.780        10
58.800         7
58.820        17
58.840        10
58.860        17
58.880         7
58.900        13
58.920         7
58.940         7
58.960        27
58.980        10
59.000        13
59.020        17
59.040        13
59.060        17
59.080         0
59.100        17
59.120         7
59.140         7
59.160        10
59.180        23
59.200        10
59.220        20
59.240        10
59.260        17
59.280        13
59.300        13
59.320        13
59.340         7
59.360        17
59.380        13
59.400         3
59.420        10
59.440        10
59.460        13
59.480         7
59.500        10
59.520        20
59.540         7
59.560        37
59.580         7
59.600        30
59.620        20
59.640        13
59.660        27
59.680        27
59.700        23
59.720        23
59.740        20
59.760        10
59.780        13
59.800        10
59.820        10
59.840        17
59.860        17
59.880        13
59.900         7
59.920        23
59.940        10
59.960        13
59.980        17
60.000        13
