20.000       377
20.020       313
20.040       313
20.060       350
20.080       323
20.100       297
20.120       330
20.140       347
20.160       307
20.180       287
20.200       260
20.220       313
20.240       270
20.260       330
20.280       300
20.300       253
20.320       297
20.340       273
20.360       257
20.380       280
20.400       260
20.420       310
20.440       267
20.460       280
20.480       307
20.500       263
20.520       307
20.540       317
20.560       260
20.580       283
20.600       253
20.620       350
20.640       293
20.660       210
20.680       340
20.700       283
20.720       260
20.740       250
20.760       330
20.780       277
20.800       310
20.820       253
20.840       240
20.860       260
20.880       270
20.900       220
20.920       260
20.940       283
20.960       247
20.980       207
21.000       277
21.020       237
21.040       207
21.060       260
21.080       227
21.100       263
21.120       223
21.140       267
21.160       247
21.180       257
21.200       250
21.220       277
21.240       220
21.260       220
21.280       260
21.300       283
21.320       220
21.340       183
21.360       227
21.380       250
21.400       237
21.420       247
21.440       237
21.460       203
21.480       220
21.500       183
21.520       290
21.540       200
21.560       223
21.580       187
21.600       220
21.620       160
21.640       203
21.660       230
21.680       263
21.700       187
21.720       270
21.740       233
21.760       253
21.780       270
21.800       233
21.820       220
21.840       187
21.860       193
21.880       230
21.900       197
21.920       227
21.940       210
21.960       203
21.980       250
22.000       187
22.020       200
22.040       170
22.060       197
22.080       213
22.100       210
22.120       203
22.140       180
22.160       213
22.180       220
22.200       210
22.220       227
22.240       210
22.260       227
22.280       280
22.300       193
22.320       220
22.340       257
22.360       200
22.380       183
22.400       180
22.420       227
22.440       273
22.460       247
22.480       283
22.500       243
22.520       277
22.540       263
22.560       220
22.580       247
22.600       240
22.620       250
22.640       250
22.660       270
22.680       230
22.700       227
22.720       230
22.740       197
22.760       263
22.780       180
22.800       227
22.820       197
22.840       243
22.860       220
22.880       190
22.900       200
22.920       243
22.940       187
22.960       160
22.980       183
23.000       217
23.020       190
23.040       180
23.060       213
23.080       190
23.100       177
23.120       170
23.140       207
23.160       183
23.180       187
23.200       180
23.220       233
23.240       267
23.260       213
23.280       173
23.300       203
23.320       193
23.340       203
23.360       240
23.380       213
23.400       253
23.420       237
23.440       223
23.460       197
23.480       187
23.500       207
23.520       173
23.540       183
23.560       290
23.580       253
23.600       210
23.620       210
23.640       200
23.660       197
23.680       170
23.700       210
23.720       157
23.740       207
23.760       177
23.780       190
23.800       183
23.820       200
23.840       223
23.860       170
23.880       170
23.900       153
23.920       187
23.940       193
23.960       157
23.980       190
24.000       167
24.020       163
24.040       147
24.060       180
24.080       163
24.100       220
24.120       240
24.140       187
24.160       190
24.180       183
24.200       177
24.220       150
24.240       147
24.260       183
24.280       153
24.300       173
24.320       177
24.340       137
24.360       167
24.380       163
24.400       143
24.420       143
24.440       163
24.460       167
24.480       173
24.500       120
24.520       180
24.540       167
24.560       160
24.580       157
24.600       130
24.620       127
24.640       190
24.660       160
24.680       193
24.700        93
24.720       170
24.740       140
24.760       107
24.780       197
24.800       163
24.820       107
24.840       153
24.860       143
24.880       180
24.900       163
24.920       147
24.940       127
24.960       110
24.980       100
25.000       133
25.020       150
25.040       133
25.060       127
25.080       123
25.100       110
25.120       100
25.140       147
25.160       123
25.180        87
25.200       147
25.220       103
25.240       127
25.260       107
25.280       127
25.300       130
25.320       143
25.340       140
25.360       113
25.380       140
25.400       130
25.420       113
25.440       137
25.460       123
25.480       130
25.500       127
25.520       117
25.540       123
25.560       127
25.580       133
25.600       160
25.620       103
25.640        93
25.660       167
25.680       103
25.700       133
25.720       133
25.740       130
25.760        97
25.780       110
25.800        80
25.820        80
25.840       120
25.860        57
25.880        90
25.900        90
25.920       103
25.940        63
25.960       103
25.980        83
26.000        83
26.020        93
26.040        80
26.060        80
26.080       107
26.100       110
26.120       103
26.140       103
26.160        93
26.180        80
26.200        83
26.220       103
26.240        67
26.260       107
26.280        87
26.300        63
26.320        67
26.340       113
26.360        80
26.380        67
26.400        83
26.420       113
26.440        90
26.460        80
26.480        57
26.500        87
26.520        83
26.540        70
26.560        73
26.580       103
26.600        60
26.620        87
26.640        83
26.660        60
26.680        97
26.700        77
26.720        70
26.740        70
26.760        93
26.780        83
26.800        53
26.820        83
26.840        77
26.860        63
26.880        77
26.900        83
26.920       107
26.940       100
26.960        70
26.980        80
27.000       103
27.020        70
27.040        80
27.060        90
27.080        87
27.100        90
27.120        63
27.140        70
27.160        80
27.180        67
27.200        70
27.220        87
27.240        70
27.260        63
27.280        87
27.300        67
27.320        53
27.340        67
27.360        60
27.380        50
27.400        80
27.420        63
27.440        43
27.460        53
27.480        57
27.500        63
27.520        43
27.540        70
27.560        97
27.580        73
27.600        77
27.620        77
27.640        53
27.660        50
27.680        63
27.700        77
27.720        93
27.740        40
27.760        77
27.780        60
27.800        40
27.820        60
27.840        43
27.860        67
27.880        57
27.900        83
27.920        73
27.940        53
27.960        63
27.980        47
28.000        80
28.020        67
28.040        57
28.060        73
28.080        40
28.100        50
28.120        50
28.140        77
28.160        67
28.180        73
28.200        57
28.220        80
28.240        60
28.260        73
28.280        50
28.300        67
28.320        60
28.340        87
28.360        83
28.380        57
28.400        53
28.420        63
28.440        53
28.460        73
28.480       130
28.500        53
28.520        67
28.540        80
28.560        67
28.580        60
28.600        60
28.620        63
28.640        47
28.660        50
28.680        67
28.700        87
28.720        73
28.740        60
28.760        57
28.780        57
28.800        77
28.820        63
28.840        70
28.860        77
28.880        53
28.900        50
28.920        70
28.940        67
28.960        80
28.980        67
29.000        63
29.020        67
29.040        60
29.060        60
29.080        90
29.100        53
29.120        40
29.140        90
29.160        77
29.180        93
29.200        93
29.220       100
29.240       103
29.260        97
29.280        93
29.300       110
29.320       100
29.340        93
29.360       103
29.380       110
29.400        83
29.420        70
29.440        83
29.460        70
29.480        87
29.500        80
29.520       130
29.540       197
29.560       213
29.580       197
29.600       150
29.620       137
29.640       147
29.660        97
29.680       110
29.700        70
29.720        57
29.740        70
29.760        73
29.780        60
29.800        70
29.820        63
29.840        70
29.860        60
29.880        63
29.900        90
29.920        57
29.940        43
29.960        63
29.980        60
30.000        90
30.020        90
30.040        90
30.060        93
30.080        73
30.100        50
30.120        73
30.140        63
30.160        50
30.180        77
30.200        50
30.220        37
30.240        77
30.260        80
30.280        97
30.300        70
30.320        50
30.340        67
30.360        73
30.380        43
30.400        67
30.420        90
30.440        57
30.460        67
30.480        50
30.500        53
30.520        63
30.540        90
30.560        57
30.580        57
30.600        80
30.620       110
30.640        70
30.660        67
30.680        73
30.700        73
30.720        67
30.740        70
30.760        57
30.780        83
30.800        63
30.820        73
30.840        67
30.860        97
30.880        87
30.900        50
30.920        90
30.940        53
30.960        73
30.980        73
31.000        63
31.020        80
31.040       103
31.060        90
31.080        53
31.100        73
31.120        67
31.140        80
31.160        83
31.180       103
31.200       117
31.220        93
31.240        90
31.260        60
31.280        70
31.300        63
31.320        83
31.340        57
31.360        53
31.380        97
31.400        97
31.420        97
31.440        93
31.460        73
31.480        77
31.500       110
31.520       100
31.540        97
31.560       113
31.580        93
31.600        90
31.620       117
31.640       107
31.660        90
31.680        97
31.700       123
31.720        83
31.740       123
31.760       113
31.780       140
31.800       137
31.820       153
31.840       170
31.860       163
31.880       190
31.900       170
31.920       183
31.940       243
31.960       227
31.980       283
32.000       267
32.020       340
32.040       317
32.060       540
32.080      1013
32.100      1569
32.120      1753
32.140      1476
32.160       920
32.180       480
32.200       397
32.220       313
32.240       320
32.260       313
32.280       260
32.300       230
32.320       277
32.340       230
32.360       273
32.380       227
32.400       213
32.420       227
32.440       187
32.460       190
32.480       217
32.500       167
32.520       200
32.540       167
32.560       143
32.580       167
32.600       177
32.620       163
32.640       117
32.660       167
32.680       173
32.700       117
32.720       143
32.740       117
32.760       147
32.780       147
32.800       117
32.820       110
32.840       123
32.860       100
32.880       117
32.900       157
32.920       113
32.940        97
32.960        70
32.980        80
33.000       103
33.020       120
33.040       133
33.060       117
33.080       110
33.100       107
33.120       153
33.140       120
33.160        97
33.180        90
33.200       140
33.220        87
33.240        90
33.260        77
33.280        80
33.300       113
33.320       140
33.340       113
33.360        87
33.380        83
33.400       107
33.420       110
33.440       100
33.460       120
33.480        97
33.500       120
33.520        63
33.540        80
33.560       100
33.580        73
33.600       143
33.620        90
33.640       103
33.660        77
33.680       117
33.700       110
33.720        67
33.740       107
33.760       110
33.780       120
33.800       100
33.820        93
33.840        90
33.860        83
33.880        90
33.900        93
33.920        80
33.940        93
33.960       113
33.980       123
34.000       130
34.020        87
34.040        87
34.060        90
34.080        97
34.100       120
34.120       113
34.140       123
34.160       103
34.180       120
34.200       110
34.220       110
34.240       133
34.260       110
34.280       163
34.300       150
34.320       130
34.340       160
34.360       207
34.380       277
34.400       397
34.420       510
34.440       553
34.460       603
34.480       630
34.500       653
34.520       490
34.540       583
34.560       506
34.580       536
34.600       630
34.620       540
34.640       570
34.660       526
34.680       546
34.700       690
34.720       620
34.740       620
34.760       543
34.780       563
34.800       603
34.820       620
34.840       516
34.860       660
34.880       543
34.900       560
34.920       633
34.940       600
34.960       630
34.980       640
35.000       686
35.020       626
35.040       673
35.060       636
35.080       673
35.100       623
35.120       613
35.140       656
35.160       723
35.180       846
35.200       753
35.220       813
35.240       813
35.260       970
35.280       936
35.300      1203
35.320       996
35.340      1359
35.360      1856
35.380      2602
35.400      3589
35.420      5325
35.440      7497
35.460      9076
35.480     10526
35.500     11755
35.520     12598
35.540     14034
35.560     16527
35.580     30271
35.600     84113
35.620    148471
35.640    172688
35.660    165884
35.680    115974
35.700     87332
35.720    101093
35.740    105341
35.760     84946
35.780     40777
35.800     13511
35.820      7247
35.840      5261
35.860      3739
35.880      2882
35.900      2259
35.920      1756
35.940      1626
35.960      1373
35.980      1389
36.000      1279
36.020      1116
36.040      1053
36.060      1086
36.080       923
36.100       903
36.120       816
36.140       820
36.160       763
36.180       896
36.200       733
36.220       736
36.240       636
36.260       763
36.280       630
36.300       676
36.320       626
36.340       586
36.360       570
36.380       680
36.400       596
36.420       630
36.440       590
36.460       603
36.480       473
36.500       573
36.520       570
36.540       533
36.560       543
36.580       496
36.600       483
36.620       466
36.640       546
36.660       553
36.680       436
36.700       536
36.720       493
36.740       486
36.760       496
36.780       506
36.800       463
36.820       510
36.840       403
36.860       450
36.880       443
36.900       536
36.920       523
36.940       377
36.960       446
36.980       360
37.000       423
37.020       410
37.040       423
37.060       417
37.080       400
37.100       417
37.120       387
37.140       446
37.160       350
37.180       373
37.200       330
37.220       407
37.240       397
37.260       327
37.280       353
37.300       413
37.320       380
37.340       323
37.360       373
37.380       337
37.400       393
37.420       433
37.440       350
37.460       393
37.480       387
37.500       370
37.520       363
37.540       360
37.560       380
37.580       357
37.600       350
37.620       343
37.640       353
37.660       387
37.680       353
37.700       393
37.720       347
37.740       407
37.760       357
37.780       323
37.800       350
37.820       420
37.840       287
37.860       300
37.880       347
37.900       350
37.920       353
37.940       387
37.960       370
37.980       323
38.000       357
38.020       363
38.040       380
38.060       310
38.080       267
38.100       330
38.120       340
38.140       337
38.160       303
38.180       387
38.200       280
38.220       287
38.240       307
38.260       320
38.280       310
38.300       357
38.320       283
38.340       383
38.360       317
38.380       310
38.400       310
38.420       250
38.440       327
38.460       320
38.480       347
38.500       243
38.520       290
38.540       330
38.560       303
38.580       257
38.600       297
38.620       307
38.640       343
38.660       310
38.680       293
38.700       293
38.720       327
38.740       350
38.760       330
38.780       283
38.800       260
38.820       380
38.840       307
38.860       227
38.880       330
38.900       290
38.920       340
38.940       300
38.960       327
38.980       303
39.000       253
39.020       320
39.040       327
39.060       297
39.080       307
39.100       247
39.120       287
39.140       307
39.160       317
39.180       263
39.200       260
39.220       273
39.240       297
39.260       283
39.280       293
39.300       317
39.320       300
39.340       317
39.360       287
39.380       267
39.400       283
39.420       277
39.440       230
39.460       260
39.480       237
39.500       243
39.520       263
39.540       267
39.560       297
39.580       200
39.600       280
39.620       233
39.640       250
39.660       233
39.680       267
39.700       233
39.720       290
39.740       257
39.760       230
39.780       240
39.800       243
39.820       307
39.840       233
39.860       200
39.880       290
39.900       260
39.920       227
39.940       257
39.960       223
39.980       220
40.000       237
40.020       290
40.040       253
40.060       230
40.080       260
40.100       217
40.120       237
40.140       233
40.160       223
40.180       230
40.200       250
40.220       253
40.240       263
40.260       237
40.280       263
40.300       240
40.320       303
40.340       243
40.360       190
40.380       197
40.400       250
40.420       187
40.440       250
40.460       233
40.480       253
40.500       253
40.520       237
40.540       280
40.560       210
40.580       240
40.600       213
40.620       207
40.640       207
40.660       207
40.680       190
40.700       200
40.720       187
40.740       130
40.760       233
40.780       203
40.800       263
40.820       203
40.840       207
40.860       243
40.880       217
40.900       203
40.920       177
40.940       177
40.960       240
40.980       240
41.000       217
41.020       267
41.040       243
41.060       210
41.080       217
41.100       180
41.120       177
41.140       190
41.160       230
41.180       167
41.200       223
41.220       240
41.240       240
41.260       217
41.280       203
41.300       223
41.320       147
41.340       200
41.360       137
41.380       217
41.400       200
41.420       203
41.440       247
41.460       197
41.480       197
41.500       160
41.520       197
41.540       183
41.560       170
41.580       213
41.600       210
41.620       170
41.640       193
41.660       207
41.680       230
41.700       203
41.720       167
41.740       220
41.760       190
41.780       227
41.800       187
41.820       193
41.840       203
41.860       190
41.880       207
41.900       267
41.920       207
41.940       220
41.960       227
41.980       213
42.000       193
42.020       177
42.040       203
42.060       197
42.080       173
42.100       170
42.120       213
42.140       183
42.160       190
42.180       203
42.200       153
42.220       200
42.240       180
42.260       207
42.280       217
42.300       190
42.320       180
42.340       200
42.360       183
42.380       173
42.400       187
42.420       150
42.440       160
42.460       130
42.480       200
42.500       197
42.520       177
42.540       200
42.560       157
42.580       163
42.600       163
42.620       200
42.640       200
42.660       267
42.680       160
42.700       167
42.720       197
42.740       210
42.760       177
42.780       173
42.800       180
42.820       153
42.840       143
42.860       143
42.880       193
42.900       183
42.920       147
42.940       173
42.960       160
42.980       143
43.000       197
43.020       147
43.040       160
43.060       163
43.080       160
43.100       157
43.120       173
43.140       170
43.160       200
43.180       120
43.200       183
43.220       183
43.240       143
43.260       187
43.280       117
43.300       163
43.320       167
43.340       147
43.360       200
43.380       177
43.400       183
43.420       187
43.440       130
43.460       120
43.480       167
43.500       130
43.520       153
43.540       140
43.560       130
43.580       153
43.600       180
43.620       110
43.640       147
43.660       180
43.680       177
43.700       190
43.720       143
43.740       133
43.760       143
43.780       147
43.800       130
43.820       137
43.840       133
43.860       153
43.880       163
43.900       150
43.920       153
43.940       140
43.960       160
43.980       203
44.000       140
44.020       170
44.040       180
44.060       143
44.080       157
44.100       137
44.120       163
44.140       120
44.160       157
44.180       133
44.200       167
44.220       153
44.240       180
44.260       120
44.280       173
44.300       140
44.320       157
44.340       143
44.360       160
44.380       127
44.400       130
44.420       170
44.440       153
44.460       187
44.480       157
44.500       150
44.520       140
44.540       167
44.560       167
44.580       180
44.600       133
44.620       150
44.640       133
44.660       210
44.680       173
44.700       190
44.720       177
44.740       217
44.760       157
44.780       143
44.800       147
44.820       193
44.840       197
44.860       180
44.880       167
44.900       187
44.920       200
44.940       187
44.960       197
44.980       233
45.000       167
45.020       287
45.040       173
45.060       207
45.080       220
45.100       210
45.120       247
45.140       213
45.160       267
45.180       230
45.200       253
45.220       263
45.240       300
45.260       303
45.280       283
45.300       377
45.320       303
45.340       320
45.360       267
45.380       363
45.400       323
45.420       313
45.440       347
45.460       397
45.480       466
45.500       410
45.520       413
45.540       473
45.560       530
45.580       493
45.600       510
45.620       526
45.640       610
45.660       610
45.680       610
45.700       573
45.720       600
45.740       600
45.760       643
45.780       640
45.800       696
45.820       640
45.840       740
45.860       670
45.880       736
45.900       796
45.920       770
45.940       850
45.960       736
45.980       633
46.000       756
46.020       706
46.040       636
46.060       743
46.080       693
46.100       666
46.120       700
46.140       716
46.160       646
46.180       550
46.200       633
46.220       560
46.240       613
46.260       613
46.280       503
46.300       646
46.320       486
46.340       466
46.360       483
46.380       463
46.400       390
46.420       553
46.440       420
46.460       426
46.480       330
46.500       387
46.520       367
46.540       360
46.560       383
46.580       380
46.600       290
46.620       353
46.640       250
46.660       313
46.680       293
46.700       283
46.720       270
46.740       267
46.760       243
46.780       207
46.800       230
46.820       210
46.840       193
46.860       200
46.880       190
46.900       193
46.920       220
46.940       147
46.960       187
46.980       180
47.000       143
47.020       213
47.040       197
47.060       183
47.080       177
47.100       157
47.120       187
47.140       177
47.160       143
47.180       130
47.200       207
47.220       163
47.240       137
47.260       167
47.280       187
47.300       170
47.320       173
47.340       127
47.360       157
47.380       160
47.400       170
47.420       177
47.440       130
47.460       113
47.480        97
47.500        93
47.520       117
47.540       137
47.560       103
47.580       123
47.600       160
47.620       127
47.640       160
47.660       150
47.680       133
47.700       110
47.720       143
47.740       100
47.760       100
47.780       127
47.800       100
47.820       117
47.840       100
47.860        90
47.880        77
47.900        97
47.920       123
47.940        97
47.960       127
47.980       100
48.000       110
48.020       110
48.040       140
48.060        97
48.080       117
48.100       140
48.120       167
48.140       177
48.160       173
48.180       203
48.200       103
48.220       157
48.240       137
48.260       133
48.280       143
48.300       140
48.320       130
48.340       107
48.360       123
48.380       113
48.400        97
48.420        97
48.440       110
48.460       107
48.480        97
48.500       107
48.520        87
48.540        93
48.560       110
48.580        90
48.600        83
48.620       100
48.640        87
48.660       123
48.680        83
48.700       113
48.720        73
48.740        80
48.760        87
48.780        70
48.800        93
48.820        50
48.840       100
48.860       110
48.880       113
48.900        83
48.920       133
48.940       100
48.960       113
48.980        60
49.000        67
49.020       127
49.040        83
49.060        77
49.080        60
49.100        80
49.120        93
49.140       110
49.160       100
49.180        93
49.200       100
49.220        80
49.240       113
49.260        70
49.280       100
49.300       120
49.320        90
49.340        80
49.360       100
49.380        53
49.400        57
49.420        83
49.440        70
49.460       103
49.480        83
49.500        80
49.520        93
49.540        53
49.560        60
49.580       107
49.600       103
49.620        73
49.640       100
49.660        63
49.680        87
49.700        57
49.720       103
49.740        90
49.760        53
49.780        60
49.800        50
49.820       113
49.840        87
49.860       103
49.880        93
49.900        90
49.920        87
49.940        87
49.960        53
49.980        83
50.000        80
50.020        93
50.040        67
50.060        63
50.080        63
50.100        67
50.120        70
50.140        67
50.160        90
50.180        63
50.200        63
50.220        80
50.240       120
50.260        80
50.280        73
50.300        87
50.320        67
50.340        93
50.360        70
50.380        57
50.400        77
50.420        83
50.440        87
50.460        53
50.480        53
50.500        87
50.520        77
50.540        60
50.560        93
50.580       107
50.600        73
50.620        77
50.640        93
50.660        80
50.680        70
50.700        47
50.720        70
50.740        77
50.760        60
50.780        70
50.800        83
50.820        87
50.840        73
50.860        70
50.880        80
50.900        70
50.920        87
50.940       103
50.960        90
50.980        93
51.000        43
51.020        73
51.040        57
51.060        80
51.080        50
51.100        83
51.120        77
51.140        60
51.160        63
51.180        57
51.200        77
51.220        70
51.240        70
51.260        60
51.280        60
51.300        83
51.320        87
51.340        53
51.360        90
51.380        57
51.400        73
51.420        67
51.440        60
51.460        80
51.480        80
51.500        67
51.520        70
51.540        60
51.560        67
51.580        60
51.600        67
51.620        83
51.640        63
51.660        80
51.680        77
51.700        57
51.720        63
51.740        73
51.760        53
51.780        80
51.800        57
51.820       103
51.840        60
51.860        57
51.880        73
51.900        90
51.920        40
51.940        73
51.960        67
51.980        60
52.000        83
52.020        67
52.040        60
52.060        70
52.080        67
52.100        67
52.120        50
52.140        73
52.160        67
52.180        73
52.200        87
52.220        63
52.240        60
52.260        87
52.280       110
52.300        60
52.320        77
52.340        30
52.360        57
52.380        57
52.400        67
52.420        40
52.440        60
52.460        83
52.480        80
52.500        57
52.520        77
52.540        77
52.560        47
52.580        67
52.600        37
52.620        60
52.640        60
52.660        70
52.680        73
52.700        47
52.720        93
52.740        53
52.760        90
52.780        83
52.800        77
52.820        40
52.840        53
52.860        53
52.880        67
52.900        60
52.920        77
52.940        60
52.960        43
52.980        60
53.000        67
53.020        83
53.040        53
53.060        53
53.080        50
53.100        60
53.120        50
53.140        87
53.160        67
53.180        73
53.200        80
53.220        47
53.240        40
53.260        43
53.280        57
53.300        57
53.320        57
53.340        60
53.360        47
53.380        73
53.400        57
53.420        37
53.440        87
53.460        63
53.480        73
53.500        63
53.520        57
53.540        40
53.560        43
53.580        63
53.600        37
53.620        50
53.640        53
53.660        63
53.680        33
53.700        67
53.720        73
53.740        53
53.760        70
53.780        40
53.800        60
53.820        53
53.840        87
53.860        33
53.880        57
53.900        47
53.920        77
53.940        57
53.960        53
53.980        70
54.000        60
54.020        63
54.040        57
54.060        60
54.080        63
54.100        63
54.120        53
54.140        67
54.160        70
54.180        67
54.200        53
54.220        63
54.240        80
54.260        70
54.280        50
54.300        63
54.320        57
54.340        57
54.360        47
54.380        67
54.400        60
54.420        87
54.440        67
54.460        43
54.480        43
54.500        53
54.520        63
54.540        73
54.560        47
54.580        93
54.600       120
54.620       113
54.640        87
54.660        93
54.680        73
54.700        90
54.720        50
54.740        93
54.760        83
54.780        77
54.800        93
54.820        77
54.840        57
54.860        60
54.880        77
54.900        73
54.920        67
54.940        97
54.960        77
54.980        43
55.000        33
55.020        70
55.040        53
55.060        83
55.080        60
55.100        60
55.120        70
55.140        60
55.160        40
55.180        73
55.200        67
55.220        50
55.240        50
55.260        63
55.280        53
55.300        50
55.320        57
55.340        70
55.360        77
55.380        33
55.400        40
55.420        50
55.440        77
55.460        50
55.480        63
55.500        70
55.520        67
55.540        47
55.560        87
55.580        70
55.600        53
55.620        60
55.640        73
55.660        83
55.680        70
55.700        63
55.720        63
55.740        53
55.760        73
55.780        67
55.800        57
55.820        67
55.840        67
55.860        87
55.880        90
55.900        47
55.920        77
55.940        30
55.960        60
55.980        63
56.000        80
56.020        57
56.040        60
56.060        67
56.080        53
56.100        30
56.120        57
56.140        47
56.160        57
56.180        57
56.200        80
56.220        43
56.240        77
56.260        53
56.280        77
56.300        67
56.320        73
56.340        63
56.360        47
56.380        53
56.400        67
56.420        67
56.440        73
56.460        87
56.480        57
56.500        70
56.520        57
56.540        77
56.560        73
56.580        47
56.600        57
56.620        63
56.640        60
56.660        73
56.680        60
56.700        40
56.720        73
56.740        63
56.760        67
56.780        47
56.800        77
56.820        57
56.840        90
56.860        40
56.880        40
56.900        53
56.920        40
56.940        70
56.960        63
56.980        50
57.000        53
57.020        43
57.040        50
57.060        77
57.080        63
57.100        77
57.120        70
57.140        57
57.160        40
57.180        50
57.200        47
57.220        60
57.240        57
57.260        73
57.280        60
57.300        77
57.320        70
57.340        60
57.360        70
57.380        43
57.400        73
57.420        50
57.440        83
57.460        57
57.480        50
57.500        63
57.520        50
57.540        80
57.560        47
57.580        83
57.600        67
57.620        43
57.640        73
57.660        70
57.680        70
57.700        53
57.720        53
57.740        40
57.760        43
57.780        53
57.800        60
57.820        60
57.840        33
57.860        63
57.880        73
57.900        63
57.920        53
57.940        67
57.960        63
57.980        63
58.000        90
58.020        53
58.040        47
58.060        50
58.080        70
58.100        47
58.120        93
58.140        70
58.160        33
58.180        40
58.200        57
58.220        50
58.240        43
58.260        60
58.280        43
58.300        77
58.320        67
58.340        47
58.360        27
58.380        53
58.400        70
58.420        33
58.440        37
58.460        57
58.480        37
58.500        70
58.520        93
58.540        60
58.560        73
58.580        77
58.600        57
58.620        40
58.640        40
58.660        57
58.680        37
58.700        63
58.720        60
58.740        60
58.760        83
58.780        43
58.800        63
58.820        67
58.840        67
58.860        33
58.880        50
58.900        50
58.920        53
58.940        73
58.960        33
58.980        63
59.000        47
59.020        33
59.040        33
59.060        63
59.080        63
59.100        60
59.120        43
59.140        80
59.160        57
59.180        50
59.200        57
59.220        43
59.240        43
59.260        80
59.280        33
59.300        53
59.320        60
59.340        63
59.360        43
59.380        70
59.400        40
59.420        40
59.440        37
59.460        73
59.480        30
59.500        67
59.520        70
59.540        50
59.560        57
59.580        37
59.600        60
59.620        47
59.640        47
59.660        53
59.680        37
59.700        50
59.720        37
59.740        50
59.760        47
59.780        63
59.800        47
59.820        57
59.840        57
59.860        67
59.880        60
59.900        67
59.920        40
59.940        60
59.960        83
59.980        47
60.000        47
