20.000        40
20.010        13
20.020        67
20.030        40
20.040        40
20.050        27
20.060        13
20.070        67
20.080        13
20.090        93
20.100        53
20.110        40
20.120        13
20.130        67
20.140        53
20.150        27
20.160        80
20.170        27
20.180         0
20.190        27
20.200        40
20.210        53
20.220        27
20.230        53
20.240        93
20.250        40
20.260        27
20.270         0
20.280        53
20.290        27
20.300        13
20.310        27
20.320        53
20.330        80
20.340        40
20.350       107
20.360        53
20.370        27
20.380        13
20.390        13
20.400        53
20.410        53
20.420        80
20.430        67
20.440        27
20.450        53
20.460        53
20.470        53
20.480        53
20.490        53
20.500        40
20.510        13
20.520        67
20.530        53
20.540        13
20.550        13
20.560        27
20.570        80
20.580        40
20.590        13
20.600        27
20.610         0
20.620        80
20.630        40
20.640        27
20.650        27
20.660        67
20.670        13
20.680        67
20.690        40
20.700        27
20.710        27
20.720        53
20.730        40
20.740        53
20.750        53
20.760        67
20.770        40
20.780        67
20.790        13
20.800        67
20.810        27
20.820        67
20.830        67
20.840        40
20.850        27
20.860        40
20.870        13
20.880        27
20.890        40
20.900        40
20.910        27
20.920        40
20.930        40
20.940         0
20.950        40
20.960        53
20.970        27
20.980        27
20.990        53
21.000        40
21.010        53
21.020        80
21.030        27
21.040        53
21.050        13
21.060        40
21.070        13
21.080        67
21.090         0
21.100        40
21.110        27
21.120        40
21.130        27
21.140        40
21.150        27
21.160        13
21.170        80
21.180        53
21.190        80
21.200        53
21.210        13
21.220        53
21.230        67
21.240        27
21.250        27
21.260        27
21.270         0
21.280         0
21.290        53
21.300        13
21.310        40
21.320        27
21.330        40
21.340        40
21.350        53
21.360        53
21.370        13
21.380        27
21.390        80
21.400        13
21.410        40
21.420        27
21.430        13
21.440        53
21.450        40
21.460        40
21.470        80
21.480        13
21.490        53
21.500        67
21.510        53
21.520         0
21.530       120
21.540         0
21.550        27
21.560        40
21.570        27
21.580        53
21.590        13
21.600        53
21.610        40
21.620        80
21.630       107
21.640        27
21.650        53
21.660        67
21.670        13
21.680        13
21.690        13
21.700        53
21.710        27
21.720        27
21.730        40
21.740        67
21.750        13
21.760        27
21.770         0
21.780        27
21.790        13
21.800        53
21.810        13
21.820        67
21.830       120
21.840        40
21.850        13
21.860        13
21.870        40
21.880        53
21.890        53
21.900        40
21.910        80
21.920        80
21.930        13
21.940        27
21.950        40
21.960        53
21.970        53
21.980        27
21.990        53
22.000        13
22.010        27
22.020        40
22.030        27
22.040        40
22.050         0
22.060        67
22.070        13
22.080        53
22.090        40
22.100        27
22.110        53
22.120        40
22.130        40
22.140        13
22.150        40
22.160        67
22.170        80
22.180        53
22.190        27
22.200        27
22.210        27
22.220        27
22.230        13
22.240        27
22.250        53
22.260         0
22.270        13
22.280        27
22.290        13
22.300        53
22.310        27
22.320        27
22.330        13
22.340        27
22.350        67
22.360        13
22.370        40
22.380        13
22.390        27
22.400        40
22.410         0
22.420        27
22.430        53
22.440        40
22.450        40
22.460        27
22.470        40
22.480        27
22.490        53
22.500        27
22.510        53
22.520        40
22.530        13
22.540        40
22.550        40
22.560        13
22.570        13
22.580        13
22.590        53
22.600        67
22.610        27
22.620        13
22.630        27
22.640        80
22.650        40
22.660        27
22.670        67
22.680        53
22.690        13
22.700        13
22.710        40
22.720         0
22.730        67
22.740        13
22.750        27
22.760        53
22.770        13
22.780        93
22.790        13
22.800        53
22.810        13
22.820        13
22.830        27
22.840        27
22.850        27
22.860        53
22.870        27
22.880        40
22.890        40
22.900        40
22.910        67
22.920        67
22.930        27
22.940        53
22.950         0
22.960        13
22.970        27
22.980        53
22.990        27
23.000        27
23.010        67
23.020        27
23.030        27
23.040        27
23.050        67
23.060        13
23.070        40
23.080        27
23.090        53
23.100        53
23.110        13
23.120        13
23.130        13
23.140        27
23.150        40
23.160        13
23.170        53
23.180         0
23.190        13
23.200        27
23.210        27
23.220        27
23.230        40
23.240        40
23.250        40
23.260        40
23.270        67
23.280        13
23.290        40
23.300        53
23.310        67
23.320        53
23.330        13
23.340        53
23.350        40
23.360        40
23.370        13
23.380       107
23.390        27
23.400        40
23.410        40
23.420        27
23.430       267
23.440         0
23.450        40
23.460        27
23.470        80
23.480        27
23.490        27
23.500        67
23.510        40
23.520        40
23.530        27
23.540        53
23.550        40
23.560        13
23.570        27
23.580        53
23.590        53
23.600        40
23.610        27
23.620        53
23.630        13
23.640        67
23.650        27
23.660        27
23.670        40
23.680        27
23.690        13
23.700        13
23.710        27
23.720        27
23.730        27
23.740        53
23.750        67
23.760         0
23.770        27
23.780        53
23.790        13
23.800        40
23.810         0
23.820        27
23.830        27
23.840        40
23.850        67
23.860         0
23.870        13
23.880        53
23.890        40
23.900        67
23.910        53
23.920        67
23.930        40
23.940        40
23.950         0
23.960        13
23.970        40
23.980         0
23.990        13
24.000        67
24.010         0
24.020         0
24.030        27
24.040        40
24.050        13
24.060        27
24.070        13
24.080         0
24.090        40
24.100        40
24.110        40
24.120        53
24.130        93
24.140        13
24.150        40
24.160        53
24.170        27
24.180        53
24.190        13
24.200        40
24.210        80
24.220        40
24.230        53
24.240        27
24.250        80
24.260        40
24.270        27
24.280        53
24.290         0
24.300        53
24.310        40
24.320        27
24.330        40
24.340        40
24.350        53
24.360        53
24.370        67
24.380        67
24.390        27
24.400        13
24.410        27
24.420        53
24.430        40
24.440        13
24.450         0
24.460        13
24.470        40
24.480        27
24.490        13
24.500        27
24.510        27
24.520        80
24.530        13
24.540        40
24.550        13
24.560        40
24.570        40
24.580        13
24.590        53
24.600        27
24.610        13
24.620         0
24.630         0
24.640        67
24.650        53
24.660        13
24.670        53
24.680        27
24.690        53
24.700        27
24.710        80
24.720        67
24.730         0
24.740        40
24.750        40
24.760        13
24.770        13
24.780         0
24.790        13
24.800        67
24.810        27
24.820        13
24.830        27
24.840         0
24.850        40
24.860        67
24.870        40
24.880        40
24.890        13
24.900         0
24.910         0
24.920        13
24.930        13
24.940        40
24.950        27
24.960        40
24.970        40
24.980        40
24.990        13
25.000        13
25.010        53
25.020        27
25.030        67
25.040        27
25.050        40
25.060        40
25.070        27
25.080        27
25.090        80
25.100        27
25.110        67
25.120        27
25.130        13
25.140        27
25.150        13
25.160        27
25.170        27
25.180        40
25.190        13
25.200        13
25.210        27
25.220        13
25.230         0
25.240         0
25.250        13
25.260        40
25.270        13
25.280        13
25.290        40
25.300        27
25.310        67
25.320        27
25.330        80
25.340        53
25.350        93
25.360        80
25.370        13
25.380        67
25.390        67
25.400        27
25.410        67
25.420        53
25.430        40
25.440        53
25.450        53
25.460        67
25.470        40
25.480        27
25.490        93
25.500        53
25.510        40
25.520        53
25.530        27
25.540        27
25.550        53
25.560       107
25.570        40
25.580        53
25.590        40
25.600        93
25.610        67
25.620        53
25.630        93
25.640        27
25.650        80
25.660        80
25.670        53
25.680        67
25.690        40
25.700        93
25.710        53
25.720         0
25.730        67
25.740        53
25.750         0
25.760        27
25.770        13
25.780         0
25.790        27
25.800        27
25.810        27
25.820        27
25.830        53
25.840         0
25.850        27
25.860        40
25.870        40
25.880        27
25.890        27
25.900         0
25.910        27
25.920        13
25.930        27
25.940        27
25.950        40
25.960        13
25.970        13
25.980        13
25.990        13
26.000        40
26.010        27
26.020        27
26.030        13
26.040        40
26.050        80
26.060        53
26.070        27
26.080        27
26.090        13
26.100        40
26.110        27
26.120        13
26.130        93
26.140         0
26.150        13
26.160        53
26.170        27
26.180        40
26.190        53
26.200        27
26.210        27
26.220        27
26.230        27
26.240        27
26.250        27
26.260        27
26.270        40
26.280         0
26.290         0
26.300        13
26.310         0
26.320        13
26.330        40
26.340        53
26.350         0
26.360        27
26.370        40
26.380        13
26.390        40
26.400        40
26.410        40
26.420        27
26.430        13
26.440        27
26.450        40
26.460        13
26.470        53
26.480        13
26.490         0
26.500        27
26.510        40
26.520        27
26.530        40
26.540         0
26.550         0
26.560        27
26.570        53
26.580        13
26.590        67
26.600         0
26.610        40
26.620         0
26.630        13
26.640        13
26.650        27
26.660        67
26.670        13
26.680        13
26.690        13
26.700        53
26.710        27
26.720        13
26.730        40
26.740        13
26.750        27
26.760        13
26.770        13
26.780        53
26.790        13
26.800        40
26.810        40
26.820         0
26.830        27
26.840        13
26.850        13
26.860        13
26.870        40
26.880        13
26.890        40
26.900        27
26.910        27
26.920        27
26.930        13
26.940        13
26.950        27
26.960         0
26.970         0
26.980        13
26.990        27
27.000        67
27.010        13
27.020         0
27.030        13
27.040        27
27.050        53
27.060        13
27.070        13
27.080        53
27.090        53
27.100        27
27.110        27
27.120        27
27.130         0
27.140        53
27.150         0
27.160        40
27.170         0
27.180        13
27.190        27
27.200        40
27.210        13
27.220        40
27.230        40
27.240        13
27.250         0
27.260        40
27.270        13
27.280        67
27.290        53
27.300        40
27.310        13
27.320        53
27.330        53
27.340        53
27.350        27
27.360        27
27.370        40
27.380        53
27.390         0
27.400        40
27.410        53
27.420        13
27.430        40
27.440        27
27.450        13
27.460        53
27.470        13
27.480        13
27.490        13
27.500        13
27.510        13
27.520        27
27.530        40
27.540        13
27.550        27
27.560        13
27.570        27
27.580        27
27.590         0
27.600        27
27.610        27
27.620        27
27.630        40
27.640        13
27.650        13
27.660        13
27.670        27
27.680         0
27.690        27
27.700        53
27.710        13
27.720        27
27.730        13
27.740         0
27.750        27
27.760         0
27.770        13
27.780        13
27.790        53
27.800        40
27.810        13
27.820        27
27.830        13
27.840        53
27.850         0
27.860        53
27.870        13
27.880        40
27.890        27
27.900        40
27.910        53
27.920        53
27.930        27
27.940        80
27.950        40
27.960        27
27.970        27
27.980        40
27.990        13
28.000        27
28.010        27
28.020        27
28.030        13
28.040        40
28.050        40
28.060        40
28.070        13
28.080        27
28.090         0
28.100        67
28.110        27
28.120        27
28.130        40
28.140        53
28.150        13
28.160        27
28.170        40
28.180         0
28.190        53
28.200        27
28.210        13
28.220         0
28.230        40
28.240        27
28.250        40
28.260        27
28.270        13
28.280        13
28.290        27
28.300        40
28.310         0
28.320        13
28.330        40
28.340        13
28.350         0
28.360        13
28.370        13
28.380        67
28.390        27
28.400        13
28.410        13
28.420        53
28.430        13
28.440        53
28.450        27
28.460        27
28.470         0
28.480        13
28.490        27
28.500         0
28.510        13
28.520        13
28.530        27
28.540        27
28.550         0
28.560        13
28.570        13
28.580        40
28.590        13
28.600        53
28.610        40
28.620         0
28.630        27
28.640        40
28.650        27
28.660        27
28.670        13
28.680         0
28.690        67
28.700        53
28.710         0
28.720        27
28.730        13
28.740        13
28.750        27
28.760        13
28.770         0
28.780        13
28.790        27
28.800        40
28.810        40
28.820         0
28.830        40
28.840        27
28.850        13
28.860        13
28.870        40
28.880        67
28.890         0
28.900        13
28.910        27
28.920        13
28.930         0
28.940        40
28.950        40
28.960         0
28.970        27
28.980         0
28.990        27
29.000        13
29.010        13
29.020        40
29.030        40
29.040        27
29.050        13
29.060        53
29.070        27
29.080         0
29.090        40
29.100        40
29.110         0
29.120         0
29.130         0
29.140        53
29.150        67
29.160        53
29.170        27
29.180        27
29.190        27
29.200        40
29.210        40
29.220        27
29.230         0
29.240        27
29.250        27
29.260         0
29.270         0
29.280        40
29.290        27
29.300         0
29.310        27
29.320        53
29.330        13
29.340        40
29.350        40
29.360        40
29.370        13
29.380        27
29.390        53
29.400        13
29.410        80
29.420        13
29.430        40
29.440         0
29.450        13
29.460        13
29.470         0
29.480        27
29.490        13
29.500        13
29.510        53
29.520        13
29.530        53
29.540        13
29.550         0
29.560        13
29.570        40
29.580         0
29.590        27
29.600        67
29.610        27
29.620        13
29.630        40
29.640        27
29.650        27
29.660        27
29.670        13
29.680        67
29.690        27
29.700        53
29.710        53
29.720        13
29.730         0
29.740         0
29.750         0
29.760        27
29.770        13
29.780         0
29.790        13
29.800        13
29.810        40
29.820        53
29.830         0
29.840        27
29.850         0
29.860        27
29.870        13
29.880         0
29.890        40
29.900        13
29.910        53
29.920         0
29.930        40
29.940        80
29.950        93
29.960        53
29.970        40
29.980        13
29.990         0
30.000        13
30.010        40
30.020         0
30.030        13
30.040        53
30.050        40
30.060        13
30.070        27
30.080        13
30.090        13
30.100        13
30.110        27
30.120        13
30.130        13
30.140        40
30.150        27
30.160        27
30.170         0
30.180        40
30.190        13
30.200        13
30.210        53
30.220        40
30.230        93
30.240        27
30.250        53
30.260        13
30.270        40
30.280        13
30.290        80
30.300        27
30.310        27
30.320        53
30.330        53
30.340         0
30.350        40
30.360        13
30.370        13
30.380        13
30.390        13
30.400        27
30.410        27
30.420        40
30.430        13
30.440        13
30.450        53
30.460         0
30.470         0
30.480        40
30.490         0
30.500         0
30.510         0
30.520        40
30.530        67
30.540        13
30.550        27
30.560        40
30.570        27
30.580        27
30.590         0
30.600        27
30.610         0
30.620         0
30.630        27
30.640        40
30.650        93
30.660        13
30.670        13
30.680         0
30.690        40
30.700        40
30.710        40
30.720        27
30.730        13
30.740        13
30.750         0
30.760        27
30.770         0
30.780        27
30.790        40
30.800        13
30.810        53
30.820        40
30.830        40
30.840        13
30.850        13
30.860         0
30.870        40
30.880        27
30.890         0
30.900        13
30.910        27
30.920         0
30.930        40
30.940        27
30.950        27
30.960        13
30.970        53
30.980        27
30.990        53
31.000        27
31.010        13
31.020        13
31.030        13
31.040         0
31.050        40
31.060        13
31.070        40
31.080        13
31.090         0
31.100        40
31.110         0
31.120        13
31.130         0
31.140        13
31.150        13
31.160        53
31.170        40
31.180         0
31.190        27
31.200        13
31.210        27
31.220         0
31.230        53
31.240        40
31.250        13
31.260        40
31.270        27
31.280        40
31.290        67
31.300        40
31.310        53
31.320        67
31.330         0
31.340        40
31.350        27
31.360        40
31.370        40
31.380        13
31.390        13
31.400        13
31.410        27
31.420        27
31.430        13
31.440         0
31.450        67
31.460         0
31.470        40
31.480        27
31.490        27
31.500        40
31.510        13
31.520         0
31.530        40
31.540        13
31.550        40
31.560         0
31.570        13
31.580        27
31.590        67
31.600        40
31.610        53
31.620         0
31.630        27
31.640        53
31.650        27
31.660        40
31.670        40
31.680        13
31.690         0
31.700        13
31.710        13
31.720         0
31.730        40
31.740        27
31.750        40
31.760        13
31.770         0
31.780        40
31.790        27
31.800         0
31.810        13
31.820        40
31.830        53
31.840        40
31.850        13
31.860        53
31.870        40
31.880        40
31.890        13
31.900        27
31.910        40
31.920        53
31.930        40
31.940        67
31.950        13
31.960        40
31.970        53
31.980        53
31.990        67
32.000        67
32.010        27
32.020       120
32.030        13
32.040        67
32.050        27
32.060       160
32.070        67
32.080        93
32.090       213
32.100        53
32.110       160
32.120       160
32.130        93
32.140        93
32.150       160
32.160       280
32.170       133
32.180       173
32.190       173
32.200       160
32.210       200
32.220       280
32.230       187
32.240       227
32.250       240
32.260       133
32.270       227
32.280       120
32.290       120
32.300       120
32.310       147
32.320       107
32.330       107
32.340        27
32.350        80
32.360        53
32.370        40
32.380        40
32.390        80
32.400        40
32.410        93
32.420        27
32.430        53
32.440        53
32.450        80
32.460        27
32.470        40
32.480        53
32.490        40
32.500        40
32.510        40
32.520       107
32.530        53
32.540        27
32.550        13
32.560        53
32.570        67
32.580        27
32.590        27
32.600        40
32.610        13
32.620        13
32.630        27
32.640        40
32.650        13
32.660        27
32.670        27
32.680        27
32.690        13
32.700        53
32.710        27
32.720        13
32.730        13
32.740        27
32.750        13
32.760        40
32.770         0
32.780        40
32.790        40
32.800        53
32.810         0
32.820        53
32.830        27
32.840        53
32.850        13
32.860        13
32.870        13
32.880        13
32.890        53
32.900        27
32.910        40
32.920        27
32.930        13
32.940        13
32.950        27
32.960        13
32.970        27
32.980        40
32.990         0
33.000        40
33.010        13
33.020        13
33.030        13
33.040        27
33.050        53
33.060        27
33.070        53
33.080        27
33.090        40
33.100        27
33.110        40
33.120        40
33.130        13
33.140        13
33.150        53
33.160        40
33.170        13
33.180        27
33.190         0
33.200         0
33.210         0
33.220        53
33.230         0
33.240        13
33.250        13
33.260        13
33.270        40
33.280         0
33.290        13
33.300        27
33.310        27
33.320         0
33.330        27
33.340        40
33.350        13
33.360        53
33.370        40
33.380        27
33.390        53
33.400        40
33.410        27
33.420         0
33.430        40
33.440        27
33.450        13
33.460        27
33.470         0
33.480        53
33.490        40
33.500         0
33.510        13
33.520        53
33.530        40
33.540        13
33.550        27
33.560        13
33.570        40
33.580        13
33.590        40
33.600        53
33.610        40
33.620        40
33.630        13
33.640        53
33.650        80
33.660        13
33.670        27
33.680        27
33.690        13
33.700        13
33.710        27
33.720        13
33.730        27
33.740        13
33.750        13
33.760        53
33.770        40
33.780        13
33.790        13
33.800        27
33.810        53
33.820        40
33.830        53
33.840        27
33.850        13
33.860        13
33.870        27
33.880        13
33.890        13
33.900         0
33.910        13
33.920        13
33.930        27
33.940        13
33.950        40
33.960        13
33.970        27
33.980        40
33.990        80
34.000        40
34.010        13
34.020         0
34.030        13
34.040        13
34.050        53
34.060        27
34.070        27
34.080        53
34.090        40
34.100        27
34.110        13
34.120        40
34.130        13
34.140         0
34.150        27
34.160        40
34.170        13
34.180        27
34.190         0
34.200         0
34.210        27
34.220        27
34.230         0
34.240        13
34.250        27
34.260        13
34.270         0
34.280        13
34.290        13
34.300        13
34.310        13
34.320        27
34.330         0
34.340         0
34.350        40
34.360        13
34.370        40
34.380        40
34.390         0
34.400        53
34.410        27
34.420        13
34.430        40
34.440        13
34.450        27
34.460        40
34.470        53
34.480        53
34.490        13
34.500        27
34.510        27
34.520        80
34.530        40
34.540        27
34.550        27
34.560        40
34.570        13
34.580        53
34.590        13
34.600        13
34.610        27
34.620         0
34.630        93
34.640        13
34.650         0
34.660        40
34.670        13
34.680        13
34.690        13
34.700        27
34.710         0
34.720        40
34.730         0
34.740        27
34.750        27
34.760         0
34.770        13
34.780        27
34.790        53
34.800        13
34.810         0
34.820        40
34.830         0
34.840        13
34.850        27
34.860        40
34.870        40
34.880        27
34.890        13
34.900        53
34.910        13
34.920        53
34.930        13
34.940        27
34.950        27
34.960         0
34.970        13
34.980        53
34.990        67
35.000        67
35.010        53
35.020        27
35.030        40
35.040        93
35.050        67
35.060        80
35.070        40
35.080        93
35.090        40
35.100        53
35.110        80
35.120        93
35.130        80
35.140       147
35.150       120
35.160       160
35.170       147
35.180       227
35.190       240
35.200       173
35.210        93
35.220       120
35.230       173
35.240        67
35.250        53
35.260       160
35.270        67
35.280        67
35.290        93
35.300        80
35.310        53
35.320        53
35.330        53
35.340        27
35.350        13
35.360        40
35.370        27
35.380        40
35.390        40
35.400        27
35.410        13
35.420        13
35.430         0
35.440        27
35.450        13
35.460        13
35.470        40
35.480        27
35.490        27
35.500        13
35.510         0
35.520        13
35.530        53
35.540        27
35.550        13
35.560         0
35.570         0
35.580        13
35.590        67
35.600        27
35.610         0
35.620        40
35.630        40
35.640        13
35.650        40
35.660        13
35.670         0
35.680        13
35.690        40
35.700        13
35.710        13
35.720        13
35.730        13
35.740        27
35.750         0
35.760        27
35.770        13
35.780        40
35.790        40
35.800         0
35.810        27
35.820        27
35.830         0
35.840         0
35.850        40
35.860        40
35.870         0
35.880        27
35.890        13
35.900        13
35.910        27
35.920        13
35.930        80
35.940        13
35.950        27
35.960        27
35.970        13
35.980        13
35.990         0
36.000         0
36.010        27
36.020         0
36.030        13
36.040        27
36.050        27
36.060         0
36.070        13
36.080         0
36.090        27
36.100        93
36.110        13
36.120         0
36.130        27
36.140        53
36.150        13
36.160        40
36.170         0
36.180        13
36.190        27
36.200        67
36.210         0
36.220        40
36.230        27
36.240        93
36.250        27
36.260         0
36.270        27
36.280        13
36.290        27
36.300        27
36.310        40
36.320         0
36.330        27
36.340        40
36.350         0
36.360        40
36.370        13
36.380         0
36.390        27
36.400        27
36.410         0
36.420         0
36.430        27
36.440        13
36.450        13
36.460        27
36.470         0
36.480        13
36.490        27
36.500        27
36.510        27
36.520         0
36.530        13
36.540        27
36.550        13
36.560        13
36.570        67
36.580        27
36.590        40
36.600        27
36.610        13
36.620         0
36.630        13
36.640        53
36.650        13
36.660         0
36.670        27
36.680        40
36.690         0
36.700        27
36.710        40
36.720        53
36.730        53
36.740        40
36.750        53
36.760        53
36.770        27
36.780        13
36.790        40
36.800        27
36.810         0
36.820        53
36.830         0
36.840        40
36.850        53
36.860        53
36.870        27
36.880        13
36.890        27
36.900         0
36.910        80
36.920        67
36.930         0
36.940        40
36.950        40
36.960        13
36.970        27
36.980        27
36.990        13
37.000        27
37.010         0
37.020        27
37.030        27
37.040        40
37.050        53
37.060        40
37.070        13
37.080        13
37.090        13
37.100        13
37.110        53
37.120        27
37.130        53
37.140        13
37.150         0
37.160        27
37.170        13
37.180        40
37.190        40
37.200        40
37.210         0
37.220        27
37.230        13
37.240        13
37.250        13
37.260        27
37.270        27
37.280        53
37.290        13
37.300        40
37.310        27
37.320         0
37.330         0
37.340        40
37.350        13
37.360        27
37.370        13
37.380        40
37.390        13
37.400        13
37.410        27
37.420        13
37.430        40
37.440        13
37.450         0
37.460         0
37.470        13
37.480         0
37.490        13
37.500         0
37.510        27
37.520        13
37.530         0
37.540        13
37.550        27
37.560        13
37.570        67
37.580        27
37.590         0
37.600        13
37.610        27
37.620        53
37.630        27
37.640        27
37.650        40
37.660        27
37.670        13
37.680        27
37.690        40
37.700        13
37.710        40
37.720        27
37.730        80
37.740         0
37.750        27
37.760        40
37.770         0
37.780         0
37.790        40
37.800        53
37.810        13
37.820        53
37.830        53
37.840        53
37.850        27
37.860        27
37.870        40
37.880        40
37.890        27
37.900        40
37.910        40
37.920        40
37.930        27
37.940        13
37.950        40
37.960        13
37.970        13
37.980        27
37.990         0
38.000        13
38.010        27
38.020         0
38.030        27
38.040        27
38.050         0
38.060        13
38.070        40
38.080        40
38.090        80
38.100         0
38.110        27
38.120        13
38.130        13
38.140        27
38.150        13
38.160        27
38.170        40
38.180        13
38.190        13
38.200        27
38.210        13
38.220         0
38.230        13
38.240        13
38.250        27
38.260        53
38.270         0
38.280         0
38.290         0
38.300        40
38.310        13
38.320         0
38.330        27
38.340         0
38.350        40
38.360        13
38.370        13
38.380        27
38.390        27
38.400        27
38.410         0
38.420         0
38.430        27
38.440        40
38.450        13
38.460        13
38.470        27
38.480        13
38.490         0
38.500         0
38.510        13
38.520        13
38.530        53
38.540        13
38.550        27
38.560         0
38.570        13
38.580        13
38.590         0
38.600        13
38.610        13
38.620        13
38.630         0
38.640         0
38.650         0
38.660        67
38.670        13
38.680        40
38.690        13
38.700         0
38.710         0
38.720        53
38.730        13
38.740        67
38.750         0
38.760        27
38.770        27
38.780        40
38.790        40
38.800        27
38.810        13
38.820         0
38.830        27
38.840        40
38.850        13
38.860         0
38.870        27
38.880        40
38.890        40
38.900        27
38.910         0
38.920        27
38.930        13
38.940         0
38.950        13
38.960        53
38.970         0
38.980        27
38.990         0
39.000         0
39.010        53
39.020        13
39.030        27
39.040        27
39.050        27
39.060         0
39.070        40
39.080         0
39.090        13
39.100         0
39.110        40
39.120         0
39.130        13
39.140        40
39.150        13
39.160        13
39.170        27
39.180        27
39.190        13
39.200        27
39.210         0
39.220        13
39.230        13
39.240        13
39.250        67
39.260        13
39.270        53
39.280        27
39.290        27
39.300        53
39.310        53
39.320        13
39.330        40
39.340        40
39.350        27
39.360        53
39.370        53
39.380        27
39.390        27
39.400        40
39.410        13
39.420        67
39.430        13
39.440        80
39.450        13
39.460        67
39.470       107
39.480        67
39.490        27
39.500        40
39.510        27
39.520        40
39.530        40
39.540       133
39.550        67
39.560       120
39.570        53
39.580        93
39.590        93
39.600       107
39.610        93
39.620       133
39.630       107
39.640        93
39.650        80
39.660       147
39.670       187
39.680       133
39.690       107
39.700       213
39.710       187
39.720       147
39.730       160
39.740       160
39.750       227
39.760       200
39.770       120
39.780        80
39.790        53
39.800       147
39.810       173
39.820        93
39.830       107
39.840       133
39.850        53
39.860        67
39.870        53
39.880        53
39.890       107
39.900        67
39.910        93
39.920        40
39.930        80
39.940        53
39.950        40
39.960        13
39.970        40
39.980        27
39.990        13
40.000        40
40.010        40
40.020         0
40.030        40
40.040        27
40.050        67
40.060         0
40.070        67
40.080        13
40.090        13
40.100        53
40.110        27
40.120        27
40.130        27
40.140        13
40.150         0
40.160        40
40.170        13
40.180        40
40.190         0
40.200        40
40.210        40
40.220        13
40.230        13
40.240        13
40.250        40
40.260        53
40.270        13
40.280        67
40.290        27
40.300         0
40.310        27
40.320        40
40.330        13
40.340        40
40.350        27
40.360         0
40.370         0
40.380         0
40.390        13
40.400        13
40.410        27
40.420        40
40.430        53
40.440        13
40.450         0
40.460        13
40.470        27
40.480        13
40.490        40
40.500         0
40.510        13
40.520        13
40.530         0
40.540        13
40.550         0
40.560        13
40.570         0
40.580        27
40.590        27
40.600        40
40.610        13
40.620        13
40.630        27
40.640        27
40.650         0
40.660        40
40.670         0
40.680         0
40.690        13
40.700        13
40.710        40
40.720         0
40.730        53
40.740        27
40.750        40
40.760        53
40.770         0
40.780        40
40.790        13
40.800        40
40.810        27
40.820        27
40.830        13
40.840         0
40.850        13
40.860         0
40.870        40
40.880        13
40.890        27
40.900        13
40.910        13
40.920        27
40.930        13
40.940        27
40.950        53
40.960        27
40.970        53
40.980        27
40.990        67
41.000        27
41.010         0
41.020        40
41.030        27
41.040        13
41.050         0
41.060        40
41.070         0
41.080        53
41.090         0
41.100        13
41.110         0
41.120        27
41.130        13
41.140        27
41.150         0
41.160        13
41.170        13
41.180        27
41.190        13
41.200         0
41.210        27
41.220         0
41.230        40
41.240        13
41.250        67
41.260        40
41.270        27
41.280         0
41.290        27
41.300        53
41.310        13
41.320        13
41.330        13
41.340        13
41.350        40
41.360        13
41.370         0
41.380        13
41.390         0
41.400        27
41.410        27
41.420         0
41.430        27
41.440        13
41.450        40
41.460        27
41.470        13
41.480         0
41.490        40
41.500        27
41.510        40
41.520         0
41.530        27
41.540        27
41.550        53
41.560       107
41.570        40
41.580        93
41.590        67
41.600       107
41.610        80
41.620       120
41.630       133
41.640       120
41.650       160
41.660       187
41.670       173
41.680       347
41.690       213
41.700       347
41.710       213
41.720       200
41.730       160
41.740       227
41.750       213
41.760       200
41.770        93
41.780        80
41.790       200
41.800       187
41.810        67
41.820       120
41.830       120
41.840       120
41.850       107
41.860        27
41.870        13
41.880        67
41.890        67
41.900        80
41.910         0
41.920        53
41.930        13
41.940        13
41.950        67
41.960        13
41.970        13
41.980        27
41.990         0
42.000        40
42.010        13
42.020        13
42.030         0
42.040        13
42.050        13
42.060        13
42.070        13
42.080        13
42.090        13
42.100        53
42.110         0
42.120        13
42.130        13
42.140        13
42.150         0
42.160        27
42.170         0
42.180        40
42.190        40
42.200         0
42.210         0
42.220        53
42.230        27
42.240        13
42.250        13
42.260        13
42.270        13
42.280         0
42.290        40
42.300        27
42.310        13
42.320        27
42.330        13
42.340        53
42.350        27
42.360        53
42.370         0
42.380        13
42.390        27
42.400        40
42.410         0
42.420        13
42.430        40
42.440         0
42.450        27
42.460        40
42.470        27
42.480         0
42.490         0
42.500         0
42.510        13
42.520        13
42.530        13
42.540        27
42.550        13
42.560        27
42.570         0
42.580         0
42.590         0
42.600        27
42.610         0
42.620        13
42.630        13
42.640        13
42.650         0
42.660         0
42.670        13
42.680         0
42.690         0
42.700        53
42.710        13
42.720        40
42.730        13
42.740        40
42.750        27
42.760        27
42.770         0
42.780        13
42.790         0
42.800        40
42.810        13
42.820        13
42.830        27
42.840        13
42.850        40
42.860        40
42.870        13
42.880         0
42.890        13
42.900        67
42.910        13
42.920        27
42.930        27
42.940        13
42.950        13
42.960         0
42.970        27
42.980         0
42.990        27
43.000        40
43.010        80
43.020         0
43.030        13
43.040        53
43.050         0
43.060        27
43.070        53
43.080        13
43.090         0
43.100        13
43.110        27
43.120        27
43.130        13
43.140        93
43.150        13
43.160        13
43.170        27
43.180         0
43.190        27
43.200        27
43.210        13
43.220        27
43.230         0
43.240        40
43.250        40
43.260       107
43.270       120
43.280        80
43.290       187
43.300       160
43.310       160
43.320       133
43.330       173
43.340       107
43.350        93
43.360        67
43.370        53
43.380        13
43.390        93
43.400        80
43.410       120
43.420        67
43.430        53
43.440       120
43.450        67
43.460        40
43.470        13
43.480        40
43.490        40
43.500        27
43.510        27
43.520         0
43.530        13
43.540        13
43.550        13
43.560        27
43.570        13
43.580        13
43.590        13
43.600         0
43.610         0
43.620        13
43.630        13
43.640        13
43.650        13
43.660        67
43.670        13
43.680        13
43.690        13
43.700         0
43.710        13
43.720        13
43.730        27
43.740        27
43.750        40
43.760        27
43.770        13
43.780        13
43.790        40
43.800        40
43.810        13
43.820        13
43.830        40
43.840        13
43.850        13
43.860        13
43.870         0
43.880        80
43.890        53
43.900        27
43.910        67
43.920        27
43.930        27
43.940        40
43.950        13
43.960        13
43.970        27
43.980        13
43.990        13
44.000         0
44.010         0
44.020         0
44.030        27
44.040        40
44.050        13
44.060        27
44.070        13
44.080         0
44.090        13
44.100         0
44.110        13
44.120         0
44.130        27
44.140        13
44.150        27
44.160        13
44.170        53
44.180        13
44.190        40
44.200         0
44.210        27
44.220         0
44.230        27
44.240        67
44.250        53
44.260        53
44.270        13
44.280        13
44.290        53
44.300         0
44.310        13
44.320        13
44.330        13
44.340        27
44.350        27
44.360        40
44.370         0
44.380        27
44.390        13
44.400        13
44.410        27
44.420        13
44.430         0
44.440        40
44.450        27
44.460        53
44.470         0
44.480        40
44.490        27
44.500        27
44.510        13
44.520        40
44.530        13
44.540         0
44.550        13
44.560        13
44.570        27
44.580         0
44.590        27
44.600         0
44.610        13
44.620        13
44.630        13
44.640        27
44.650        27
44.660        13
44.670        13
44.680        13
44.690        13
44.700         0
44.710        27
44.720        13
44.730         0
44.740        27
44.750        27
44.760        27
44.770        13
44.780        13
44.790        27
44.800        13
44.810        27
44.820        27
44.830        27
44.840         0
44.850        27
44.860        27
44.870        27
44.880        53
44.890        13
44.900        53
44.910        27
44.920         0
44.930        13
44.940        27
44.950         0
44.960        53
44.970        13
44.980        13
44.990        13
45.000        13
45.010        27
45.020         0
45.030        40
45.040        53
45.050         0
45.060        27
45.070        13
45.080        53
45.090         0
45.100        27
45.110        27
45.120        13
45.130        27
45.140         0
45.150        13
45.160        27
45.170        13
45.180         0
45.190        13
45.200         0
45.210        40
45.220        27
45.230        13
45.240        13
45.250        53
45.260        27
45.270        27
45.280        53
45.290         0
45.300         0
45.310        13
45.320        13
45.330        13
45.340        13
45.350        13
45.360        13
45.370         0
45.380         0
45.390        27
45.400        13
45.410        13
45.420        53
45.430        13
45.440        13
45.450        13
45.460        27
45.470        40
45.480        40
45.490        40
45.500         0
45.510        27
45.520        13
45.530        53
45.540        13
45.550        40
45.560        27
45.570        13
45.580         0
45.590        13
45.600        13
45.610         0
45.620        13
45.630         0
45.640        27
45.650         0
45.660        40
45.670        40
45.680        93
45.690        40
45.700         0
45.710         0
45.720        40
45.730         0
45.740        27
45.750        13
45.760        40
45.770        13
45.780         0
45.790        13
45.800        13
45.810         0
45.820        27
45.830        27
45.840        27
45.850        27
45.860        67
45.870        40
45.880         0
45.890        13
45.900        27
45.910         0
45.920        27
45.930        27
45.940         0
45.950        40
45.960        27
45.970        13
45.980        40
45.990         0
46.000        27
46.010         0
46.020         0
46.030        40
46.040        13
46.050        27
46.060        27
46.070        13
46.080        40
46.090        13
46.100        40
46.110        40
46.120         0
46.130        13
46.140        40
46.150        13
46.160        40
46.170        27
46.180        40
46.190        40
46.200        27
46.210        13
46.220        27
46.230        13
46.240        27
46.250        13
46.260         0
46.270        27
46.280        27
46.290         0
46.300        27
46.310        13
46.320        13
46.330        40
46.340        13
46.350         0
46.360        13
46.370        27
46.380        13
46.390        53
46.400        13
46.410        13
46.420        13
46.430        27
46.440        40
46.450        13
46.460         0
46.470        27
46.480        13
46.490        67
46.500         0
46.510        40
46.520        53
46.530         0
46.540        13
46.550        27
46.560        13
46.570         0
46.580         0
46.590        40
46.600        27
46.610        27
46.620        13
46.630         0
46.640        13
46.650        13
46.660        27
46.670        13
46.680        13
46.690         0
46.700         0
46.710        27
46.720        13
46.730        27
46.740         0
46.750         0
46.760         0
46.770        40
46.780         0
46.790         0
46.800        13
46.810        13
46.820        27
46.830        13
46.840        13
46.850        13
46.860         0
46.870         0
46.880         0
46.890         0
46.900         0
46.910        40
46.920        13
46.930         0
46.940         0
46.950         0
46.960        40
46.970        27
46.980        13
46.990        27
47.000        27
47.010        53
47.020         0
47.030         0
47.040         0
47.050        13
47.060        27
47.070         0
47.080        13
47.090        13
47.100         0
47.110        13
47.120        13
47.130        13
47.140        13
47.150        13
47.160         0
47.170        13
47.180         0
47.190        27
47.200        13
47.210        40
47.220        13
47.230        27
47.240        13
47.250         0
47.260        13
47.270        27
47.280        40
47.290        13
47.300        53
47.310        13
47.320        13
47.330        27
47.340        13
47.350        13
47.360         0
47.370        40
47.380         0
47.390        13
47.400        27
47.410         0
47.420         0
47.430        27
47.440         0
47.450        27
47.460         0
47.470        27
47.480        27
47.490         0
47.500        13
47.510         0
47.520        13
47.530        40
47.540        13
47.550        27
47.560        40
47.570        13
47.580        40
47.590         0
47.600        13
47.610        13
47.620        13
47.630        53
47.640        13
47.650         0
47.660        27
47.670        27
47.680         0
47.690        13
47.700        40
47.710         0
47.720        13
47.730        13
47.740         0
47.750        40
47.760        27
47.770        13
47.780         0
47.790        13
47.800        27
47.810        27
47.820         0
47.830         0
47.840        27
47.850         0
47.860        27
47.870        13
47.880        53
47.890         0
47.900        13
47.910         0
47.920        27
47.930         0
47.940        27
47.950        13
47.960         0
47.970         0
47.980        53
47.990         0
48.000        13
48.010        13
48.020        13
48.030         0
48.040        13
48.050         0
48.060         0
48.070        27
48.080        13
48.090        27
48.100        40
48.110        13
48.120         0
48.130         0
48.140         0
48.150        27
48.160        13
48.170         0
48.180         0
48.190         0
48.200         0
48.210         0
48.220         0
48.230        40
48.240        13
48.250        53
48.260         0
48.270         0
48.280        27
48.290        13
48.300        27
48.310        13
48.320        53
48.330         0
48.340        13
48.350        13
48.360        40
48.370        13
48.380        13
48.390         0
48.400        13
48.410         0
48.420        40
48.430        13
48.440        13
48.450        27
48.460         0
48.470        40
48.480        40
48.490        40
48.500        13
48.510        27
48.520        27
48.530        67
48.540        13
48.550        13
48.560        27
48.570        27
48.580         0
48.590        13
48.600        27
48.610         0
48.620         0
48.630         0
48.640         0
48.650        13
48.660        27
48.670        13
48.680         0
48.690        40
48.700        13
48.710        13
48.720         0
48.730         0
48.740         0
48.750        13
48.760        13
48.770        13
48.780         0
48.790         0
48.800         0
48.810        13
48.820         0
48.830        13
48.840        27
48.850         0
48.860        13
48.870        40
48.880        13
48.890        13
48.900        13
48.910        13
48.920        27
48.930        40
48.940        13
48.950        40
48.960         0
48.970        13
48.980        13
48.990        13
49.000        53
49.010        27
49.020        13
49.030         0
49.040        27
49.050         0
49.060        13
49.070        13
49.080         0
49.090        13
49.100         0
49.110         0
49.120        13
49.130        13
49.140        13
49.150         0
49.160         0
49.170         0
49.180        53
49.190        13
49.200        13
49.210        13
49.220         0
49.230        27
49.240        13
49.250        13
49.260        13
49.270        13
49.280        27
49.290        53
49.300         0
49.310        13
49.320        27
49.330         0
49.340        27
49.350        13
49.360        13
49.370        27
49.380        13
49.390        27
49.400        40
49.410        53
49.420        27
49.430        27
49.440        27
49.450        13
49.460        13
49.470        27
49.480        27
49.490         0
49.500        13
49.510        27
49.520        27
49.530        13
49.540        13
49.550        27
49.560         0
49.570        40
49.580        13
49.590        13
49.600         0
49.610         0
49.620         0
49.630        13
49.640         0
49.650        13
49.660         0
49.670         0
49.680        27
49.690         0
49.700        27
49.710         0
49.720         0
49.730        27
49.740        27
49.750         0
49.760        13
49.770        27
49.780        13
49.790        13
49.800         0
49.810        40
49.820         0
49.830         0
49.840        27
49.850         0
49.860        13
49.870        13
49.880        13
49.890        27
49.900        13
49.910         0
49.920        13
49.930        13
49.940        27
49.950         0
49.960        27
49.970        27
49.980        13
49.990        27
50.000        27
50.010        40
50.020        13
50.030        13
50.040        27
50.050         0
50.060        40
50.070        13
50.080        40
50.090        27
50.100        13
50.110         0
50.120        13
50.130        27
50.140         0
50.150         0
50.160        27
50.170        13
50.180        13
50.190         0
50.200        13
50.210         0
50.220        13
50.230        13
50.240        27
50.250        13
50.260        13
50.270        27
50.280        13
50.290        13
50.300        13
50.310        13
50.320        13
50.330        13
50.340        27
50.350        13
50.360        27
50.370        27
50.380         0
50.390        13
50.400        13
50.410        27
50.420        13
50.430        13
50.440         0
50.450         0
50.460         0
50.470        27
50.480        13
50.490        13
50.500        40
50.510         0
50.520         0
50.530        13
50.540        40
50.550        27
50.560         0
50.570         0
50.580         0
50.590        27
50.600        13
50.610        13
50.620         0
50.630         0
50.640        27
50.650        13
50.660         0
50.670        13
50.680        13
50.690        27
50.700        27
50.710        53
50.720         0
50.730        40
50.740        13
50.750        27
50.760        13
50.770        27
50.780         0
50.790         0
50.800        13
50.810        13
50.820        13
50.830        53
50.840        27
50.850        27
50.860        27
50.870        13
50.880         0
50.890        13
50.900         0
50.910        13
50.920        27
50.930        27
50.940        13
50.950        27
50.960        13
50.970        13
50.980         0
50.990        27
51.000        13
51.010        13
51.020         0
51.030         0
51.040         0
51.050        27
51.060        13
51.070        13
51.080        27
51.090         0
51.100        27
51.110        13
51.120        13
51.130        27
51.140        27
51.150         0
51.160        27
51.170        27
51.180         0
51.190        13
51.200        27
51.210         0
51.220        13
51.230         0
51.240        13
51.250        13
51.260        13
51.270        27
51.280        13
51.290        13
51.300        40
51.310        13
51.320        27
51.330        13
51.340        27
51.350        13
51.360        13
51.370        13
51.380        13
51.390        40
51.400        40
51.410        27
51.420        40
51.430         0
51.440         0
51.450        13
51.460        27
51.470        13
51.480         0
51.490        13
51.500         0
51.510        13
51.520         0
51.530        27
51.540         0
51.550         0
51.560        13
51.570         0
51.580        13
51.590        27
51.600        53
51.610        53
51.620         0
51.630         0
51.640        13
51.650         0
51.660        13
51.670        27
51.680         0
51.690        27
51.700         0
51.710        67
51.720        13
51.730        13
51.740         0
51.750        13
51.760        13
51.770        40
51.780        40
51.790        13
51.800        40
51.810        13
51.820        27
51.830         0
51.840         0
51.850         0
51.860         0
51.870        13
51.880        27
51.890         0
51.900        13
51.910        13
51.920        40
51.930        13
51.940        27
51.950         0
51.960        13
51.970        40
51.980         0
51.990         0
52.000        40
52.010        27
52.020         0
52.030        13
52.040         0
52.050        13
52.060        13
52.070        27
52.080        40
52.090        27
52.100        13
52.110        13
52.120        40
52.130         0
52.140        13
52.150         0
52.160        27
52.170         0
52.180         0
52.190        13
52.200        40
52.210        13
52.220        13
52.230        13
52.240        13
52.250        13
52.260        13
52.270         0
52.280        40
52.290         0
52.300         0
52.310        27
52.320         0
52.330        13
52.340        40
52.350         0
52.360        13
52.370         0
52.380        40
52.390         0
52.400        13
52.410        27
52.420        27
52.430        27
52.440        27
52.450        27
52.460        27
52.470        13
52.480        13
52.490        13
52.500        53
52.510        40
52.520        27
52.530        80
52.540        40
52.550         0
52.560        27
52.570        13
52.580        40
52.590        40
52.600        53
52.610        53
52.620       107
52.630        27
52.640        13
52.650        13
52.660        27
52.670        13
52.680        27
52.690        27
52.700        67
52.710        40
52.720        80
52.730        67
52.740        27
52.750        13
52.760        27
52.770        27
52.780        40
52.790         0
52.800        13
52.810        13
52.820        13
52.830        13
52.840        13
52.850        40
52.860         0
52.870        13
52.880        13
52.890        40
52.900        13
52.910        13
52.920         0
52.930        53
52.940        53
52.950        27
52.960        13
52.970        13
52.980        13
52.990         0
53.000         0
53.010        27
53.020        40
53.030        40
53.040         0
53.050        13
53.060         0
53.070         0
53.080        13
53.090        13
53.100        13
53.110        13
53.120        13
53.130        13
53.140        40
53.150        13
53.160        27
53.170        27
53.180         0
53.190        13
53.200        27
53.210        27
53.220        27
53.230        13
53.240        27
53.250         0
53.260        27
53.270         0
53.280        27
53.290         0
53.300        27
53.310         0
53.320        13
53.330         0
53.340         0
53.350         0
53.360        13
53.370        40
53.380        27
53.390        13
53.400        13
53.410         0
53.420        13
53.430        13
53.440         0
53.450        13
53.460         0
53.470        40
53.480        27
53.490         0
53.500        13
53.510        53
53.520        40
53.530        13
53.540         0
53.550        27
53.560        27
53.570         0
53.580         0
53.590        13
53.600        40
53.610         0
53.620        13
53.630        13
53.640        40
53.650         0
53.660        13
53.670         0
53.680        27
53.690        27
53.700        13
53.710        13
53.720         0
53.730         0
53.740        13
53.750        27
53.760        27
53.770         0
53.780         0
53.790         0
53.800         0
53.810         0
53.820         0
53.830        27
53.840        13
53.850        27
53.860        27
53.870        27
53.880         0
53.890        13
53.900        13
53.910         0
53.920        27
53.930        27
53.940        40
53.950        13
53.960        13
53.970        13
53.980        13
53.990         0
54.000        53
54.010         0
54.020        13
54.030        27
54.040        13
54.050         0
54.060        13
54.070         0
54.080        27
54.090        13
54.100         0
54.110         0
54.120        13
54.130        27
54.140         0
54.150         0
54.160        40
54.170         0
54.180        27
54.190        13
54.200         0
54.210        13
54.220        40
54.230         0
54.240        13
54.250        13
54.260        13
54.270         0
54.280        40
54.290        27
54.300         0
54.310        27
54.320        13
54.330         0
54.340        40
54.350        13
54.360         0
54.370        27
54.380         0
54.390        13
54.400        13
54.410        13
54.420        13
54.430        27
54.440        13
54.450        13
54.460        27
54.470         0
54.480        27
54.490        27
54.500        13
54.510        13
54.520        13
54.530        13
54.540        13
54.550        27
54.560        13
54.570        13
54.580        13
54.590        13
54.600        40
54.610        27
54.620        13
54.630        13
54.640        13
54.650         0
54.660        13
54.670         0
54.680        13
54.690        27
54.700         0
54.710        27
54.720        13
54.730        27
54.740         0
54.750         0
54.760        40
54.770        13
54.780        27
54.790         0
54.800         0
54.810        40
54.820         0
54.830        40
54.840         0
54.850        13
54.860        27
54.870        27
54.880        13
54.890         0
54.900        13
54.910        13
54.920        13
54.930         0
54.940        13
54.950         0
54.960         0
54.970        13
54.980        13
54.990        13
55.000        13
55.010         0
55.020         0
55.030        40
55.040        27
55.050        13
55.060         0
55.070        27
55.080         0
55.090        13
55.100        27
55.110        13
55.120         0
55.130        27
55.140         0
55.150        27
55.160        13
55.170        13
55.180         0
55.190        13
55.200         0
55.210        53
55.220         0
55.230        13
55.240        13
55.250        13
55.260        27
55.270         0
55.280         0
55.290         0
55.300         0
55.310        13
55.320        67
55.330        27
55.340        13
55.350        13
55.360        40
55.370         0
55.380         0
55.390         0
55.400        13
55.410        13
55.420        27
55.430        13
55.440        27
55.450        13
55.460         0
55.470        53
55.480        27
55.490         0
55.500         0
55.510         0
55.520        13
55.530        27
55.540        27
55.550        13
55.560        13
55.570         0
55.580         0
55.590        27
55.600        13
55.610         0
55.620         0
55.630        13
55.640        40
55.650        13
55.660         0
55.670        40
55.680        27
55.690        13
55.700        13
55.710        13
55.720        13
55.730        13
55.740        13
55.750        40
55.760        40
55.770        53
55.780        40
55.790        27
55.800        13
55.810        13
55.820         0
55.830        27
55.840        13
55.850        40
55.860        13
55.870        27
55.880         0
55.890        27
55.900        13
55.910        13
55.920        40
55.930        27
55.940         0
55.950        13
55.960         0
55.970        13
55.980         0
55.990        13
56.000        27
56.010        13
56.020        27
56.030        27
56.040        13
56.050        13
56.060        27
56.070        27
56.080        13
56.090        27
56.100        27
56.110         0
56.120         0
56.130        13
56.140        27
56.150        13
56.160        13
56.170        13
56.180         0
56.190         0
56.200        13
56.210        40
56.220        27
56.230        40
56.240        13
56.250        53
56.260        13
56.270         0
56.280        13
56.290        40
56.300         0
56.310         0
56.320         0
56.330        27
56.340        13
56.350         0
56.360         0
56.370        13
56.380        27
56.390        13
56.400        27
56.410        40
56.420        27
56.430        13
56.440        27
56.450         0
56.460        13
56.470         0
56.480        40
56.490        40
56.500         0
56.510         0
56.520        13
56.530         0
56.540        27
56.550        13
56.560        13
56.570         0
56.580        27
56.590        13
56.600        13
56.610        13
56.620        27
56.630        13
56.640        40
56.650        27
56.660        13
56.670        40
56.680        13
56.690         0
56.700         0
56.710         0
56.720         0
56.730         0
56.740        67
56.750         0
56.760        67
56.770        27
56.780         0
56.790         0
56.800        53
56.810        13
56.820        27
56.830        27
56.840        27
56.850        13
56.860        40
56.870        13
56.880         0
56.890         0
56.900         0
56.910         0
56.920        13
56.930        27
56.940        13
56.950         0
56.960         0
56.970        13
56.980        13
56.990         0
57.000        13
57.010        27
57.020        13
57.030        27
57.040        27
57.050        13
57.060         0
57.070        27
57.080        13
57.090        27
57.100        67
57.110        13
57.120        13
57.130        13
57.140        40
57.150         0
57.160        40
57.170         0
57.180        27
57.190        13
57.200        40
57.210        40
57.220        53
57.230        27
57.240        13
57.250        40
57.260        53
57.270        27
57.280        13
57.290        80
57.300        13
57.310        40
57.320        27
57.330        27
57.340        27
57.350        40
57.360        80
57.370        80
57.380        13
57.390       120
57.400        80
57.410        93
57.420       107
57.430        93
57.440        40
57.450       133
57.460        67
57.470       107
57.480       173
57.490       227
57.500       253
57.510       227
57.520       426
57.530       466
57.540       520
57.550       520
57.560       400
57.570       387
57.580       267
57.590       213
57.600       133
57.610       160
57.620       107
57.630        80
57.640        40
57.650       107
57.660       107
57.670       160
57.680       187
57.690       107
57.700       187
57.710       267
57.720       133
57.730       160
57.740       147
57.750        80
57.760        40
57.770        27
57.780        13
57.790        53
57.800        53
57.810         0
57.820        53
57.830        27
57.840        27
57.850        27
57.860        13
57.870        53
57.880        27
57.890        13
57.900        40
57.910        13
57.920         0
57.930        13
57.940        40
57.950        27
57.960         0
57.970        40
57.980         0
57.990        40
58.000         0
58.010         0
58.020        13
58.030        27
58.040        40
58.050        13
58.060         0
58.070         0
58.080        13
58.090         0
58.100        27
58.110        40
58.120        40
58.130        27
58.140        13
58.150         0
58.160        40
58.170        13
58.180         0
58.190        27
58.200         0
58.210         0
58.220        53
58.230         0
58.240         0
58.250         0
58.260        40
58.270         0
58.280        27
58.290        27
58.300        27
58.310        13
58.320         0
58.330        13
58.340         0
58.350        13
58.360        13
58.370        13
58.380        13
58.390        13
58.400        13
58.410        13
58.420        27
58.430        13
58.440         0
58.450        27
58.460        40
58.470        13
58.480        13
58.490         0
58.500         0
58.510        27
58.520         0
58.530        13
58.540         0
58.550         0
58.560        13
58.570        13
58.580        40
58.590        13
58.600        13
58.610         0
58.620         0
58.630        13
58.640        27
58.650         0
58.660         0
58.670         0
58.680        13
58.690        27
58.700         0
58.710        13
58.720        40
58.730        13
58.740        13
58.750        27
58.760        13
58.770        13
58.780         0
58.790        27
58.800         0
58.810         0
58.820         0
58.830        53
58.840         0
58.850         0
58.860        40
58.870         0
58.880         0
58.890        40
58.900        27
58.910         0
58.920        53
58.930        13
58.940        13
58.950        27
58.960         0
58.970        27
58.980        27
58.990         0
59.000         0
59.010         0
59.020         0
59.030         0
59.040        13
59.050        27
59.060        40
59.070        27
59.080         0
59.090        13
59.100         0
59.110        13
59.120        13
59.130        27
59.140        27
59.150        27
59.160        13
59.170        27
59.180        27
59.190        27
59.200        40
59.210         0
59.220         0
59.230        40
59.240        13
59.250         0
59.260        13
59.270         0
59.280        13
59.290        27
59.300        40
59.310        13
59.320        13
59.330        13
59.340         0
59.350        13
59.360        13
59.370         0
59.380        40
59.390        40
59.400        13
59.410        13
59.420        13
59.430        13
59.440        53
59.450        13
59.460        13
59.470        13
59.480        40
59.490         0
59.500        13
59.510        13
59.520         0
59.530        13
59.540         0
59.550        13
59.560        27
59.570        27
59.580        13
59.590         0
59.600        13
59.610        40
59.620        27
59.630        40
59.640         0
59.650        13
59.660        40
59.670        27
59.680         0
59.690         0
59.700         0
59.710         0
59.720         0
59.730        27
59.740        40
59.750        27
59.760        27
59.770        13
59.780        13
59.790        27
59.800         0
59.810        13
59.820        13
59.830        27
59.840         0
59.850         0
59.860        13
59.870        27
59.880         0
59.890         0
59.900        13
59.910        13
59.920        13
59.930        27
59.940         0
59.950         0
59.960         0
59.970        13
59.980        27
59.990         0
60.000         0
