20.000        17
20.020        17
20.040        47
20.060        50
20.080        30
20.100        30
20.120        50
20.140        43
20.160        33
20.180        37
20.200        37
20.220        40
20.240        57
20.260        23
20.280        50
20.300        47
20.320        50
20.340        53
20.360        30
20.380        33
20.400        47
20.420        40
20.440        53
20.460        23
20.480        33
20.500        13
20.520        30
20.540        27
20.560        57
20.580        33
20.600        50
20.620        57
20.640        47
20.660        37
20.680        50
20.700        43
20.720        33
20.740        40
20.760        33
20.780        27
20.800        40
20.820        40
20.840        27
20.860        37
20.880        50
20.900        47
20.920        23
20.940        47
20.960        37
20.980        30
21.000        30
21.020        37
21.040        43
21.060        37
21.080        70
21.100        37
21.120        27
21.140        43
21.160        50
21.180        33
21.200        40
21.220        50
21.240        47
21.260        43
21.280        50
21.300        57
21.320        70
21.340        33
21.360        30
21.380        57
21.400        37
21.420        37
21.440        37
21.460        57
21.480        47
21.500        30
21.520        50
21.540        47
21.560        47
21.580        50
21.600        57
21.620        23
21.640        33
21.660        43
21.680        40
21.700        33
21.720        53
21.740        43
21.760        40
21.780        40
21.800        40
21.820        57
21.840        50
21.860        47
21.880        40
21.900        43
21.920        20
21.940        27
21.960        33
21.980        53
22.000        23
22.020        40
22.040        57
22.060        67
22.080        47
22.100        37
22.120        27
22.140        40
22.160        53
22.180        57
22.200        43
22.220        30
22.240        23
22.260        30
22.280        33
22.300        33
22.320        17
22.340        53
22.360        33
22.380        43
22.400        30
22.420        27
22.440        47
22.460        30
22.480        47
22.500        60
22.520        43
22.540        27
22.560        43
22.580        47
22.600        30
22.620        33
22.640        30
22.660        30
22.680        23
22.700        20
22.720        53
22.740        23
22.760        53
22.780        43
22.800        37
22.820        50
22.840        43
22.860        23
22.880        20
22.900        30
22.920        27
22.940        47
22.960        73
22.980        27
23.000        53
23.020        40
23.040        50
23.060        33
23.080        13
23.100        10
23.120        37
23.140        30
23.160        23
23.180        53
23.200        30
23.220        33
23.240        33
23.260        40
23.280        37
23.300        30
23.320        27
23.340        40
23.360        33
23.380        33
23.400        33
23.420        40
23.440        27
23.460        27
23.480        27
23.500        40
23.520        57
23.540        47
23.560        43
23.580        40
23.600        33
23.620        50
23.640        27
23.660        43
23.680        57
23.700        37
23.720        57
23.740        27
23.760        27
23.780        30
23.800        27
23.820        17
23.840        27
23.860        23
23.880        43
23.900        37
23.920        33
23.940        40
23.960        27
23.980        20
24.000        27
24.020        27
24.040        23
24.060        27
24.080        23
24.100        43
24.120        13
24.140        40
24.160        47
24.180        17
24.200        40
24.220        30
24.240        27
24.260        23
24.280        27
24.300        43
24.320        40
24.340        43
24.360        20
24.380        40
24.400        50
24.420        30
24.440        20
24.460        33
24.480        33
24.500        43
24.520        27
24.540        17
24.560        27
24.580        20
24.600        53
24.620        37
24.640        63
24.660        50
24.680        30
24.700        17
24.720        27
24.740        30
24.760        23
24.780        37
24.800        37
24.820        40
24.840        53
24.860        47
24.880        47
24.900        47
24.920        27
24.940        60
24.960        17
24.980        37
25.000        40
25.020        37
25.040        47
25.060        30
25.080        40
25.100        33
25.120        50
25.140        30
25.160        27
25.180        20
25.200        13
25.220        33
25.240        17
25.260        33
25.280        33
25.300        37
25.320        30
25.340        20
25.360        20
25.380        20
25.400        40
25.420        23
25.440        20
25.460        43
25.480        33
25.500        47
25.520        13
25.540        40
25.560        37
25.580        40
25.600        37
25.620        20
25.640        33
25.660        40
25.680        43
25.700        40
25.720        40
25.740        23
25.760        47
25.780        33
25.800        37
25.820        10
25.840        13
25.860        37
25.880        27
25.900        27
25.920        43
25.940        33
25.960        23
25.980        37
26.000        40
26.020        37
26.040        37
26.060        30
26.080        23
26.100        27
26.120        43
26.140        23
26.160        23
26.180        33
26.200        40
26.220        50
26.240        37
26.260        40
26.280        33
26.300        27
26.320        33
26.340        23
26.360        33
26.380        17
26.400        23
26.420        30
26.440        27
26.460        33
26.480        27
26.500        30
26.520        30
26.540        27
26.560        47
26.580        23
26.600        20
26.620        50
26.640        27
26.660        40
26.680        30
26.700        33
26.720        33
26.740        27
26.760        37
26.780        23
26.800        23
26.820        27
26.840        10
26.860        33
26.880        20
26.900        33
26.920        50
26.940        30
26.960        33
26.980        17
27.000        30
27.020        20
27.040        17
27.060        27
27.080        20
27.100        20
27.120        33
27.140        30
27.160        20
27.180        27
27.200        40
27.220        17
27.240        30
27.260        40
27.280        13
27.300        47
27.320        30
27.340        30
27.360        27
27.380        23
27.400        27
27.420        30
27.440        13
27.460        23
27.480        30
27.500        23
27.520        33
27.540        10
27.560        20
27.580        33
27.600        13
27.620        17
27.640        27
27.660        13
27.680        23
27.700        37
27.720        23
27.740        30
27.760        30
27.780        17
27.800        23
27.820        23
27.840        27
27.860        20
27.880        40
27.900        33
27.920        33
27.940        13
27.960        30
27.980        33
28.000        17
28.020        37
28.040        23
28.060        27
28.080        23
28.100        27
28.120        43
28.140        33
28.160        33
28.180        30
28.200        23
28.220        27
28.240        13
28.260        43
28.280        17
28.300        23
28.320        43
28.340        20
28.360        27
28.380        30
28.400        17
28.420        33
28.440        30
28.460        37
28.480        27
28.500        40
28.520        10
28.540        27
28.560        40
28.580        37
28.600        23
28.620        17
28.640        20
28.660        20
28.680        23
28.700        27
28.720        37
28.740        33
28.760        40
28.780        30
28.800        33
28.820        20
28.840        27
28.860        30
28.880        30
28.900        30
28.920        30
28.940        17
28.960        23
28.980        30
29.000        17
29.020        23
29.040        17
29.060        17
29.080        13
29.100        37
29.120        27
29.140        13
29.160        27
29.180        23
29.200        23
29.220        10
29.240        20
29.260        40
29.280        30
29.300        53
29.320        33
29.340        67
29.360        53
29.380        43
29.400        50
29.420        63
29.440        40
29.460        60
29.480        43
29.500        40
29.520        50
29.540        13
29.560        30
29.580        20
29.600        27
29.620        40
29.640        23
29.660        13
29.680        20
29.700        27
29.720        43
29.740        20
29.760        37
29.780         7
29.800        27
29.820        30
29.840        20
29.860        17
29.880        33
29.900        40
29.920        20
29.940        17
29.960        27
29.980        37
30.000        27
30.020        33
30.040        33
30.060        27
30.080        20
30.100        33
30.120        30
30.140        23
30.160        47
30.180        23
30.200        37
30.220        23
30.240        10
30.260        17
30.280        17
30.300        20
30.320        37
30.340        33
30.360        20
30.380        27
30.400        47
30.420        27
30.440        30
30.460        43
30.480        23
30.500        30
30.520        40
30.540        30
30.560        40
30.580        50
30.600        67
30.620        43
30.640        40
30.660        60
30.680        47
30.700        37
30.720        53
30.740        70
30.760       130
30.780       167
30.800       123
30.820       227
30.840       240
30.860       310
30.880       450
30.900       560
30.920       750
30.940       980
30.960      1130
30.980      1309
31.000      1413
31.020      1153
31.040       890
31.060       893
31.080       586
31.100       483
31.120       280
31.140       123
31.160       120
31.180        83
31.200        73
31.220        53
31.240        40
31.260        50
31.280        37
31.300        53
31.320        33
31.340        33
31.360        37
31.380        47
31.400        17
31.420        30
31.440        13
31.460        40
31.480        30
31.500        40
31.520        33
31.540        27
31.560        17
31.580        30
31.600        23
31.620        27
31.640        30
31.660        27
31.680        37
31.700        27
31.720        43
31.740        23
31.760        10
31.780        27
31.800        37
31.820        30
31.840        23
31.860        57
31.880        37
31.900        23
31.920        37
31.940        23
31.960        30
31.980        47
32.000        13
32.020        33
32.040        57
32.060        23
32.080        47
32.100        37
32.120        37
32.140        20
32.160         7
32.180        27
32.200        20
32.220        13
32.240        30
32.260        27
32.280        23
32.300        20
32.320        23
32.340        23
32.360        17
32.380        20
32.400        50
32.420        27
32.440        20
32.460        23
32.480        27
32.500        30
32.520        13
32.540        30
32.560        37
32.580        33
32.600        27
32.620        20
32.640        17
32.660        23
32.680        27
32.700        10
32.720        37
32.740        40
32.760        20
32.780        27
32.800        37
32.820        40
32.840        17
32.860        13
32.880        30
32.900        23
32.920        20
32.940        17
32.960        20
32.980        27
33.000        27
33.020        13
33.040        20
33.060        37
33.080         7
33.100        17
33.120        43
33.140        20
33.160        30
33.180        27
33.200        20
33.220        30
33.240        23
33.260        30
33.280        23
33.300        10
33.320        27
33.340        30
33.360        20
33.380        13
33.400        10
33.420        20
33.440        23
33.460        20
33.480        10
33.500         7
33.520        27
33.540        10
33.560        10
33.580        13
33.600        20
33.620        27
33.640        20
33.660        20
33.680        23
33.700        23
33.720        27
33.740         3
33.760        20
33.780        23
33.800        20
33.820        17
33.840        17
33.860        23
33.880        30
33.900         3
33.920        27
33.940        33
33.960        13
33.980        37
34.000        27
34.020        33
34.040        23
34.060        40
34.080        17
34.100        27
34.120        17
34.140        23
34.160        17
34.180        37
34.200        20
34.220        20
34.240        17
34.260        33
34.280        20
34.300        10
34.320        17
34.340        27
34.360        20
34.380        17
34.400        23
34.420        10
34.440        10
34.460        13
34.480        30
34.500        23
34.520        23
34.540        27
34.560        20
34.580        10
34.600        17
34.620        13
34.640        30
34.660        20
34.680         7
34.700        17
34.720        10
34.740        20
34.760        17
34.780        20
34.800        37
34.820        33
34.840        23
34.860        20
34.880        33
34.900        23
34.920        27
34.940        13
34.960        13
34.980        20
35.000        10
35.020        33
35.040        47
35.060        37
35.080        33
35.100        87
35.120        80
35.140        90
35.160       137
35.180       137
35.200        73
35.220       107
35.240       107
35.260        70
35.280        87
35.300        63
35.320        60
35.340        20
35.360        37
35.380        23
35.400        20
35.420        30
35.440        33
35.460        20
35.480        23
35.500        17
35.520        23
35.540        17
35.560        20
35.580        27
35.600        20
35.620        17
35.640        27
35.660        20
35.680        13
35.700         0
35.720        13
35.740        20
35.760        23
35.780        27
35.800        30
35.820         7
35.840        33
35.860        20
35.880         7
35.900        10
35.920        23
35.940        30
35.960        27
35.980        23
36.000        13
36.020        13
36.040        17
36.060        33
36.080        27
36.100        17
36.120        27
36.140        13
36.160        20
36.180        23
36.200        23
36.220        17
36.240        20
36.260        10
36.280        20
36.300        33
36.320        23
36.340        10
36.360        13
36.380        17
36.400        10
36.420        30
36.440        13
36.460        27
36.480        10
36.500        23
36.520        27
36.540        30
36.560         7
36.580        17
36.600        20
36.620        17
36.640        20
36.660        13
36.680        33
36.700        23
36.720        17
36.740        10
36.760        13
36.780         7
36.800        23
36.820        23
36.840        13
36.860        20
36.880        17
36.900        13
36.920        20
36.940        10
36.960        10
36.980        13
37.000         3
37.020        30
37.040        23
37.060        20
37.080        20
37.100        23
37.120        17
37.140        30
37.160        17
37.180        17
37.200        13
37.220        13
37.240        27
37.260        17
37.280        30
37.300        13
37.320        23
37.340        17
37.360        10
37.380        23
37.400        17
37.420        13
37.440        20
37.460        20
37.480        17
37.500        30
37.520        13
37.540        27
37.560        23
37.580        23
37.600        20
37.620         7
37.640        23
37.660        37
37.680        43
37.700        13
37.720        37
37.740        27
37.760        30
37.780        33
37.800        73
37.820        40
37.840        40
37.860        30
37.880        53
37.900        73
37.920        23
37.940        37
37.960        47
37.980        23
38.000        23
38.020        17
38.040        20
38.060        30
38.080        23
38.100         7
38.120        23
38.140        27
38.160        20
38.180         7
38.200        23
38.220        33
38.240        27
38.260        37
38.280        30
38.300        23
38.320        53
38.340        17
38.360        17
38.380        37
38.400        37
38.420        27
38.440        23
38.460        13
38.480        37
38.500        30
38.520        13
38.540        23
38.560        20
38.580        23
38.600        20
38.620        13
38.640        10
38.660        23
38.680        13
38.700        13
38.720        20
38.740        33
38.760        10
38.780        13
38.800        20
38.820        30
38.840        33
38.860        17
38.880        10
38.900        23
38.920        40
38.940        17
38.960        30
38.980        20
39.000        30
39.020        50
39.040        30
39.060        13
39.080        30
39.100        10
39.120        30
39.140        30
39.160        27
39.180        13
39.200        13
39.220        27
39.240        17
39.260        23
39.280        23
39.300        23
39.320        20
39.340        20
39.360        27
39.380        17
39.400        17
39.420        23
39.440        33
39.460        40
39.480        43
39.500        33
39.520        20
39.540        23
39.560        17
39.580        23
39.600        13
39.620        17
39.640        17
39.660        17
39.680        17
39.700        17
39.720        17
39.740        27
39.760        27
39.780        17
39.800        20
39.820        23
39.840        23
39.860        13
39.880        20
39.900        27
39.920        23
39.940        40
39.960        13
39.980        23
40.000        17
40.020        13
40.040        17
40.060        17
40.080        10
40.100        20
40.120        20
40.140        13
40.160        17
40.180        23
40.200         3
40.220        27
40.240        30
40.260        10
40.280        30
40.300        20
40.320        13
40.340        30
40.360        17
40.380        23
40.400        17
40.420        13
40.440        13
40.460         7
40.480        20
40.500        17
40.520        10
40.540        23
40.560        37
40.580        20
40.600        27
40.620        30
40.640        10
40.660        10
40.680        20
40.700        13
40.720        17
40.740        30
40.760        13
40.780        20
40.800        20
40.820        10
40.840        33
40.860        27
40.880        20
40.900        20
40.920        20
40.940        20
40.960        20
40.980        20
41.000        23
41.020        23
41.040        33
41.060        30
41.080        17
41.100        33
41.120        20
41.140        20
41.160        20
41.180        27
41.200        30
41.220         7
41.240        30
41.260        17
41.280        10
41.300         7
41.320        27
41.340        23
41.360        17
41.380        20
41.400        10
41.420        17
41.440        17
41.460        20
41.480        20
41.500        23
41.520        30
41.540        40
41.560        27
41.580        23
41.600        13
41.620        40
41.640        37
41.660        50
41.680        60
41.700        97
41.720        80
41.740        87
41.760        67
41.780        60
41.800        47
41.820        77
41.840        47
41.860        47
41.880        33
41.900        17
41.920        37
41.940        17
41.960        27
41.980         7
42.000        13
42.020        13
42.040         0
42.060        43
42.080         7
42.100        20
42.120        27
42.140        17
42.160        13
42.180        10
42.200        13
42.220        23
42.240         7
42.260         7
42.280        13
42.300        17
42.320        10
42.340        20
42.360        43
42.380        27
42.400        20
42.420        13
42.440        23
42.460        17
42.480        33
42.500        23
42.520        13
42.540        20
42.560        27
42.580        17
42.600        17
42.620        17
42.640        23
42.660        27
42.680        13
42.700        23
42.720         7
42.740        10
42.760        27
42.780        27
42.800        27
42.820        37
42.840        10
42.860         7
42.880        27
42.900        13
42.920        10
42.940        13
42.960        27
42.980        23
43.000        10
43.020        23
43.040        40
43.060        30
43.080        10
43.100        30
43.120        17
43.140        33
43.160        13
43.180        27
43.200        23
43.220        33
43.240        13
43.260        23
43.280        40
43.300        17
43.320        37
43.340        40
43.360        63
43.380        77
43.400        83
43.420        83
43.440        60
43.460        40
43.480        63
43.500        50
43.520        53
43.540        40
43.560        43
43.580        53
43.600        23
43.620        37
43.640        30
43.660        27
43.680        13
43.700        20
43.720        30
43.740        37
43.760        17
43.780        10
43.800        17
43.820        10
43.840        10
43.860        33
43.880        17
43.900        13
43.920        20
43.940        20
43.960        10
43.980        20
44.000        33
44.020        17
44.040        13
44.060        17
44.080        10
44.100        10
44.120        30
44.140        33
44.160        20
44.180        30
44.200        23
44.220        20
44.240        23
44.260        30
44.280        20
44.300        33
44.320        43
44.340        43
44.360        33
44.380        83
44.400        77
44.420        67
44.440        40
44.460        67
44.480        63
44.500        60
44.520        47
44.540        53
44.560        17
44.580        23
44.600        53
44.620        37
44.640        40
44.660        37
44.680        17
44.700        30
44.720        23
44.740        23
44.760        20
44.780        27
44.800        13
44.820        17
44.840        30
44.860        10
44.880        23
44.900        17
44.920        23
44.940         3
44.960        37
44.980        33
45.000        27
45.020        17
45.040        23
45.060        23
45.080        30
45.100        20
45.120         3
45.140        20
45.160        23
45.180        13
45.200        13
45.220        13
45.240         7
45.260        20
45.280        10
45.300        17
45.320        13
45.340        17
45.360        33
45.380        40
45.400        23
45.420        13
45.440        30
45.460        13
45.480        17
45.500        27
45.520        20
45.540        10
45.560        27
45.580        17
45.600        33
45.620        23
45.640        27
45.660        17
45.680         3
45.700        27
45.720        27
45.740        10
45.760        20
45.780        17
45.800        13
45.820        17
45.840        23
45.860        37
45.880        30
45.900        30
45.920        17
45.940        17
45.960        20
45.980        13
46.000        13
46.020        13
46.040        27
46.060        20
46.080        17
46.100        10
46.120        17
46.140        10
46.160        13
46.180        27
46.200        10
46.220        20
46.240        17
46.260        20
46.280         7
46.300        30
46.320        20
46.340        13
46.360        27
46.380        27
46.400        27
46.420        27
46.440        17
46.460         3
46.480        13
46.500        43
46.520        27
46.540        27
46.560        20
46.580        20
46.600        17
46.620        23
46.640        10
46.660        23
46.680        23
46.700        20
46.720        20
46.740        27
46.760        17
46.780        17
46.800        20
46.820        27
46.840         7
46.860        30
46.880        17
46.900        27
46.920        20
46.940        13
46.960         3
46.980        17
47.000        27
47.020        23
47.040        20
47.060        10
47.080        23
47.100        13
47.120        17
47.140        17
47.160        17
47.180        23
47.200        17
47.220        20
47.240        20
47.260        27
47.280        23
47.300        27
47.320        33
47.340        20
47.360        23
47.380        23
47.400        13
47.420        13
47.440        13
47.460        10
47.480        27
47.500        40
47.520        13
47.540        17
47.560        30
47.580        33
47.600        23
47.620        17
47.640        17
47.660        27
47.680        23
47.700         0
47.720        27
47.740        27
47.760        17
47.780        13
47.800        20
47.820         0
47.840        30
47.860        10
47.880        10
47.900        10
47.920        23
47.940        17
47.960        13
47.980        17
48.000         7
48.020        27
48.040         0
48.060        30
48.080        17
48.100        20
48.120        13
48.140        23
48.160         3
48.180        20
48.200        30
48.220        17
48.240         7
48.260        17
48.280        23
48.300        40
48.320        17
48.340        20
48.360        13
48.380        17
48.400        10
48.420        23
48.440        20
48.460        13
48.480        23
48.500        30
48.520        27
48.540        17
48.560        17
48.580        20
48.600        20
48.620        27
48.640        27
48.660        20
48.680        30
48.700        10
48.720        10
48.740        20
48.760        30
48.780         7
48.800        10
48.820        10
48.840        20
48.860        10
48.880        17
48.900        17
48.920        10
48.940        13
48.960        20
48.980        10
49.000        10
49.020         3
49.040        20
49.060        20
49.080        10
49.100        20
49.120        10
49.140        40
49.160        13
49.180        27
49.200        17
49.220        17
49.240        13
49.260         0
49.280        23
49.300        20
49.320        27
49.340        10
49.360        30
49.380        30
49.400        30
49.420        17
49.440        17
49.460         7
49.480        20
49.500         7
49.520        17
49.540        20
49.560        13
49.580        13
49.600        13
49.620        10
49.640         3
49.660        13
49.680        23
49.700         7
49.720        13
49.740        10
49.760        17
49.780        13
49.800        10
49.820        13
49.840        17
49.860        17
49.880        13
49.900        33
49.920        20
49.940        33
49.960        23
49.980        17
50.000        20
50.020        30
50.040        20
50.060        13
50.080        30
50.100        10
50.120        13
50.140        10
50.160        10
50.180        13
50.200         3
50.220        13
50.240        10
50.260        13
50.280        13
50.300        17
50.320        10
50.340        17
50.360        23
50.380        30
50.400        27
50.420        13
50.440        13
50.460        23
50.480        13
50.500        17
50.520        23
50.540        13
50.560        10
50.580        17
50.600         7
50.620         7
50.640        13
50.660        17
50.680         7
50.700         7
50.720        23
50.740        17
50.760        13
50.780        23
50.800        33
50.820        13
50.840        13
50.860         7
50.880        27
50.900        13
50.920        27
50.940        27
50.960        20
50.980        10
51.000        13
51.020        20
51.040        27
51.060        13
51.080         0
51.100         7
51.120        10
51.140         7
51.160        23
51.180        23
51.200        17
51.220        23
51.240        20
51.260        17
51.280        17
51.300        20
51.320        23
51.340        33
51.360        10
51.380        10
51.400        20
51.420        17
51.440        10
51.460        17
51.480        10
51.500         7
51.520         7
51.540        20
51.560        13
51.580        20
51.600        10
51.620        10
51.640        13
51.660        13
51.680         7
51.700         7
51.720        17
51.740        30
51.760        13
51.780        30
51.800        37
51.820        10
51.840        13
51.860        23
51.880        30
51.900         7
51.920        20
51.940        23
51.960        23
51.980        20
52.000         7
52.020        17
52.040        17
52.060        10
52.080        27
52.100        10
52.120         7
52.140        13
52.160         7
52.180        17
52.200        13
52.220        20
52.240        10
52.260        13
52.280        10
52.300        17
52.320        17
52.340        13
52.360        27
52.380        17
52.400         7
52.420         7
52.440        10
52.460        23
52.480        17
52.500        10
52.520        17
52.540        17
52.560        47
52.580        23
52.600        47
52.620        23
52.640        40
52.660        63
52.680        27
52.700        37
52.720        20
52.740        17
52.760        37
52.780        20
52.800        33
52.820        17
52.840        10
52.860        17
52.880        10
52.900        20
52.920        17
52.940         7
52.960        10
52.980        10
53.000        20
53.020        17
53.040        20
53.060        20
53.080        20
53.100         7
53.120        37
53.140        13
53.160        20
53.180        20
53.200         7
53.220         7
53.240        23
53.260        20
53.280        20
53.300        20
53.320        13
53.340         3
53.360        10
53.380        13
53.400        10
53.420        10
53.440        23
53.460         7
53.480         7
53.500        27
53.520         7
53.540         7
53.560         3
53.580         3
53.600         3
53.620        17
53.640        10
53.660         3
53.680         3
53.700        13
53.720        20
53.740        30
53.760        10
53.780        17
53.800         7
53.820        13
53.840        20
53.860        10
53.880        10
53.900        17
53.920        10
53.940         3
53.960        23
53.980         7
54.000        10
54.020        10
54.040        30
54.060        10
54.080         3
54.100        13
54.120        13
54.140        10
54.160        27
54.180        23
54.200        13
54.220        17
54.240        20
54.260        10
54.280        17
54.300        20
54.320         3
54.340        10
54.360        13
54.380        13
54.400        10
54.420         7
54.440        13
54.460        13
54.480        17
54.500        20
54.520        17
54.540        17
54.560        23
54.580         7
54.600        20
54.620        23
54.640        27
54.660         7
54.680        13
54.700        20
54.720        27
54.740        30
54.760        23
54.780        23
54.800        10
54.820        20
54.840        20
54.860        13
54.880        30
54.900        27
54.920        40
54.940        37
54.960        43
54.980        60
55.000        43
55.020        73
55.040        77
55.060        70
55.080        70
55.100        93
55.120        67
55.140        70
55.160        57
55.180        57
55.200        37
55.220        40
55.240        70
55.260        53
55.280        27
55.300        27
55.320        23
55.340        20
55.360        13
55.380        13
55.400         3
55.420        10
55.440        10
55.460         7
55.480        20
55.500         7
55.520         7
55.540        13
55.560        17
55.580        10
55.600        23
55.620        20
55.640        10
55.660        20
55.680        10
55.700        27
55.720        10
55.740        17
55.760        20
55.780        20
55.800        20
55.820         7
55.840        20
55.860        23
55.880        20
55.900        20
55.920        20
55.940        17
55.960        17
55.980        23
56.000        13
56.020         3
56.040        13
56.060        10
56.080        20
56.100        13
56.120         7
56.140        10
56.160        13
56.180        27
56.200         7
56.220        23
56.240        13
56.260         7
56.280        20
56.300        10
56.320        17
56.340        20
56.360        17
56.380        23
56.400        20
56.420        13
56.440        13
56.460        17
56.480        13
56.500        10
56.520        13
56.540        13
56.560        13
56.580        17
56.600         7
56.620        20
56.640        23
56.660        23
56.680        17
56.700        17
56.720        20
56.740        10
56.760        13
56.780        23
56.800        17
56.820        23
56.840        20
56.860        10
56.880        10
56.900        20
56.920         7
56.940        23
56.960        10
56.980        13
57.000        17
57.020        17
57.040        10
57.060        20
57.080        17
57.100        23
57.120        17
57.140        27
57.160        13
57.180        27
57.200        13
57.220        10
57.240        23
57.260        10
57.280        10
57.300        27
57.320        23
57.340        20
57.360        27
57.380        33
57.400        13
57.420        23
57.440        20
57.460        30
57.480        23
57.500        63
57.520        73
57.540       103
57.560        80
57.580        93
57.600        97
57.620        43
57.640        40
57.660        33
57.680        60
57.700        50
57.720        50
57.740        53
57.760        43
57.780        20
57.800        33
57.820        37
57.840        10
57.860        13
57.880        13
57.900        33
57.920        17
57.940        10
57.960        10
57.980        13
58.000        17
58.020        23
58.040         3
58.060        13
58.080        10
58.100        13
58.120        20
58.140        10
58.160        13
58.180        13
58.200        10
58.220         3
58.240        10
58.260        13
58.280        13
58.300        13
58.320         7
58.340         7
58.360        13
58.380        13
58.400         7
58.420        20
58.440        13
58.460        10
58.480        10
58.500        23
58.520         3
58.540         0
58.560        40
58.580        20
58.600        13
58.620        30
58.640        10
58.660        10
58.680        10
58.700        13
58.720        17
58.740         3
58.760        10
58.780         7
58.800        17
58.820        10
58.840        17
58.860        13
58.880        30
58.900        23
58.920        17
58.940        17
58.960        20
58.980        30
59.000         7
59.020        10
59.040        17
59.060        10
59.080         7
59.100        13
59.120         0
59.140        10
59.160         7
59.180        23
59.200        10
59.220         3
59.240        13
59.260        23
59.280        20
59.300        10
59.320        10
59.340        13
59.360        23
59.380        20
59.400        23
59.420        20
59.440        23
59.460        10
59.480        23
59.500        10
59.520        13
59.540        17
59.560        10
59.580        10
59.600        23
59.620        17
59.640         7
59.660        20
59.680        17
59.700        13
59.720         7
59.740        23
59.760        13
59.780        27
59.800        13
59.820         7
59.840        20
59.860        23
59.880        20
59.900         7
59.920        23
59.940        17
59.960        17
59.980        10
60.000        13
