20.000        43
20.020        37
20.040        70
20.060        53
20.080        20
20.100        30
20.120        50
20.140        57
20.160        43
20.180        37
20.200        37
20.220        50
20.240        47
20.260        33
20.280        43
20.300        33
20.320        27
20.340        30
20.360        60
20.380        27
20.400        43
20.420        50
20.440        50
20.460        40
20.480        40
20.500        43
20.520        40
20.540        50
20.560        30
20.580        67
20.600        40
20.620        60
20.640        37
20.660        37
20.680        43
20.700        43
20.720        40
20.740        43
20.760        47
20.780        40
20.800        53
20.820        50
20.840        60
20.860        27
20.880        47
20.900        47
20.920        50
20.940        33
20.960        30
20.980        47
21.000        53
21.020        27
21.040        40
21.060        40
21.080        43
21.100        40
21.120        40
21.140        30
21.160        27
21.180        37
21.200        40
21.220        47
21.240        37
21.260        37
21.280        57
21.300        40
21.320        40
21.340        33
21.360        43
21.380        57
21.400        50
21.420        37
21.440        27
21.460        63
21.480        40
21.500        30
21.520        40
21.540        50
21.560        73
21.580        53
21.600        27
21.620        40
21.640        27
21.660        20
21.680        20
21.700        33
21.720        53
21.740        40
21.760        33
21.780        23
21.800        30
21.820        57
21.840        47
21.860        30
21.880        47
21.900        33
21.920        37
21.940        43
21.960        30
21.980        60
22.000        40
22.020        27
22.040        57
22.060        30
22.080        53
22.100        30
22.120        47
22.140        33
22.160        43
22.180        33
22.200        30
22.220        33
22.240        37
22.260        27
22.280        50
22.300        37
22.320        30
22.340        33
22.360        20
22.380        27
22.400        40
22.420        23
22.440        43
22.460        33
22.480        33
22.500        43
22.520        50
22.540        23
22.560        23
22.580        23
22.600        37
22.620        40
22.640        47
22.660        30
22.680        50
22.700        43
22.720        40
22.740        30
22.760        47
22.780        47
22.800        37
22.820        33
22.840        57
22.860        40
22.880        47
22.900        37
22.920        30
22.940        27
22.960        37
22.980        40
23.000        50
23.020        33
23.040        57
23.060        30
23.080        17
23.100        27
23.120        27
23.140        20
23.160        30
23.180        37
23.200        27
23.220        53
23.240        40
23.260        17
23.280        37
23.300        23
23.320        27
23.340        30
23.360        53
23.380        40
23.400        33
23.420        43
23.440        20
23.460        57
23.480        30
23.500        23
23.520        40
23.540        33
23.560        23
23.580        33
23.600        30
23.620        20
23.640        33
23.660        17
23.680        27
23.700        47
23.720        23
23.740        53
23.760        43
23.780        17
23.800        47
23.820        40
23.840        30
23.860        17
23.880        17
23.900        50
23.920        47
23.940        30
23.960        47
23.980        27
24.000        23
24.020        10
24.040        57
24.060        40
24.080        33
24.100        40
24.120        37
24.140        40
24.160        40
24.180        40
24.200        20
24.220        20
24.240        27
24.260        47
24.280        30
24.300        63
24.320        23
24.340        37
24.360        13
24.380        20
24.400        27
24.420        33
24.440        37
24.460        37
24.480        30
24.500        37
24.520        37
24.540        17
24.560        47
24.580        57
24.600        23
24.620        27
24.640        27
24.660        30
24.680        30
24.700        27
24.720        33
24.740        43
24.760        40
24.780        30
24.800        33
24.820        37
24.840        50
24.860        23
24.880        60
24.900        60
24.920        33
24.940        43
24.960        33
24.980        23
25.000        37
25.020        43
25.040        30
25.060        63
25.080        40
25.100        50
25.120        20
25.140        80
25.160        23
25.180        30
25.200        33
25.220        37
25.240        40
25.260        30
25.280        40
25.300        33
25.320        23
25.340        17
25.360        50
25.380        47
25.400        20
25.420        37
25.440        37
25.460        30
25.480        57
25.500        37
25.520        30
25.540        27
25.560        40
25.580        30
25.600        47
25.620        43
25.640        50
25.660        23
25.680        33
25.700        27
25.720        23
25.740        17
25.760        27
25.780        30
25.800        20
25.820        30
25.840        37
25.860        30
25.880        37
25.900        33
25.920        37
25.940        30
25.960        23
25.980        23
26.000        37
26.020        40
26.040        33
26.060        33
26.080        17
26.100        33
26.120        37
26.140        30
26.160        47
26.180        30
26.200        37
26.220        23
26.240        30
26.260        27
26.280        23
26.300        30
26.320        20
26.340        37
26.360        17
26.380        17
26.400        23
26.420        20
26.440        30
26.460        30
26.480        37
26.500        30
26.520        17
26.540        17
26.560        27
26.580        27
26.600        47
26.620        23
26.640        13
26.660        40
26.680        33
26.700        33
26.720        17
26.740        10
26.760        37
26.780        47
26.800        37
26.820        17
26.840        27
26.860        20
26.880        37
26.900        30
26.920        33
26.940        20
26.960        17
26.980        37
27.000        20
27.020        33
27.040        17
27.060        40
27.080        33
27.100        30
27.120        30
27.140        27
27.160        43
27.180        33
27.200        37
27.220        37
27.240        23
27.260        33
27.280        27
27.300        30
27.320        43
27.340        17
27.360        40
27.380        47
27.400        17
27.420        40
27.440        43
27.460        20
27.480        40
27.500        17
27.520        27
27.540        27
27.560        37
27.580        23
27.600        30
27.620        43
27.640        27
27.660        43
27.680        30
27.700        37
27.720        47
27.740        27
27.760        20
27.780        37
27.800        33
27.820        37
27.840        27
27.860        53
27.880        50
27.900        23
27.920        60
27.940        33
27.960        20
27.980        37
28.000        17
28.020        27
28.040        37
28.060        27
28.080        20
28.100        30
28.120        27
28.140        40
28.160        33
28.180        37
28.200        43
28.220        40
28.240        37
28.260        27
28.280        23
28.300        30
28.320        40
28.340        20
28.360        10
28.380        33
28.400        20
28.420        20
28.440        20
28.460        20
28.480        27
28.500        27
28.520        27
28.540        20
28.560        23
28.580        37
28.600        20
28.620        20
28.640        23
28.660        17
28.680        23
28.700        30
28.720        27
28.740        30
28.760        13
28.780        23
28.800        50
28.820        40
28.840        33
28.860        20
28.880        23
28.900        37
28.920        47
28.940        47
28.960        33
28.980        20
29.000        23
29.020        27
29.040        47
29.060        37
29.080        30
29.100        10
29.120        37
29.140        47
29.160        33
29.180        47
29.200        20
29.220        33
29.240        33
29.260        23
29.280        37
29.300        60
29.320        43
29.340        60
29.360        80
29.380        37
29.400        57
29.420        60
29.440        43
29.460        37
29.480        57
29.500        23
29.520        27
29.540        27
29.560        40
29.580        23
29.600        23
29.620        43
29.640        23
29.660        37
29.680        20
29.700        43
29.720        27
29.740        43
29.760        30
29.780        20
29.800        47
29.820        27
29.840        30
29.860        40
29.880        53
29.900        27
29.920        27
29.940        33
29.960        33
29.980        30
30.000        20
30.020        27
30.040        40
30.060        27
30.080        30
30.100        47
30.120        33
30.140        13
30.160        47
30.180        23
30.200        40
30.220        40
30.240        37
30.260        43
30.280        43
30.300        40
30.320        73
30.340        43
30.360        23
30.380        53
30.400        47
30.420        57
30.440        27
30.460        47
30.480        30
30.500        37
30.520        50
30.540        67
30.560        57
30.580        70
30.600        57
30.620        90
30.640        97
30.660       137
30.680       113
30.700       147
30.720       170
30.740       213
30.760       337
30.780       383
30.800       566
30.820       776
30.840       983
30.860      1366
30.880      1826
30.900      2236
30.920      2592
30.940      2886
30.960      2662
30.980      2209
31.000      1759
31.020      1506
31.040      1160
31.060       803
31.080       516
31.100       253
31.120       207
31.140       157
31.160       133
31.180       113
31.200       137
31.220       130
31.240        87
31.260        47
31.280        37
31.300        67
31.320        80
31.340        57
31.360        63
31.380        67
31.400        63
31.420        43
31.440        43
31.460        53
31.480        53
31.500        40
31.520        33
31.540        50
31.560        50
31.580        43
31.600        17
31.620        40
31.640        33
31.660        37
31.680        30
31.700        27
31.720        23
31.740        27
31.760        37
31.780        37
31.800        23
31.820        20
31.840        53
31.860        33
31.880        50
31.900        37
31.920        27
31.940        17
31.960        53
31.980        33
32.000        43
32.020        43
32.040        43
32.060        20
32.080        20
32.100        50
32.120        33
32.140        40
32.160        33
32.180        37
32.200        23
32.220        30
32.240        57
32.260        23
32.280        20
32.300        27
32.320        37
32.340        27
32.360        50
32.380        33
32.400        30
32.420        20
32.440        13
32.460        37
32.480        37
32.500        17
32.520        47
32.540        30
32.560        27
32.580        37
32.600        20
32.620        43
32.640        23
32.660        23
32.680        43
32.700        20
32.720        33
32.740        33
32.760        37
32.780        30
32.800        17
32.820        37
32.840        27
32.860        43
32.880        30
32.900        17
32.920        23
32.940        37
32.960        23
32.980        37
33.000        20
33.020        20
33.040        40
33.060        10
33.080        40
33.100        20
33.120        23
33.140        37
33.160        20
33.180        30
33.200        47
33.220        33
33.240        27
33.260        33
33.280        37
33.300        13
33.320        33
33.340        27
33.360        27
33.380        23
33.400        47
33.420        20
33.440        27
33.460        30
33.480        27
33.500        23
33.520        20
33.540        27
33.560        27
33.580        27
33.600        33
33.620        13
33.640        23
33.660        20
33.680        13
33.700        30
33.720        27
33.740        40
33.760        33
33.780        20
33.800        30
33.820        40
33.840        33
33.860        27
33.880        23
33.900        10
33.920        23
33.940        17
33.960        30
33.980        23
34.000        33
34.020        37
34.040        17
34.060        10
34.080        23
34.100        37
34.120        20
34.140        17
34.160        10
34.180        27
34.200        20
34.220        33
34.240        20
34.260        37
34.280        37
34.300        37
34.320        27
34.340        30
34.360        13
34.380        17
34.400        23
34.420        43
34.440        17
34.460        23
34.480        20
34.500        33
34.520        27
34.540        23
34.560        27
34.580        10
34.600        17
34.620        33
34.640        30
34.660        20
34.680        27
34.700        20
34.720        20
34.740        23
34.760        40
34.780        37
34.800        33
34.820        33
34.840        37
34.860        23
34.880        20
34.900        30
34.920        17
34.940        27
34.960        27
34.980        47
35.000        30
35.020        33
35.040        30
35.060        57
35.080        50
35.100        93
35.120        57
35.140        93
35.160        57
35.180        80
35.200        80
35.220        63
35.240        63
35.260        43
35.280        43
35.300        13
35.320        40
35.340        43
35.360        27
35.380        23
35.400        27
35.420        37
35.440        27
35.460        17
35.480        43
35.500        30
35.520        33
35.540        47
35.560        23
35.580        43
35.600        30
35.620        20
35.640        23
35.660        17
35.680        40
35.700        33
35.720        33
35.740        30
35.760        27
35.780        23
35.800        23
35.820        37
35.840        43
35.860        40
35.880        40
35.900        30
35.920        37
35.940        27
35.960        30
35.980        27
36.000        17
36.020        17
36.040        13
36.060        37
36.080        23
36.100        13
36.120        17
36.140        17
36.160        17
36.180        33
36.200        27
36.220        17
36.240         0
36.260        17
36.280        10
36.300        33
36.320        20
36.340        27
36.360        13
36.380        17
36.400        43
36.420        30
36.440        27
36.460        37
36.480        13
36.500        23
36.520        27
36.540        13
36.560        27
36.580        23
36.600        23
36.620        20
36.640        30
36.660        37
36.680        23
36.700        27
36.720        23
36.740        17
36.760        27
36.780        23
36.800        17
36.820        33
36.840        37
36.860        13
36.880        33
36.900        17
36.920        10
36.940        27
36.960        13
36.980        30
37.000        33
37.020        30
37.040        27
37.060        20
37.080        30
37.100        30
37.120        47
37.140        10
37.160        27
37.180        17
37.200        17
37.220        13
37.240        30
37.260        10
37.280        23
37.300        30
37.320        17
37.340        20
37.360        40
37.380        40
37.400        10
37.420        20
37.440        27
37.460        13
37.480        23
37.500        13
37.520        27
37.540         7
37.560        23
37.580        23
37.600        40
37.620        23
37.640        27
37.660        10
37.680        13
37.700        23
37.720        40
37.740        27
37.760        40
37.780        37
37.800        30
37.820        20
37.840        13
37.860        27
37.880        13
37.900        20
37.920        20
37.940        23
37.960        23
37.980        43
38.000        30
38.020        27
38.040        23
38.060        27
38.080        30
38.100        47
38.120        37
38.140        30
38.160        47
38.180        40
38.200        23
38.220        53
38.240        10
38.260        33
38.280        37
38.300        37
38.320        20
38.340        20
38.360        23
38.380        20
38.400        30
38.420        20
38.440        33
38.460        17
38.480        20
38.500        20
38.520        13
38.540        10
38.560        23
38.580        23
38.600        27
38.620        17
38.640        17
38.660        23
38.680        30
38.700        13
38.720        23
38.740        27
38.760        23
38.780        20
38.800         7
38.820        43
38.840        17
38.860        20
38.880        27
38.900        23
38.920         7
38.940        30
38.960        30
38.980        23
39.000        17
39.020        20
39.040        17
39.060        13
39.080        20
39.100        20
39.120        30
39.140        33
39.160        20
39.180        30
39.200        17
39.220        13
39.240        20
39.260        43
39.280        27
39.300        13
39.320        20
39.340        23
39.360        33
39.380        37
39.400        40
39.420        33
39.440        17
39.460        27
39.480        23
39.500        30
39.520        13
39.540        30
39.560        13
39.580        13
39.600        13
39.620        30
39.640        10
39.660        10
39.680        17
39.700        23
39.720        20
39.740        20
39.760        20
39.780        17
39.800        33
39.820        33
39.840        20
39.860        17
39.880        17
39.900        17
39.920        20
39.940        23
39.960        17
39.980        37
40.000        20
40.020        13
40.040        23
40.060        27
40.080        10
40.100        20
40.120        10
40.140        27
40.160        23
40.180         7
40.200        23
40.220        27
40.240        20
40.260        23
40.280        17
40.300        13
40.320        33
40.340         3
40.360        23
40.380        17
40.400        40
40.420        17
40.440        27
40.460        33
40.480        23
40.500        27
40.520        23
40.540        13
40.560        10
40.580        30
40.600        20
40.620        30
40.640        10
40.660        13
40.680        37
40.700        27
40.720        17
40.740        23
40.760        10
40.780        13
40.800        27
40.820        20
40.840        23
40.860         7
40.880        13
40.900        27
40.920        30
40.940        30
40.960        17
40.980        20
41.000        23
41.020        20
41.040        17
41.060        33
41.080        27
41.100        33
41.120        13
41.140        20
41.160        23
41.180        20
41.200        17
41.220        20
41.240        27
41.260        13
41.280        33
41.300        10
41.320        20
41.340        20
41.360        23
41.380        20
41.400        43
41.420        23
41.440        13
41.460        40
41.480        37
41.500        17
41.520        27
41.540        40
41.560        33
41.580        37
41.600        33
41.620        27
41.640        47
41.660        70
41.680        87
41.700        47
41.720        87
41.740        53
41.760        23
41.780        53
41.800        53
41.820        60
41.840        37
41.860        23
41.880        43
41.900        20
41.920        27
41.940        27
41.960        20
41.980        20
42.000        13
42.020        23
42.040        23
42.060        17
42.080        27
42.100        27
42.120        30
42.140        27
42.160        13
42.180        13
42.200        13
42.220        23
42.240        20
42.260        30
42.280        20
42.300        27
42.320        27
42.340        17
42.360        17
42.380        17
42.400        47
42.420        27
42.440        20
42.460         3
42.480        17
42.500        10
42.520        33
42.540        23
42.560        17
42.580        17
42.600        20
42.620        20
42.640        13
42.660        17
42.680        13
42.700        27
42.720        17
42.740        37
42.760        17
42.780        17
42.800        20
42.820        20
42.840        20
42.860        20
42.880        17
42.900        33
42.920        20
42.940        40
42.960        20
42.980        37
43.000        23
43.020        40
43.040        20
43.060        17
43.080        20
43.100        17
43.120        37
43.140        43
43.160        27
43.180        23
43.200        33
43.220        27
43.240        17
43.260        17
43.280        17
43.300        23
43.320        40
43.340        33
43.360        43
43.380        30
43.400        30
43.420        30
43.440        30
43.460        47
43.480        17
43.500        23
43.520        20
43.540        23
43.560        23
43.580        27
43.600        17
43.620        13
43.640        20
43.660        17
43.680        17
43.700        13
43.720        20
43.740        37
43.760        40
43.780        20
43.800        10
43.820        23
43.840        17
43.860        30
43.880        27
43.900        33
43.920        17
43.940        30
43.960        33
43.980        30
44.000        33
44.020        30
44.040        27
44.060        13
44.080        30
44.100        37
44.120        37
44.140        33
44.160        13
44.180        33
44.200        30
44.220        20
44.240        23
44.260        13
44.280         7
44.300        23
44.320        30
44.340        13
44.360        10
44.380        37
44.400        40
44.420        23
44.440        20
44.460        23
44.480        33
44.500        20
44.520        30
44.540        20
44.560        20
44.580        37
44.600        27
44.620        23
44.640        27
44.660        20
44.680        17
44.700        30
44.720        23
44.740        20
44.760        13
44.780        23
44.800        13
44.820        27
44.840        10
44.860        13
44.880        37
44.900        30
44.920        23
44.940        10
44.960        20
44.980        20
45.000        17
45.020        20
45.040        20
45.060        20
45.080        20
45.100        23
45.120         7
45.140        17
45.160        27
45.180        30
45.200        13
45.220        17
45.240        27
45.260        23
45.280         7
45.300        33
45.320        30
45.340        23
45.360        23
45.380        33
45.400        23
45.420        20
45.440         7
45.460        33
45.480        27
45.500        30
45.520        30
45.540        33
45.560         7
45.580        23
45.600        17
45.620        27
45.640        17
45.660        37
45.680        23
45.700        17
45.720        27
45.740        50
45.760        20
45.780        13
45.800        33
45.820        13
45.840        17
45.860        17
45.880        13
45.900        20
45.920        17
45.940        17
45.960        13
45.980        13
46.000        27
46.020        37
46.040        20
46.060        20
46.080        37
46.100        27
46.120        17
46.140        33
46.160        20
46.180        23
46.200         3
46.220        20
46.240        17
46.260        27
46.280        23
46.300        27
46.320        17
46.340        17
46.360        13
46.380        33
46.400        20
46.420        13
46.440        10
46.460        27
46.480        10
46.500        20
46.520        47
46.540        23
46.560        33
46.580        13
46.600        10
46.620        17
46.640        20
46.660        20
46.680         7
46.700        27
46.720        20
46.740        20
46.760        17
46.780        27
46.800        20
46.820        17
46.840        20
46.860        17
46.880        37
46.900        10
46.920        17
46.940        27
46.960        23
46.980        20
47.000        13
47.020        13
47.040        27
47.060        23
47.080        23
47.100        23
47.120        23
47.140        20
47.160        27
47.180        20
47.200        20
47.220        30
47.240        23
47.260        30
47.280        40
47.300        20
47.320        30
47.340        10
47.360        33
47.380        10
47.400        37
47.420        23
47.440        40
47.460        37
47.480        33
47.500        30
47.520        17
47.540        17
47.560        20
47.580        33
47.600        23
47.620        27
47.640        23
47.660        13
47.680        20
47.700        10
47.720         7
47.740        17
47.760        33
47.780         3
47.800        33
47.820        13
47.840         7
47.860        17
47.880        23
47.900         7
47.920        27
47.940        20
47.960        23
47.980        10
48.000        17
48.020        13
48.040        27
48.060        43
48.080        13
48.100        20
48.120        13
48.140        17
48.160        17
48.180        27
48.200        23
48.220        27
48.240        30
48.260        23
48.280        30
48.300         7
48.320        27
48.340        13
48.360        20
48.380        20
48.400        23
48.420        47
48.440        27
48.460        23
48.480        27
48.500        27
48.520        40
48.540        33
48.560        30
48.580        20
48.600        23
48.620        17
48.640        20
48.660        20
48.680        20
48.700        17
48.720        33
48.740        13
48.760        27
48.780        17
48.800        10
48.820        17
48.840        20
48.860        27
48.880        20
48.900        20
48.920        10
48.940        17
48.960        13
48.980        10
49.000        27
49.020        17
49.040        23
49.060        13
49.080        27
49.100        20
49.120         7
49.140        13
49.160        13
49.180        17
49.200        27
49.220        13
49.240         3
49.260        27
49.280        23
49.300        20
49.320        23
49.340        10
49.360        27
49.380        20
49.400        20
49.420        27
49.440        20
49.460        23
49.480        17
49.500         3
49.520         3
49.540         7
49.560        30
49.580        17
49.600        27
49.620         3
49.640        13
49.660        33
49.680        17
49.700        17
49.720        20
49.740        33
49.760        23
49.780        10
49.800        23
49.820        17
49.840        27
49.860        23
49.880        17
49.900        13
49.920         7
49.940        13
49.960        17
49.980        13
50.000        33
50.020        20
50.040         7
50.060        27
50.080        20
50.100        30
50.120        33
50.140        10
50.160        17
50.180        10
50.200        17
50.220        20
50.240        10
50.260        23
50.280        27
50.300        27
50.320        17
50.340         7
50.360        17
50.380        10
50.400         7
50.420        27
50.440        20
50.460        17
50.480        17
50.500        20
50.520         7
50.540         3
50.560        10
50.580        10
50.600        17
50.620        17
50.640        20
50.660        17
50.680        10
50.700        23
50.720        20
50.740        17
50.760        20
50.780        10
50.800        20
50.820        30
50.840        10
50.860        17
50.880        17
50.900         3
50.920        13
50.940        23
50.960         7
50.980        23
51.000        17
51.020        10
51.040        30
51.060        10
51.080        10
51.100         7
51.120        13
51.140         7
51.160        20
51.180        10
51.200         7
51.220        17
51.240         7
51.260        17
51.280        17
51.300        17
51.320        23
51.340        20
51.360         7
51.380        13
51.400        13
51.420        10
51.440        13
51.460        20
51.480        10
51.500        27
51.520        10
51.540        17
51.560        13
51.580        33
51.600        17
51.620        30
51.640         3
51.660        17
51.680        13
51.700        23
51.720        20
51.740         7
51.760        27
51.780        27
51.800        20
51.820        23
51.840        17
51.860        13
51.880        13
51.900         7
51.920        33
51.940        13
51.960        10
51.980        13
52.000        17
52.020        13
52.040        10
52.060        17
52.080        13
52.100        10
52.120        20
52.140        10
52.160        23
52.180         0
52.200        10
52.220        23
52.240        33
52.260        23
52.280        17
52.300        10
52.320        17
52.340        13
52.360        30
52.380        20
52.400        13
52.420        20
52.440        13
52.460        17
52.480        27
52.500        17
52.520        37
52.540        40
52.560       120
52.580       137
52.600       130
52.620       157
52.640        80
52.660        50
52.680        30
52.700        53
52.720        57
52.740        60
52.760        50
52.780        30
52.800        13
52.820        27
52.840        13
52.860        30
52.880        30
52.900        20
52.920        13
52.940        13
52.960        13
52.980        20
53.000        13
53.020        33
53.040        13
53.060        17
53.080        23
53.100        20
53.120        23
53.140        23
53.160        20
53.180        10
53.200        30
53.220         7
53.240        17
53.260        10
53.280        20
53.300        10
53.320        20
53.340        20
53.360        17
53.380        20
53.400        13
53.420        17
53.440         7
53.460        17
53.480         7
53.500        20
53.520        17
53.540        17
53.560        17
53.580        10
53.600        17
53.620        13
53.640         3
53.660        10
53.680        23
53.700        10
53.720        13
53.740        40
53.760        23
53.780        10
53.800        23
53.820        33
53.840        17
53.860        17
53.880        23
53.900        17
53.920        13
53.940        30
53.960        10
53.980        10
54.000        23
54.020        17
54.040        30
54.060        20
54.080        23
54.100        17
54.120        17
54.140        30
54.160        23
54.180        20
54.200        23
54.220        27
54.240        20
54.260        20
54.280         3
54.300        30
54.320        20
54.340        10
54.360        20
54.380         7
54.400        23
54.420         7
54.440        30
54.460        20
54.480        30
54.500        20
54.520        10
54.540        20
54.560        23
54.580         7
54.600        17
54.620         7
54.640        27
54.660        27
54.680        30
54.700        33
54.720        27
54.740        37
54.760        40
54.780        23
54.800        33
54.820        33
54.840        27
54.860        43
54.880        67
54.900        43
54.920       100
54.940       127
54.960       103
54.980       137
55.000       160
55.020       163
55.040       203
55.060       187
55.080       163
55.100       187
55.120       123
55.140       143
55.160       173
55.180       130
55.200       110
55.220        60
55.240       100
55.260        47
55.280        43
55.300        53
55.320        37
55.340        53
55.360        23
55.380        37
55.400        33
55.420        17
55.440        37
55.460        17
55.480        17
55.500        20
55.520        17
55.540        17
55.560        30
55.580        27
55.600        20
55.620        23
55.640        23
55.660        23
55.680        10
55.700        30
55.720         7
55.740        27
55.760        13
55.780        33
55.800        20
55.820        23
55.840        30
55.860        10
55.880        13
55.900        30
55.920        17
55.940        10
55.960        10
55.980        23
56.000         7
56.020        13
56.040        20
56.060        23
56.080        20
56.100        10
56.120        23
56.140        13
56.160        17
56.180        13
56.200        13
56.220        27
56.240        10
56.260        13
56.280        17
56.300        20
56.320        17
56.340        27
56.360        23
56.380        23
56.400        17
56.420        10
56.440        17
56.460        10
56.480        17
56.500        23
56.520        20
56.540        17
56.560        27
56.580        30
56.600        17
56.620        23
56.640        10
56.660         3
56.680        33
56.700        20
56.720        23
56.740         3
56.760        13
56.780        23
56.800         7
56.820        17
56.840        10
56.860        23
56.880        17
56.900        23
56.920        20
56.940        13
56.960        13
56.980        20
57.000        20
57.020        17
57.040        10
57.060        17
57.080        23
57.100        27
57.120        30
57.140        10
57.160        17
57.180        20
57.200        13
57.220        10
57.240        23
57.260        23
57.280        20
57.300        17
57.320        27
57.340        27
57.360        47
57.380        27
57.400        33
57.420        43
57.440        37
57.460        37
57.480        83
57.500       133
57.520       123
57.540       157
57.560        93
57.580        63
57.600        43
57.620        47
57.640        47
57.660        77
57.680        70
57.700        40
57.720        47
57.740        37
57.760        23
57.780         7
57.800        27
57.820        30
57.840        27
57.860        13
57.880        33
57.900        23
57.920        20
57.940        17
57.960        17
57.980        17
58.000        17
58.020        17
58.040        13
58.060        27
58.080        17
58.100        17
58.120         7
58.140        20
58.160        10
58.180        10
58.200        17
58.220        23
58.240        17
58.260        10
58.280        27
58.300        10
58.320        20
58.340         7
58.360         3
58.380        10
58.400        20
58.420         7
58.440        17
58.460        10
58.480        17
58.500        10
58.520        10
58.540        10
58.560         3
58.580        20
58.600        10
58.620        13
58.640        27
58.660        17
58.680         7
58.700        20
58.720         3
58.740        13
58.760        20
58.780        13
58.800         0
58.820         7
58.840        20
58.860         7
58.880        13
58.900        30
58.920        20
58.940         7
58.960        20
58.980        13
59.000         7
59.020        20
59.040        10
59.060        23
59.080        27
59.100        20
59.120        10
59.140        17
59.160        17
59.180         3
59.200        23
59.220         7
59.240         7
59.260        23
59.280        27
59.300        10
59.320        10
59.340         7
59.360        23
59.380        33
59.400        20
59.420        20
59.440        20
59.460        23
59.480        10
59.500        13
59.520        17
59.540        17
59.560        20
59.580        13
59.600        17
59.620        20
59.640        10
59.660        17
59.680        17
59.700        10
59.720        20
59.740        10
59.760        13
59.780        13
59.800        27
59.820        17
59.840        20
59.860        17
59.880        10
59.900        23
59.920        13
59.940        13
59.960        20
59.980        17
60.000        17
