20.000       227
20.010       133
20.020       200
20.030       147
20.040       200
20.050       133
20.060       173
20.070       173
20.080       187
20.090       187
20.100       200
20.110       307
20.120       120
20.130       147
20.140       133
20.150       267
20.160       133
20.170       253
20.180       227
20.190       147
20.200       160
20.210       160
20.220       160
20.230       173
20.240       240
20.250       147
20.260       147
20.270       227
20.280       160
20.290       187
20.300       120
20.310       240
20.320       187
20.330       147
20.340        93
20.350       147
20.360       213
20.370       200
20.380       133
20.390       227
20.400       107
20.410       187
20.420       160
20.430       187
20.440        93
20.450       147
20.460        93
20.470       147
20.480       227
20.490       133
20.500       160
20.510       173
20.520       227
20.530       133
20.540       213
20.550       227
20.560       227
20.570       200
20.580       187
20.590       160
20.600       120
20.610       213
20.620       227
20.630       240
20.640       133
20.650       147
20.660        93
20.670       213
20.680       173
20.690       213
20.700       133
20.710       133
20.720       120
20.730       213
20.740       173
20.750       173
20.760       187
20.770       240
20.780       120
20.790       187
20.800       147
20.810       227
20.820       173
20.830       147
20.840       213
20.850       253
20.860       120
20.870       213
20.880       120
20.890       213
20.900       200
20.910       213
20.920       200
20.930       200
20.940       173
20.950       173
20.960       160
20.970       227
20.980       253
20.990        67
21.000       213
21.010       293
21.020       240
21.030       213
21.040       280
21.050       240
21.060       147
21.070       187
21.080       160
21.090       213
21.100        80
21.110       280
21.120       133
21.130       187
21.140       160
21.150       147
21.160       200
21.170       133
21.180       227
21.190       173
21.200       160
21.210       253
21.220       213
21.230       147
21.240       147
21.250       187
21.260       213
21.270       147
21.280       213
21.290       173
21.300       147
21.310       187
21.320       227
21.330       147
21.340        80
21.350       213
21.360        67
21.370       160
21.380       173
21.390       133
21.400       187
21.410       173
21.420       160
21.430       147
21.440       200
21.450       213
21.460       160
21.470       200
21.480       240
21.490       160
21.500       187
21.510       293
21.520       213
21.530        67
21.540       240
21.550       187
21.560       160
21.570       213
21.580        80
21.590       173
21.600       133
21.610       253
21.620       120
21.630       173
21.640       133
21.650       160
21.660       213
21.670       213
21.680       133
21.690       253
21.700       253
21.710       173
21.720       160
21.730       200
21.740       133
21.750       253
21.760       253
21.770       280
21.780       133
21.790       187
21.800       227
21.810       200
21.820       320
21.830       240
21.840       213
21.850       173
21.860       227
21.870       293
21.880       187
21.890       240
21.900       200
21.910       173
21.920       267
21.930       200
21.940       147
21.950       280
21.960       200
21.970       200
21.980       267
21.990       307
22.000       240
22.010       227
22.020       240
22.030       187
22.040       200
22.050       320
22.060       333
22.070       240
22.080       160
22.090       213
22.100       227
22.110       267
22.120       213
22.130       200
22.140       267
22.150       280
22.160       187
22.170       293
22.180       147
22.190       280
22.200       267
22.210       187
22.220       280
22.230       280
22.240       107
22.250       213
22.260       293
22.270       187
22.280       320
22.290       187
22.300       240
22.310       133
22.320       187
22.330       240
22.340       253
22.350       280
22.360       120
22.370       213
22.380       200
22.390       240
22.400       267
22.410       200
22.420       200
22.430       200
22.440       187
22.450       173
22.460       267
22.470       267
22.480       293
22.490       187
22.500       227
22.510       280
22.520       160
22.530       187
22.540       107
22.550       227
22.560       253
22.570       227
22.580       293
22.590       387
22.600       253
22.610       240
22.620       320
22.630       387
22.640       293
22.650       253
22.660       267
22.670       200
22.680       173
22.690       200
22.700       267
22.710       173
22.720       293
22.730       213
22.740       280
22.750       200
22.760       333
22.770       240
22.780       320
22.790       333
22.800       387
22.810       187
22.820       267
22.830       360
22.840       267
22.850       347
22.860       307
22.870       293
22.880       293
22.890       466
22.900       333
22.910       493
22.920       360
22.930       520
22.940       466
22.950       493
22.960       546
22.970       466
22.980       506
22.990       560
23.000       493
23.010       480
23.020       533
23.030       466
23.040       506
23.050       586
23.060       960
23.070      1333
23.080      2399
23.090      3145
23.100      2972
23.110      2972
23.120      3505
23.130      3065
23.140      2732
23.150      2159
23.160      1293
23.170      1026
23.180       640
23.190       600
23.200       520
23.210       373
23.220       480
23.230       546
23.240       360
23.250       533
23.260       307
23.270       347
23.280       533
23.290       307
23.300       373
23.310       373
23.320       347
23.330       440
23.340       267
23.350       227
23.360       360
23.370       253
23.380       413
23.390       373
23.400       387
23.410       267
23.420       387
23.430       387
23.440       307
23.450       453
23.460       387
23.470       307
23.480       280
23.490       400
23.500       453
23.510       293
23.520       347
23.530       453
23.540       453
23.550       333
23.560       347
23.570       413
23.580       440
23.590       506
23.600       387
23.610       466
23.620       466
23.630       413
23.640       373
23.650       240
23.660       360
23.670       387
23.680       267
23.690       426
23.700       267
23.710       333
23.720       227
23.730       307
23.740       466
23.750       293
23.760       333
23.770       400
23.780       347
23.790       307
23.800       347
23.810       267
23.820       347
23.830       253
23.840       280
23.850       333
23.860       307
23.870       333
23.880       453
23.890       307
23.900       333
23.910       333
23.920       320
23.930       320
23.940       573
23.950       293
23.960       387
23.970       360
23.980       280
23.990       333
24.000       320
24.010       267
24.020       280
24.030       307
24.040       400
24.050       213
24.060       347
24.070       307
24.080       320
24.090       333
24.100       440
24.110       293
24.120       453
24.130       307
24.140       453
24.150       280
24.160       480
24.170       400
24.180       440
24.190       360
24.200       360
24.210       307
24.220       400
24.230       307
24.240       440
24.250       426
24.260       453
24.270       480
24.280       360
24.290       373
24.300       267
24.310       413
24.320       333
24.330       426
24.340       387
24.350       307
24.360       333
24.370       360
24.380       347
24.390       387
24.400       373
24.410       413
24.420       307
24.430       253
24.440       373
24.450       307
24.460       333
24.470       333
24.480       333
24.490       347
24.500       360
24.510       360
24.520       227
24.530       360
24.540       387
24.550       360
24.560       307
24.570       373
24.580       493
24.590       400
24.600       240
24.610       360
24.620       453
24.630       453
24.640       440
24.650       400
24.660       373
24.670       347
24.680       560
24.690       586
24.700       520
24.710       746
24.720       880
24.730      1133
24.740       906
24.750      1200
24.760      1346
24.770      1359
24.780      1453
24.790      1506
24.800      1439
24.810      1399
24.820      1519
24.830      1879
24.840      1439
24.850      1519
24.860      1613
24.870      1546
24.880      1373
24.890      1506
24.900      1559
24.910      1693
24.920      1253
24.930      1626
24.940      1293
24.950      1706
24.960      1426
24.970      1413
24.980      1679
24.990      1359
25.000      1786
25.010      1546
25.020      1746
25.030      1479
25.040      1639
25.050      1479
25.060      1746
25.070      1693
25.080      1639
25.090      1573
25.100      1679
25.110      1839
25.120      1666
25.130      1333
25.140      2079
25.150      1733
25.160      1826
25.170      1719
25.180      1586
25.190      1693
25.200      1946
25.210      1839
25.220      1719
25.230      1959
25.240      1799
25.250      2132
25.260      1826
25.270      1773
25.280      1906
25.290      2186
25.300      2212
25.310      2092
25.320      2252
25.330      2172
25.340      2372
25.350      2799
25.360      2639
25.370      3745
25.380      4985
25.390      5931
25.400      6411
25.410      7544
25.420      8943
25.430     10529
25.440     12875
25.450     14048
25.460     15567
25.470     16620
25.480     18513
25.490     19486
25.500     21005
25.510     21458
25.520     23737
25.530     26349
25.540     30135
25.550     42250
25.560     77995
25.570    132387
25.580    192563
25.590    224417
25.600    244969
25.610    250113
25.620    253379
25.630    256231
25.640    249140
25.650    233733
25.660    207690
25.670    187112
25.680    175490
25.690    168373
25.700    155405
25.710    123990
25.720     86699
25.730     50113
25.740     29975
25.750     20538
25.760     16553
25.770     14794
25.780     11995
25.790     10782
25.800      8970
25.810      7197
25.820      6104
25.830      5584
25.840      4891
25.850      4132
25.860      3772
25.870      3479
25.880      3052
25.890      2839
25.900      2359
25.910      2132
25.920      2452
25.930      2519
25.940      2279
25.950      2359
25.960      2106
25.970      2066
25.980      2399
25.990      2266
26.000      2132
26.010      1959
26.020      1759
26.030      1973
26.040      1653
26.050      1933
26.060      1773
26.070      1319
26.080      1639
26.090      1759
26.100      1693
26.110      1573
26.120      1519
26.130      1439
26.140      1679
26.150      1653
26.160      1639
26.170      1626
26.180      1546
26.190      1306
26.200      1333
26.210      1413
26.220      1319
26.230      1413
26.240      1466
26.250      1266
26.260      1279
26.270      1319
26.280      1279
26.290      1333
26.300      1426
26.310      1359
26.320      1586
26.330      1333
26.340      1279
26.350      1213
26.360      1240
26.370      1226
26.380      1213
26.390      1146
26.400      1386
26.410      1306
26.420      1373
26.430      1479
26.440      1373
26.450      1399
26.460      1333
26.470      1026
26.480      1106
26.490      1466
26.500      1293
26.510      1293
26.520      1226
26.530      1053
26.540      1506
26.550      1266
26.560       973
26.570      1026
26.580       920
26.590      1386
26.600      1186
26.610      1213
26.620      1146
26.630      1120
26.640       853
26.650      1053
26.660      1106
26.670      1106
26.680      1253
26.690      1240
26.700      1093
26.710       960
26.720      1120
26.730      1026
26.740      1346
26.750      1333
26.760      1080
26.770      1160
26.780      1173
26.790       960
26.800      1213
26.810      1120
26.820      1106
26.830      1053
26.840       840
26.850       866
26.860      1080
26.870      1093
26.880      1093
26.890      1093
26.900       893
26.910       853
26.920       813
26.930       840
26.940      1186
26.950      1266
26.960      1160
26.970      1146
26.980       733
26.990       720
27.000       933
27.010      1026
27.020      1040
27.030      1053
27.040       853
27.050      1146
27.060       840
27.070       986
27.080      1080
27.090      1053
27.100      1160
27.110      1200
27.120      1066
27.130       893
27.140       733
27.150       786
27.160       893
27.170       960
27.180       880
27.190       760
27.200       733
27.210      1200
27.220       773
27.230       946
27.240       906
27.250       773
27.260      1013
27.270       933
27.280      1066
27.290       840
27.300       933
27.310       866
27.320       986
27.330      1026
27.340       853
27.350      1026
27.360       786
27.370       880
27.380       960
27.390       813
27.400       933
27.410      1106
27.420       840
27.430      1053
27.440      1040
27.450       920
27.460       760
27.470       986
27.480       880
27.490       933
27.500       986
27.510       760
27.520       840
27.530       813
27.540      1013
27.550      1066
27.560       946
27.570       853
27.580       880
27.590      1160
27.600       880
27.610      1066
27.620      1200
27.630       906
27.640       946
27.650       853
27.660       813
27.670      1026
27.680       946
27.690      1013
27.700       893
27.710       960
27.720       893
27.730       893
27.740       720
27.750       720
27.760       920
27.770       706
27.780       733
27.790       920
27.800       933
27.810       746
27.820       933
27.830       866
27.840       826
27.850       573
27.860       800
27.870       720
27.880       906
27.890       786
27.900       880
27.910       973
27.920       813
27.930       813
27.940       680
27.950      1000
27.960       853
27.970       693
27.980       760
27.990       706
28.000       813
28.010       946
28.020       733
28.030       706
28.040       920
28.050       853
28.060       840
28.070      1093
28.080       693
28.090       800
28.100       906
28.110       826
28.120       760
28.130       653
28.140       893
28.150       760
28.160       880
28.170       693
28.180       586
28.190       800
28.200       666
28.210       773
28.220       813
28.230       853
28.240       840
28.250       933
28.260       760
28.270      1013
28.280       706
28.290       746
28.300       626
28.310       680
28.320       586
28.330       586
28.340       693
28.350       640
28.360       853
28.370       773
28.380      1013
28.390       866
28.400       773
28.410       613
28.420       773
28.430       773
28.440       960
28.450       733
28.460       760
28.470       666
28.480       866
28.490       746
28.500       773
28.510       960
28.520       893
28.530       986
28.540       800
28.550       760
28.560      1026
28.570       853
28.580       840
28.590       613
28.600       746
28.610       800
28.620       826
28.630       760
28.640       613
28.650       800
28.660       613
28.670       613
28.680       760
28.690       680
28.700       946
28.710       706
28.720       480
28.730       826
28.740       600
28.750       680
28.760       746
28.770       626
28.780       600
28.790       573
28.800       640
28.810       600
28.820       586
28.830       533
28.840       773
28.850       640
28.860       746
28.870       720
28.880       773
28.890       706
28.900       826
28.910       653
28.920       480
28.930       773
28.940       920
28.950       773
28.960       653
28.970       706
28.980       546
28.990       733
29.000       786
29.010       813
29.020       786
29.030       653
29.040       720
29.050       706
29.060       653
29.070       853
29.080       760
29.090       720
29.100       853
29.110       720
29.120       706
29.130       640
29.140       586
29.150       600
29.160       626
29.170       680
29.180       706
29.190       666
29.200       680
29.210       813
29.220       800
29.230       640
29.240       693
29.250       733
29.260       573
29.270       760
29.280       720
29.290       506
29.300       720
29.310       800
29.320       733
29.330       613
29.340       680
29.350       533
29.360       720
29.370       546
29.380       586
29.390       600
29.400       680
29.410       760
29.420       613
29.430       666
29.440       600
29.450       773
29.460       546
29.470       480
29.480       666
29.490       693
29.500       720
29.510       626
29.520       533
29.530       560
29.540       613
29.550       800
29.560       560
29.570       693
29.580       666
29.590       533
29.600       493
29.610       600
29.620       733
29.630       693
29.640       693
29.650       560
29.660       560
29.670       546
29.680       733
29.690       586
29.700       866
29.710       586
29.720       626
29.730       746
29.740       893
29.750       600
29.760       760
29.770       560
29.780       560
29.790       640
29.800       586
29.810       466
29.820       573
29.830       733
29.840       520
29.850       573
29.860       613
29.870       533
29.880       546
29.890       586
29.900       520
29.910       533
29.920       560
29.930       786
29.940       533
29.950       666
29.960       573
29.970       733
29.980       546
29.990       600
30.000       640
30.010       653
30.020       586
30.030       533
30.040       520
30.050       573
30.060       573
30.070       640
30.080       666
30.090       600
30.100       506
30.110       493
30.120       413
30.130       453
30.140       653
30.150       666
30.160       706
30.170       493
30.180       693
30.190       626
30.200       640
30.210       600
30.220       533
30.230       413
30.240       440
30.250       533
30.260       466
30.270       506
30.280       466
30.290       506
30.300       560
30.310       573
30.320       520
30.330       546
30.340       600
30.350       560
30.360       546
30.370       573
30.380       520
30.390       480
30.400       506
30.410       480
30.420       666
30.430       466
30.440       480
30.450       480
30.460       600
30.470       506
30.480       493
30.490       653
30.500       520
30.510       640
30.520       546
30.530       506
30.540       560
30.550       533
30.560       480
30.570       466
30.580       480
30.590       600
30.600       560
30.610       493
30.620       546
30.630       600
30.640       506
30.650       693
30.660       373
30.670       653
30.680       480
30.690       373
30.700       493
30.710       626
30.720       533
30.730       640
30.740       533
30.750       586
30.760       426
30.770       493
30.780       480
30.790       533
30.800       387
30.810       520
30.820       560
30.830       493
30.840       453
30.850       720
30.860       440
30.870       453
30.880       506
30.890       506
30.900       546
30.910       653
30.920       520
30.930       387
30.940       453
30.950       653
30.960       560
30.970       413
30.980       453
30.990       613
31.000       560
31.010       440
31.020       387
31.030       466
31.040       546
31.050       560
31.060       560
31.070       440
31.080       506
31.090       506
31.100       520
31.110       600
31.120       333
31.130       426
31.140       440
31.150       426
31.160       440
31.170       440
31.180       413
31.190       360
31.200       373
31.210       506
31.220       320
31.230       533
31.240       333
31.250       493
31.260       426
31.270       480
31.280       387
31.290       560
31.300       413
31.310       546
31.320       493
31.330       307
31.340       480
31.350       413
31.360       373
31.370       387
31.380       400
31.390       320
31.400       493
31.410       506
31.420       320
31.430       307
31.440       466
31.450       506
31.460       373
31.470       440
31.480       520
31.490       506
31.500       400
31.510       426
31.520       546
31.530       453
31.540       493
31.550       453
31.560       506
31.570       280
31.580       426
31.590       573
31.600       453
31.610       387
31.620       520
31.630       320
31.640       333
31.650       493
31.660       360
31.670       480
31.680       493
31.690       400
31.700       426
31.710       373
31.720       280
31.730       413
31.740       506
31.750       466
31.760       347
31.770       426
31.780       413
31.790       426
31.800       240
31.810       453
31.820       520
31.830       586
31.840       387
31.850       440
31.860       453
31.870       360
31.880       560
31.890       387
31.900       426
31.910       440
31.920       333
31.930       333
31.940       400
31.950       333
31.960       440
31.970       426
31.980       560
31.990       400
32.000       466
32.010       413
32.020       400
32.030       360
32.040       453
32.050       400
32.060       387
32.070       347
32.080       320
32.090       560
32.100       506
32.110       546
32.120       560
32.130       400
32.140       347
32.150       333
32.160       520
32.170       546
32.180       440
32.190       493
32.200       533
32.210       653
32.220       520
32.230       546
32.240       426
32.250       560
32.260       613
32.270       613
32.280       506
32.290       600
32.300       387
32.310       600
32.320       586
32.330       533
32.340       373
32.350       440
32.360       466
32.370       413
32.380       506
32.390       506
32.400       426
32.410       400
32.420       560
32.430       307
32.440       586
32.450       320
32.460       400
32.470       400
32.480       453
32.490       426
32.500       413
32.510       360
32.520       387
32.530       360
32.540       293
32.550       493
32.560       493
32.570       413
32.580       333
32.590       413
32.600       333
32.610       307
32.620       227
32.630       520
32.640       347
32.650       347
32.660       373
32.670       387
32.680       293
32.690       493
32.700       267
32.710       240
32.720       320
32.730       373
32.740       347
32.750       307
32.760       480
32.770       400
32.780       387
32.790       293
32.800       347
32.810       347
32.820       320
32.830       360
32.840       240
32.850       307
32.860       413
32.870       400
32.880       426
32.890       373
32.900       373
32.910       307
32.920       320
32.930       333
32.940       333
32.950       280
32.960       347
32.970       466
32.980       307
32.990       400
33.000       307
33.010       387
33.020       360
33.030       267
33.040       253
33.050       373
33.060       400
33.070       280
33.080       267
33.090       360
33.100       387
33.110       307
33.120       160
33.130       360
33.140       373
33.150       267
33.160       360
33.170       253
33.180       387
33.190       227
33.200       320
33.210       360
33.220       400
33.230       347
33.240       280
33.250       333
33.260       253
33.270       307
33.280       267
33.290       293
33.300       373
33.310       333
33.320       280
33.330       213
33.340       293
33.350       293
33.360       293
33.370       347
33.380       333
33.390       280
33.400       293
33.410       293
33.420       253
33.430       240
33.440       400
33.450       387
33.460       253
33.470       253
33.480       253
33.490       280
33.500       307
33.510       307
33.520       320
33.530       307
33.540       227
33.550       387
33.560       333
33.570       307
33.580       320
33.590       333
33.600       280
33.610       213
33.620       267
33.630       240
33.640       320
33.650       200
33.660       400
33.670       387
33.680       280
33.690       347
33.700       320
33.710       347
33.720       320
33.730       240
33.740       400
33.750       227
33.760       373
33.770       307
33.780       360
33.790       280
33.800       307
33.810       307
33.820       360
33.830       240
33.840       280
33.850       267
33.860       160
33.870       360
33.880       253
33.890       387
33.900       240
33.910       280
33.920       213
33.930       307
33.940       240
33.950       147
33.960       413
33.970       347
33.980       173
33.990       147
34.000       240
34.010       387
34.020       253
34.030       200
34.040       253
34.050       267
34.060       280
34.070       320
34.080       267
34.090       267
34.100       307
34.110       267
34.120       227
34.130       360
34.140       293
34.150       187
34.160       293
34.170       133
34.180       320
34.190       213
34.200       333
34.210       333
34.220       333
34.230       267
34.240       200
34.250       267
34.260       160
34.270       280
34.280       200
34.290       307
34.300       213
34.310       280
34.320       333
34.330       333
34.340       387
34.350       160
34.360       240
34.370       267
34.380       187
34.390       293
34.400       227
34.410       187
34.420       293
34.430       307
34.440       240
34.450       240
34.460       253
34.470       213
34.480       213
34.490       173
34.500       227
34.510       227
34.520       280
34.530       293
34.540       200
34.550       187
34.560       160
34.570       147
34.580       227
34.590       227
34.600       160
34.610       293
34.620       267
34.630       240
34.640       253
34.650       253
34.660       227
34.670       320
34.680       213
34.690       227
34.700       160
34.710       267
34.720       253
34.730       213
34.740       267
34.750       280
34.760       147
34.770       253
34.780       307
34.790       253
34.800       293
34.810       200
34.820       213
34.830       187
34.840       293
34.850       253
34.860       227
34.870       267
34.880       240
34.890       213
34.900       200
34.910       187
34.920       147
34.930       240
34.940       373
34.950       200
34.960       320
34.970       267
34.980       227
34.990       160
35.000       240
35.010       173
35.020       227
35.030       227
35.040       160
35.050       187
35.060       200
35.070       227
35.080       240
35.090       240
35.100       227
35.110       253
35.120       253
35.130       227
35.140       240
35.150       280
35.160       227
35.170       200
35.180       227
35.190       253
35.200       187
35.210       173
35.220       213
35.230       200
35.240       280
35.250       227
35.260       187
35.270       240
35.280       253
35.290       213
35.300       280
35.310       213
35.320       253
35.330       200
35.340       133
35.350       293
35.360       253
35.370       280
35.380       147
35.390       227
35.400       160
35.410       280
35.420       187
35.430       240
35.440       173
35.450       173
35.460       173
35.470       240
35.480       160
35.490       200
35.500       240
35.510       213
35.520       253
35.530       253
35.540       160
35.550       160
35.560       160
35.570       160
35.580       200
35.590       160
35.600       240
35.610       200
35.620       227
35.630       280
35.640       160
35.650       320
35.660       173
35.670       133
35.680       320
35.690       173
35.700       187
35.710       173
35.720       133
35.730       187
35.740       240
35.750       173
35.760       160
35.770       240
35.780       187
35.790       173
35.800       160
35.810       160
35.820       133
35.830       240
35.840       133
35.850       200
35.860       200
35.870       160
35.880       147
35.890       133
35.900       173
35.910       267
35.920       173
35.930       187
35.940       107
35.950       160
35.960       173
35.970       213
35.980       227
35.990       120
36.000       200
36.010       253
36.020       173
36.030       187
36.040       173
36.050       187
36.060       227
36.070       200
36.080       160
36.090       227
36.100       160
36.110       107
36.120       133
36.130       147
36.140       187
36.150       147
36.160        80
36.170       187
36.180       160
36.190       200
36.200       187
36.210        93
36.220        93
36.230       213
36.240       213
36.250       227
36.260       107
36.270       133
36.280       227
36.290       187
36.300       187
36.310       187
36.320       133
36.330       173
36.340       173
36.350       173
36.360       147
36.370       240
36.380       160
36.390       280
36.400        93
36.410       133
36.420       173
36.430       213
36.440       147
36.450       147
36.460       120
36.470        93
36.480       133
36.490       120
36.500       120
36.510       147
36.520       187
36.530       120
36.540       173
36.550       160
36.560       173
36.570       160
36.580       227
36.590       173
36.600       133
36.610       200
36.620       147
36.630       187
36.640       133
36.650       200
36.660       173
36.670       147
36.680       147
36.690       160
36.700       240
36.710        80
36.720       173
36.730        53
36.740       147
36.750       213
36.760       133
36.770       213
36.780       133
36.790       173
36.800       160
36.810       120
36.820       160
36.830       213
36.840       187
36.850       120
36.860       160
36.870       107
36.880       133
36.890       187
36.900       160
36.910       147
36.920       120
36.930       173
36.940       120
36.950       147
36.960       187
36.970       227
36.980       147
36.990       187
37.000       253
37.010       120
37.020       133
37.030       173
37.040       147
37.050       147
37.060       187
37.070       213
37.080       133
37.090       213
37.100       160
37.110       120
37.120        93
37.130       240
37.140       253
37.150       147
37.160       187
37.170       160
37.180        93
37.190       227
37.200       147
37.210       187
37.220       107
37.230        80
37.240        93
37.250       213
37.260        80
37.270       147
37.280        67
37.290       120
37.300       133
37.310        93
37.320       133
37.330        53
37.340       133
37.350        53
37.360        93
37.370       173
37.380       133
37.390       187
37.400       160
37.410       120
37.420       120
37.430       200
37.440        67
37.450        67
37.460       200
37.470       200
37.480        93
37.490        93
37.500       173
37.510       133
37.520       133
37.530        93
37.540       187
37.550       120
37.560        93
37.570       187
37.580       200
37.590       120
37.600       133
37.610        80
37.620       107
37.630        80
37.640       133
37.650       120
37.660       160
37.670        80
37.680        67
37.690        67
37.700       160
37.710       213
37.720        80
37.730        93
37.740       173
37.750       187
37.760       173
37.770       107
37.780       227
37.790       120
37.800        80
37.810       173
37.820       107
37.830       120
37.840       147
37.850       107
37.860       107
37.870        93
37.880        93
37.890        93
37.900       107
37.910       213
37.920       120
37.930       147
37.940        93
37.950       213
37.960       133
37.970       187
37.980       133
37.990        67
38.000        67
38.010       227
38.020       133
38.030        53
38.040       160
38.050       107
38.060       107
38.070        93
38.080       240
38.090       133
38.100       187
38.110        93
38.120       160
38.130       107
38.140       160
38.150        80
38.160       133
38.170        80
38.180       147
38.190       133
38.200        93
38.210       120
38.220        67
38.230        93
38.240        67
38.250       147
38.260        40
38.270        67
38.280       107
38.290       133
38.300        67
38.310       173
38.320       107
38.330        67
38.340       173
38.350       120
38.360       147
38.370       147
38.380       147
38.390       120
38.400       120
38.410       173
38.420       120
38.430        53
38.440        80
38.450       133
38.460       107
38.470        53
38.480        67
38.490        93
38.500        53
38.510        93
38.520        80
38.530       147
38.540        93
38.550       147
38.560        80
38.570       133
38.580        93
38.590       120
38.600        80
38.610        80
38.620       173
38.630        93
38.640       107
38.650       120
38.660       107
38.670       120
38.680        80
38.690        80
38.700       133
38.710       147
38.720       160
38.730       133
38.740       187
38.750        67
38.760       107
38.770       147
38.780       120
38.790        80
38.800        80
38.810       173
38.820        93
38.830        93
38.840       120
38.850       107
38.860        93
38.870        80
38.880       160
38.890       120
38.900       120
38.910       107
38.920       120
38.930        53
38.940       120
38.950        27
38.960       133
38.970       147
38.980       120
38.990        93
39.000        93
39.010        67
39.020        93
39.030       147
39.040        40
39.050        67
39.060        80
39.070       133
39.080        67
39.090        93
39.100        53
39.110       133
39.120        13
39.130       147
39.140       107
39.150        93
39.160        67
39.170        93
39.180        67
39.190        80
39.200        67
39.210       147
39.220        93
39.230        93
39.240       120
39.250        80
39.260        80
39.270        53
39.280        93
39.290       120
39.300       213
39.310       133
39.320        67
39.330       133
39.340        67
39.350       120
39.360        53
39.370       120
39.380        67
39.390       120
39.400        53
39.410       133
39.420        80
39.430       120
39.440        67
39.450       107
39.460        67
39.470        80
39.480        93
39.490       133
39.500        93
39.510       120
39.520        67
39.530       107
39.540       107
39.550       107
39.560        80
39.570        53
39.580       133
39.590        53
39.600       133
39.610        40
39.620        40
39.630       120
39.640       200
39.650        80
39.660       133
39.670        93
39.680       120
39.690       107
39.700        93
39.710        53
39.720        67
39.730        93
39.740       213
39.750        27
39.760        80
39.770       187
39.780        67
39.790       120
39.800        27
39.810        93
39.820       147
39.830       133
39.840        80
39.850       160
39.860        93
39.870       120
39.880        53
39.890        27
39.900        27
39.910        13
39.920       107
39.930       107
39.940        80
39.950       107
39.960       173
39.970        67
39.980        53
39.990        13
40.000        53
40.010       107
40.020        80
40.030       107
40.040        93
40.050        67
40.060       107
40.070       133
40.080        53
40.090        27
40.100       133
40.110        53
40.120        93
40.130        67
40.140       107
40.150       107
40.160       133
40.170        40
40.180        93
40.190        80
40.200        40
40.210        80
40.220        80
40.230        93
40.240       107
40.250       120
40.260        53
40.270        80
40.280        40
40.290        67
40.300        40
40.310        80
40.320        80
40.330        40
40.340        67
40.350       107
40.360        53
40.370        80
40.380        93
40.390       133
40.400        93
40.410        40
40.420        40
40.430        40
40.440        93
40.450        93
40.460        80
40.470        67
40.480       107
40.490        93
40.500        93
40.510        67
40.520        80
40.530        80
40.540        67
40.550        80
40.560       133
40.570        80
40.580        13
40.590        40
40.600        53
40.610        67
40.620        67
40.630        53
40.640       120
40.650       107
40.660       107
40.670        67
40.680        80
40.690        53
40.700        40
40.710        27
40.720       107
40.730        67
40.740       147
40.750        93
40.760        93
40.770       133
40.780        80
40.790        93
40.800        93
40.810        67
40.820        67
40.830        27
40.840       133
40.850       133
40.860       120
40.870        67
40.880        40
40.890        40
40.900        53
40.910        53
40.920        67
40.930        80
40.940       120
40.950        53
40.960       147
40.970        67
40.980        53
40.990        53
41.000        53
41.010        80
41.020        67
41.030        80
41.040        80
41.050       120
41.060        40
41.070        67
41.080        53
41.090        27
41.100        93
41.110        53
41.120        67
41.130       107
41.140        27
41.150       107
41.160        13
41.170        40
41.180       107
41.190        67
41.200        40
41.210       107
41.220       133
41.230        80
41.240       120
41.250        67
41.260        80
41.270        53
41.280       107
41.290        80
41.300        80
41.310        53
41.320       107
41.330        93
41.340        53
41.350        93
41.360        80
41.370       107
41.380       107
41.390        93
41.400        93
41.410        40
41.420        40
41.430        53
41.440        67
41.450        80
41.460        67
41.470        53
41.480        40
41.490        40
41.500       133
41.510        40
41.520        80
41.530        53
41.540        80
41.550        67
41.560        93
41.570        67
41.580        80
41.590        67
41.600       120
41.610        67
41.620       120
41.630        53
41.640        80
41.650        40
41.660        80
41.670        67
41.680        13
41.690        53
41.700        53
41.710        40
41.720        80
41.730       107
41.740        13
41.750        67
41.760        40
41.770        93
41.780        13
41.790        53
41.800        93
41.810        40
41.820        53
41.830        67
41.840        80
41.850        53
41.860        67
41.870        80
41.880        40
41.890        67
41.900        67
41.910        40
41.920        67
41.930        93
41.940        53
41.950        80
41.960        53
41.970        53
41.980       107
41.990        67
42.000        93
42.010        40
42.020        67
42.030        40
42.040        67
42.050        40
42.060       107
42.070        67
42.080       133
42.090        40
42.100        40
42.110        13
42.120        27
42.130        93
42.140        40
42.150       107
42.160        53
42.170        93
42.180       107
42.190        80
42.200        27
42.210        53
42.220        80
42.230        67
42.240        80
42.250       107
42.260        53
42.270       107
42.280        67
42.290       107
42.300        53
42.310        93
42.320        53
42.330        67
42.340        13
42.350        53
42.360        27
42.370        40
42.380        13
42.390        80
42.400        67
42.410        40
42.420        53
42.430       147
42.440        80
42.450        53
42.460        93
42.470        53
42.480        53
42.490        67
42.500        67
42.510        80
42.520        40
42.530        13
42.540        27
42.550        53
42.560         0
42.570        93
42.580        40
42.590        67
42.600        67
42.610        53
42.620        93
42.630        67
42.640        13
42.650        93
42.660        93
42.670        93
42.680        80
42.690        93
42.700        67
42.710        40
42.720        80
42.730        53
42.740        27
42.750        93
42.760       107
42.770        67
42.780        40
42.790        80
42.800        27
42.810        53
42.820        67
42.830        80
42.840        67
42.850        80
42.860       107
42.870         0
42.880        67
42.890        67
42.900        53
42.910        80
42.920        93
42.930        67
42.940        67
42.950        27
42.960       107
42.970        80
42.980        80
42.990        40
43.000        67
43.010        80
43.020        67
43.030        80
43.040        80
43.050        53
43.060        27
43.070        40
43.080        80
43.090        80
43.100        53
43.110        53
43.120        67
43.130       133
43.140        40
43.150        67
43.160        80
43.170       120
43.180        40
43.190        67
43.200        67
43.210        53
43.220       133
43.230        27
43.240        40
43.250        93
43.260        67
43.270        40
43.280        67
43.290        27
43.300        93
43.310        40
43.320        93
43.330        40
43.340        53
43.350        13
43.360        53
43.370        53
43.380       120
43.390        80
43.400        53
43.410        93
43.420        27
43.430        40
43.440        40
43.450       120
43.460        80
43.470        53
43.480        27
43.490        67
43.500        80
43.510        40
43.520        53
43.530        80
43.540        13
43.550        53
43.560        67
43.570        40
43.580        27
43.590        40
43.600        40
43.610        53
43.620        40
43.630       120
43.640        53
43.650        53
43.660        67
43.670        53
43.680        40
43.690        40
43.700       107
43.710        13
43.720        13
43.730        80
43.740        93
43.750        13
43.760        67
43.770        67
43.780        40
43.790        67
43.800        80
43.810        13
43.820        53
43.830        40
43.840        80
43.850       107
43.860        67
43.870        80
43.880        53
43.890        53
43.900        40
43.910        67
43.920        80
43.930        53
43.940        13
43.950        80
43.960        27
43.970        13
43.980        27
43.990       120
44.000       107
44.010        53
44.020        40
44.030        67
44.040        80
44.050        40
44.060        80
44.070        40
44.080        93
44.090       107
44.100        93
44.110        80
44.120        53
44.130        27
44.140        80
44.150        53
44.160        67
44.170       120
44.180        53
44.190        40
44.200        67
44.210        53
44.220        80
44.230        40
44.240        13
44.250        67
44.260        27
44.270        40
44.280        27
44.290        53
44.300       107
44.310        80
44.320        67
44.330        93
44.340        40
44.350        80
44.360        40
44.370        40
44.380        67
44.390        40
44.400        67
44.410        40
44.420       107
44.430        93
44.440        53
44.450        40
44.460        67
44.470        40
44.480        93
44.490        27
44.500        53
44.510        53
44.520        40
44.530        93
44.540        67
44.550        80
44.560        53
44.570        40
44.580        93
44.590        53
44.600        13
44.610        67
44.620        27
44.630        93
44.640        53
44.650        53
44.660         0
44.670        80
44.680        27
44.690        80
44.700        27
44.710        40
44.720        67
44.730        13
44.740        53
44.750        53
44.760        67
44.770        53
44.780        80
44.790        53
44.800        67
44.810        67
44.820        40
44.830        27
44.840        93
44.850        40
44.860        40
44.870        53
44.880        40
44.890        13
44.900       107
44.910         0
44.920        53
44.930        27
44.940        67
44.950        53
44.960        80
44.970        27
44.980        80
44.990        13
45.000        40
45.010        80
45.020       107
45.030        13
45.040        67
45.050        67
45.060        13
45.070        53
45.080        40
45.090         0
45.100        27
45.110        93
45.120        80
45.130        40
45.140        80
45.150        53
45.160        40
45.170        53
45.180        53
45.190        40
45.200        27
45.210        53
45.220        27
45.230        67
45.240        80
45.250        27
45.260        53
45.270        67
45.280        27
45.290        53
45.300        53
45.310        40
45.320        13
45.330        93
45.340        53
45.350        80
45.360        67
45.370        40
45.380        93
45.390        27
45.400        40
45.410        53
45.420        53
45.430        27
45.440        40
45.450        53
45.460        67
45.470        53
45.480        53
45.490        53
45.500       107
45.510        67
45.520        40
45.530        13
45.540        27
45.550        40
45.560        53
45.570        80
45.580         0
45.590        27
45.600        27
45.610        53
45.620        40
45.630        40
45.640        27
45.650        80
45.660        53
45.670        80
45.680         0
45.690        13
45.700        53
45.710        67
45.720        67
45.730        67
45.740        53
45.750        40
45.760        67
45.770        13
45.780        40
45.790        53
45.800        27
45.810        80
45.820        53
45.830        53
45.840        67
45.850        67
45.860        67
45.870        27
45.880        27
45.890        93
45.900        53
45.910        40
45.920        13
45.930        80
45.940        53
45.950        80
45.960        27
45.970        53
45.980        40
45.990        13
46.000        40
46.010       107
46.020        67
46.030        27
46.040        67
46.050        93
46.060        53
46.070        27
46.080        53
46.090        53
46.100        67
46.110        53
46.120        13
46.130        40
46.140        13
46.150        40
46.160        80
46.170        53
46.180        40
46.190        27
46.200        53
46.210        67
46.220        80
46.230        40
46.240        27
46.250        80
46.260        93
46.270        80
46.280        13
46.290        80
46.300        53
46.310         0
46.320        40
46.330        53
46.340        27
46.350        40
46.360        27
46.370        80
46.380        40
46.390        27
46.400        40
46.410        40
46.420        27
46.430        67
46.440        53
46.450        40
46.460        67
46.470        40
46.480        67
46.490        27
46.500        80
46.510       107
46.520        40
46.530        53
46.540        67
46.550        53
46.560        27
46.570        13
46.580        93
46.590        40
46.600        67
46.610        67
46.620        80
46.630        80
46.640        40
46.650        40
46.660        93
46.670        53
46.680       133
46.690        53
46.700        53
46.710       160
46.720        80
46.730        53
46.740        80
46.750        80
46.760        80
46.770        40
46.780       200
46.790       133
46.800       200
46.810       160
46.820       160
46.830       213
46.840       147
46.850       160
46.860        53
46.870        93
46.880        93
46.890        67
46.900        80
46.910       120
46.920       147
46.930       120
46.940       173
46.950        67
46.960       187
46.970       133
46.980        40
46.990       133
47.000       133
47.010       173
47.020       213
47.030        93
47.040       213
47.050       253
47.060       240
47.070       187
47.080       240
47.090       187
47.100       440
47.110       453
47.120       520
47.130       666
47.140      1026
47.150      1253
47.160      1853
47.170      2159
47.180      2252
47.190      2959
47.200      3065
47.210      3105
47.220      3065
47.230      2732
47.240      1879
47.250      1359
47.260       893
47.270       746
47.280       626
47.290       440
47.300       347
47.310       347
47.320       413
47.330       227
47.340       240
47.350       187
47.360       173
47.370       227
47.380       173
47.390       147
47.400       133
47.410        80
47.420        93
47.430        40
47.440       173
47.450       160
47.460       147
47.470       107
47.480       173
47.490        93
47.500       200
47.510       133
47.520       107
47.530        53
47.540       133
47.550       213
47.560       107
47.570       133
47.580       147
47.590        67
47.600        53
47.610        93
47.620       107
47.630       160
47.640       120
47.650       120
47.660        93
47.670        93
47.680       107
47.690       147
47.700        80
47.710        67
47.720       107
47.730        53
47.740        40
47.750        67
47.760       147
47.770       133
47.780        40
47.790        93
47.800        53
47.810       107
47.820       120
47.830       160
47.840       133
47.850        80
47.860       120
47.870        67
47.880        67
47.890        53
47.900        67
47.910        80
47.920        53
47.930       120
47.940        53
47.950        67
47.960        27
47.970        67
47.980        93
47.990       133
48.000        40
48.010        93
48.020        53
48.030        40
48.040        53
48.050       107
48.060        67
48.070        40
48.080        93
48.090       133
48.100        67
48.110        80
48.120        80
48.130       107
48.140       107
48.150        93
48.160        40
48.170        53
48.180        53
48.190        67
48.200        67
48.210        93
48.220        40
48.230        67
48.240        80
48.250        53
48.260        27
48.270        53
48.280        53
48.290        40
48.300       160
48.310        53
48.320        40
48.330        67
48.340        27
48.350        53
48.360       147
48.370        67
48.380        93
48.390        40
48.400       107
48.410        53
48.420        53
48.430        80
48.440        93
48.450        93
48.460        80
48.470       107
48.480        53
48.490        80
48.500        67
48.510        27
48.520        67
48.530        53
48.540        40
48.550        40
48.560        80
48.570        80
48.580       107
48.590        80
48.600        40
48.610        40
48.620       120
48.630        67
48.640        53
48.650       120
48.660        53
48.670        53
48.680        67
48.690        67
48.700        80
48.710        53
48.720        67
48.730        13
48.740        93
48.750        27
48.760        27
48.770        53
48.780        27
48.790        40
48.800        40
48.810        27
48.820        80
48.830        80
48.840        67
48.850        40
48.860         0
48.870        80
48.880        80
48.890        40
48.900        40
48.910        27
48.920        53
48.930        27
48.940        93
48.950        67
48.960        67
48.970        53
48.980        80
48.990        40
49.000        40
49.010        53
49.020        93
49.030        27
49.040        53
49.050        93
49.060        93
49.070        40
49.080        53
49.090        27
49.100        53
49.110        80
49.120        40
49.130       120
49.140        40
49.150        53
49.160        93
49.170        93
49.180        67
49.190        67
49.200        67
49.210        80
49.220        40
49.230        13
49.240        67
49.250        40
49.260        80
49.270        27
49.280        53
49.290        40
49.300        80
49.310        80
49.320        93
49.330        13
49.340        67
49.350        53
49.360        40
49.370        80
49.380        80
49.390        40
49.400        67
49.410        93
49.420        40
49.430        67
49.440        93
49.450        80
49.460        53
49.470        53
49.480        27
49.490        27
49.500        40
49.510        27
49.520        80
49.530        67
49.540        53
49.550        80
49.560         0
49.570        93
49.580       107
49.590        80
49.600        80
49.610        13
49.620        40
49.630        67
49.640        53
49.650        80
49.660        67
49.670        80
49.680        67
49.690        93
49.700       107
49.710        27
49.720        80
49.730        53
49.740        13
49.750        53
49.760        13
49.770        53
49.780        93
49.790        40
49.800       120
49.810        53
49.820       107
49.830        53
49.840        80
49.850        93
49.860        67
49.870        40
49.880        40
49.890        80
49.900       107
49.910       107
49.920        80
49.930        40
49.940        27
49.950        53
49.960        80
49.970        40
49.980        27
49.990        93
50.000        53
50.010       107
50.020        40
50.030        93
50.040        27
50.050        40
50.060        80
50.070       107
50.080        40
50.090        40
50.100        40
50.110        67
50.120        40
50.130        93
50.140        27
50.150        53
50.160        80
50.170        13
50.180        40
50.190        40
50.200       120
50.210         0
50.220        67
50.230        93
50.240        27
50.250        67
50.260        93
50.270        67
50.280        40
50.290        40
50.300        67
50.310        53
50.320       107
50.330        40
50.340         0
50.350        40
50.360        80
50.370        13
50.380        40
50.390        40
50.400        53
50.410        40
50.420        40
50.430        67
50.440        80
50.450        13
50.460        27
50.470        80
50.480        53
50.490        67
50.500        27
50.510       107
50.520        80
50.530        40
50.540       120
50.550        93
50.560       107
50.570        53
50.580       107
50.590       107
50.600       107
50.610       120
50.620       120
50.630       293
50.640       173
50.650       333
50.660       320
50.670       466
50.680       693
50.690       600
50.700       613
50.710       666
50.720       653
50.730       773
50.740       613
50.750       786
50.760       800
50.770       573
50.780       760
50.790       573
50.800       920
50.810       706
50.820       626
50.830       600
50.840       613
50.850       746
50.860       693
50.870       893
50.880      1000
50.890       840
50.900       560
50.910       653
50.920       760
50.930       840
50.940       706
50.950       853
50.960       826
50.970       733
50.980       800
50.990       773
51.000       733
51.010       733
51.020       813
51.030       973
51.040       666
51.050       866
51.060       826
51.070       800
51.080       773
51.090       786
51.100       546
51.110       720
51.120       773
51.130       733
51.140       893
51.150       933
51.160       600
51.170       893
51.180       706
51.190       813
51.200       800
51.210       773
51.220       760
51.230       826
51.240       760
51.250       733
51.260       573
51.270       680
51.280       773
51.290       640
51.300       906
51.310      1040
51.320       800
51.330       773
51.340       773
51.350       826
51.360       813
51.370       840
51.380       760
51.390       813
51.400       733
51.410       920
51.420       826
51.430       813
51.440       760
51.450       613
51.460       920
51.470       720
51.480       906
51.490       800
51.500       720
51.510       906
51.520       746
51.530       933
51.540       840
51.550       600
51.560       706
51.570       800
51.580       706
51.590      1013
51.600       893
51.610       960
51.620       853
51.630       586
51.640       933
51.650       866
51.660       826
51.670       800
51.680       920
51.690       960
51.700       800
51.710       813
51.720       906
51.730       693
51.740      1080
51.750       946
51.760       893
51.770       906
51.780       960
51.790       813
51.800       946
51.810       946
51.820       826
51.830       893
51.840       893
51.850       853
51.860       813
51.870       866
51.880       866
51.890      1133
51.900       920
51.910       920
51.920      1066
51.930      1173
51.940       973
51.950       986
51.960      1106
51.970      1093
51.980       933
51.990       960
52.000      1399
52.010       933
52.020      1213
52.030      1186
52.040      1173
52.050      1319
52.060      1186
52.070      1319
52.080      1240
52.090      1213
52.100      1120
52.110      1426
52.120      1679
52.130      1399
52.140      1253
52.150      1773
52.160      1453
52.170      1599
52.180      1786
52.190      1786
52.200      2132
52.210      1999
52.220      1919
52.230      1906
52.240      2332
52.250      2466
52.260      2866
52.270      2679
52.280      3132
52.290      3785
52.300      3865
52.310      4558
52.320      5025
52.330      6357
52.340      6517
52.350      7637
52.360      8437
52.370      9250
52.380     10076
52.390     11475
52.400     12182
52.410     12875
52.420     14781
52.430     15900
52.440     15994
52.450     19206
52.460     19299
52.470     21645
52.480     23537
52.490     26616
52.500     30854
52.510     37985
52.520     50153
52.530     72917
52.540    111369
52.550    160203
52.560    202892
52.570    237278
52.580    252486
52.590    264468
52.600    260722
52.610    252672
52.620    228415
52.630    194975
52.640    148980
52.650    108423
52.660     82634
52.670     75183
52.680     84899
52.690    109263
52.700    133307
52.710    156591
52.720    167946
52.730    175410
52.740    175023
52.750    164308
52.760    145235
52.770    117153
52.780     84646
52.790     58030
52.800     37772
52.810     27989
52.820     20379
52.830     17126
52.840     14301
52.850     12688
52.860     12009
52.870     10929
52.880      8730
52.890      7517
52.900      7051
52.910      6064
52.920      5438
52.930      4678
52.940      3985
52.950      3599
52.960      3399
52.970      3372
52.980      2799
52.990      2692
53.000      2426
53.010      2092
53.020      2252
53.030      2252
53.040      2292
53.050      1826
53.060      2106
53.070      1946
53.080      1853
53.090      1946
53.100      1706
53.110      1613
53.120      1586
53.130      1493
53.140      1679
53.150      1639
53.160      1679
53.170      1493
53.180      1386
53.190      1426
53.200      1386
53.210      1240
53.220      1253
53.230      1253
53.240      1146
53.250      1053
53.260      1453
53.270      1293
53.280      1306
53.290      1213
53.300      1306
53.310      1319
53.320      1279
53.330      1240
53.340       973
53.350      1319
53.360      1080
53.370       933
53.380      1000
53.390      1106
53.400      1146
53.410       973
53.420      1120
53.430       906
53.440       920
53.450       813
53.460      1106
53.470       720
53.480      1093
53.490       973
53.500      1066
53.510       933
53.520       853
53.530       720
53.540       786
53.550      1013
53.560       840
53.570       893
53.580       813
53.590       920
53.600       773
53.610       866
53.620       813
53.630       733
53.640       866
53.650       800
53.660       786
53.670       720
53.680       693
53.690       680
53.700       760
53.710       760
53.720       653
53.730       773
53.740       880
53.750       920
53.760       720
53.770       640
53.780       866
53.790       560
53.800       746
53.810       693
53.820       760
53.830       693
53.840       760
53.850       906
53.860       626
53.870       720
53.880       866
53.890       720
53.900       746
53.910       600
53.920       626
53.930       680
53.940       546
53.950       786
53.960       653
53.970       826
53.980       613
53.990       573
54.000       666
54.010       680
54.020       600
54.030       520
54.040       773
54.050       906
54.060       773
54.070       693
54.080       600
54.090       546
54.100       466
54.110       720
54.120       493
54.130       733
54.140       560
54.150       506
54.160       560
54.170       573
54.180       533
54.190       613
54.200       640
54.210       506
54.220       546
54.230       720
54.240       733
54.250       573
54.260       506
54.270       480
54.280       573
54.290       560
54.300       466
54.310       626
54.320       333
54.330       573
54.340       453
54.350       533
54.360       720
54.370       426
54.380       893
54.390       480
54.400       506
54.410       706
54.420       466
54.430       613
54.440       520
54.450       426
54.460       600
54.470       480
54.480       347
54.490       546
54.500       480
54.510       546
54.520       653
54.530       480
54.540       466
54.550       373
54.560       480
54.570       520
54.580       453
54.590       466
54.600       600
54.610       480
54.620       520
54.630       426
54.640       653
54.650       453
54.660       466
54.670       666
54.680       373
54.690       480
54.700       360
54.710       533
54.720       520
54.730       293
54.740       533
54.750       533
54.760       506
54.770       453
54.780       466
54.790       533
54.800       520
54.810       440
54.820       493
54.830       640
54.840       413
54.850       466
54.860       533
54.870       640
54.880       506
54.890       387
54.900       440
54.910       493
54.920       520
54.930       586
54.940       373
54.950       347
54.960       506
54.970       506
54.980       387
54.990       466
55.000       626
55.010       387
55.020       586
55.030       387
55.040       320
55.050       600
55.060       520
55.070       626
55.080       426
55.090       520
55.100       506
55.110       533
55.120       373
55.130       440
55.140       413
55.150       466
55.160       493
55.170       600
55.180       680
55.190       426
55.200       440
55.210       347
55.220       506
55.230       466
55.240       453
55.250       440
55.260       387
55.270       426
55.280       466
55.290       546
55.300       426
55.310       453
55.320       573
55.330       546
55.340       520
55.350       506
55.360       360
55.370       493
55.380       440
55.390       466
55.400       373
55.410       466
55.420       387
55.430       520
55.440       347
55.450       360
55.460       426
55.470       333
55.480       426
55.490       493
55.500       333
55.510       480
55.520       360
55.530       466
55.540       493
55.550       387
55.560       440
55.570       347
55.580       520
55.590       400
55.600       520
55.610       387
55.620       280
55.630       453
55.640       560
55.650       493
55.660       387
55.670       426
55.680       440
55.690       320
55.700       360
55.710       307
55.720       440
55.730       426
55.740       413
55.750       493
55.760       373
55.770       413
55.780       520
55.790       533
55.800       400
55.810       506
55.820       466
55.830       493
55.840       506
55.850       373
55.860       267
55.870       400
55.880       573
55.890       586
55.900       480
55.910       480
55.920       413
55.930       480
55.940       466
55.950       426
55.960       307
55.970       413
55.980       267
55.990       333
56.000       347
56.010       333
56.020       320
56.030       413
56.040       347
56.050       293
56.060       453
56.070       360
56.080       506
56.090       307
56.100       440
56.110       373
56.120       400
56.130       307
56.140       347
56.150       320
56.160       466
56.170       546
56.180       333
56.190       333
56.200       360
56.210       333
56.220       413
56.230       440
56.240       307
56.250       373
56.260       293
56.270       360
56.280       240
56.290       426
56.300       333
56.310       360
56.320       480
56.330       453
56.340       147
56.350       400
56.360       600
56.370       293
56.380       333
56.390       320
56.400       373
56.410       347
56.420       506
56.430       440
56.440       187
56.450       267
56.460       347
56.470       426
56.480       293
56.490       493
56.500       440
56.510       413
56.520       267
56.530       200
56.540       227
56.550       400
56.560       413
56.570       320
56.580       426
56.590       373
56.600       400
56.610       280
56.620       506
56.630       347
56.640       347
56.650       320
56.660       533
56.670       373
56.680       347
56.690       387
56.700       373
56.710       240
56.720       453
56.730       373
56.740       400
56.750       240
56.760       400
56.770       307
56.780       413
56.790       466
56.800       360
56.810       360
56.820       240
56.830       253
56.840       360
56.850       360
56.860       280
56.870       267
56.880       413
56.890       293
56.900       293
56.910       280
56.920       293
56.930       280
56.940       413
56.950       333
56.960       413
56.970       347
56.980       293
56.990       387
57.000       280
57.010       267
57.020       360
57.030       347
57.040       333
57.050       347
57.060       360
57.070       360
57.080       413
57.090       213
57.100       360
57.110       333
57.120       360
57.130       267
57.140       440
57.150       213
57.160       307
57.170       347
57.180       280
57.190       293
57.200       253
57.210       347
57.220       333
57.230       320
57.240       373
57.250       400
57.260       293
57.270       240
57.280       453
57.290       333
57.300       320
57.310       307
57.320       227
57.330       360
57.340       320
57.350       400
57.360       320
57.370       200
57.380       373
57.390       280
57.400       426
57.410       480
57.420       307
57.430       360
57.440       213
57.450       253
57.460       267
57.470       347
57.480       200
57.490       267
57.500       333
57.510       333
57.520       280
57.530       280
57.540       267
57.550       293
57.560       280
57.570       267
57.580       293
57.590       293
57.600       387
57.610       200
57.620       307
57.630       320
57.640       307
57.650       253
57.660       293
57.670       240
57.680       200
57.690       240
57.700       307
57.710       347
57.720       267
57.730       293
57.740       227
57.750       333
57.760       213
57.770       213
57.780       253
57.790       333
57.800       333
57.810       387
57.820       253
57.830       333
57.840       267
57.850       293
57.860       293
57.870       267
57.880       227
57.890       227
57.900       293
57.910       160
57.920       347
57.930       320
57.940       267
57.950       227
57.960       213
57.970       360
57.980       333
57.990       213
58.000       360
58.010       213
58.020       360
58.030       413
58.040       280
58.050       200
58.060       373
58.070       253
58.080       307
58.090       253
58.100       227
58.110       280
58.120       227
58.130       187
58.140       240
58.150       333
58.160       307
58.170       280
58.180       240
58.190       293
58.200       400
58.210       320
58.220       267
58.230       267
58.240       213
58.250       213
58.260       307
58.270       387
58.280       347
58.290       187
58.300       333
58.310       293
58.320       147
58.330       253
58.340       293
58.350       293
58.360       307
58.370       333
58.380       227
58.390       373
58.400       333
58.410       280
58.420       307
58.430       267
58.440       333
58.450       307
58.460       267
58.470       200
58.480       333
58.490       200
58.500       267
58.510       280
58.520       227
58.530       160
58.540       280
58.550       267
58.560       280
58.570       240
58.580       240
58.590       173
58.600       267
58.610       280
58.620       120
58.630       173
58.640       227
58.650       347
58.660       187
58.670       227
58.680       240
58.690       333
58.700       347
58.710       267
58.720       307
58.730       267
58.740       213
58.750       293
58.760       333
58.770       387
58.780       253
58.790       267
58.800       267
58.810       293
58.820       213
58.830       240
58.840       200
58.850       187
58.860       147
58.870       253
58.880       240
58.890       387
58.900       253
58.910       280
58.920       293
58.930       240
58.940       253
58.950       253
58.960       240
58.970       280
58.980       347
58.990       213
59.000       200
59.010       213
59.020       213
59.030       173
59.040       213
59.050       213
59.060       267
59.070       240
59.080       187
59.090       227
59.100       307
59.110       213
59.120       227
59.130       213
59.140       280
59.150       280
59.160       200
59.170       267
59.180       173
59.190       267
59.200       213
59.210       307
59.220       293
59.230       347
59.240       320
59.250       240
59.260       227
59.270       293
59.280       333
59.290       293
59.300       200
59.310       347
59.320       120
59.330       213
59.340       173
59.350       240
59.360       267
59.370       200
59.380       213
59.390       253
59.400       240
59.410       293
59.420       213
59.430       227
59.440       227
59.450       147
59.460       173
59.470       240
59.480       213
59.490       187
59.500       160
59.510       173
59.520       187
59.530       227
59.540       160
59.550       200
59.560       187
59.570       280
59.580       200
59.590       267
59.600       173
59.610       227
59.620       320
59.630       253
59.640       213
59.650       253
59.660       307
59.670       280
59.680       293
59.690       240
59.700       347
59.710       200
59.720       160
59.730       213
59.740       280
59.750       293
59.760       240
59.770       227
59.780       240
59.790       200
59.800       320
59.810       253
59.820       200
59.830       200
59.840       187
59.850       187
59.860       240
59.870       227
59.880       147
59.890       213
59.900       200
59.910       213
59.920       213
59.930       200
59.940       200
59.950       267
59.960       240
59.970       213
59.980       160
59.990         0
60.000         0
