20.000        60
20.020        40
20.040        57
20.060        70
20.080        37
20.100        33
20.120        37
20.140        50
20.160        43
20.180        37
20.200        83
20.220        57
20.240        47
20.260        60
20.280        63
20.300        43
20.320        43
20.340        37
20.360        27
20.380        67
20.400        47
20.420        40
20.440        53
20.460        43
20.480        57
20.500        47
20.520        50
20.540        33
20.560        33
20.580        37
20.600        83
20.620        30
20.640        40
20.660        57
20.680        33
20.700        63
20.720        27
20.740        50
20.760        67
20.780        53
20.800        50
20.820        37
20.840        50
20.860        43
20.880        43
20.900        47
20.920        37
20.940        47
20.960        53
20.980        47
21.000        37
21.020        37
21.040        47
21.060        70
21.080        33
21.100        43
21.120        37
21.140        40
21.160        27
21.180        50
21.200        37
21.220        47
21.240        23
21.260        27
21.280        50
21.300        23
21.320        50
21.340        40
21.360        40
21.380        57
21.400        53
21.420        53
21.440        43
21.460        57
21.480        60
21.500        43
21.520        47
21.540        97
21.560        77
21.580       100
21.600       163
21.620       173
21.640       197
21.660       203
21.680       230
21.700       183
21.720       160
21.740       127
21.760       113
21.780        83
21.800        70
21.820       107
21.840        73
21.860        47
21.880        67
21.900        53
21.920        50
21.940        30
21.960        60
21.980        30
22.000        37
22.020        47
22.040        57
22.060        50
22.080        57
22.100        30
22.120        47
22.140        63
22.160        47
22.180        43
22.200        30
22.220        37
22.240        63
22.260        40
22.280        33
22.300        43
22.320        33
22.340        37
22.360        37
22.380        27
22.400        40
22.420        47
22.440        53
22.460        70
22.480        13
22.500        20
22.520        47
22.540        37
22.560        37
22.580        23
22.600        47
22.620        57
22.640        43
22.660        30
22.680        47
22.700        70
22.720        20
22.740        47
22.760        33
22.780        30
22.800        47
22.820        37
22.840        17
22.860        50
22.880        23
22.900        30
22.920        30
22.940        40
22.960        40
22.980        50
23.000        63
23.020        53
23.040        43
23.060        30
23.080        33
23.100        40
23.120        30
23.140        37
23.160        43
23.180        23
23.200        40
23.220        27
23.240        50
23.260        30
23.280        47
23.300        60
23.320        40
23.340        47
23.360        23
23.380        50
23.400        53
23.420        57
23.440        47
23.460        37
23.480        43
23.500        33
23.520        37
23.540        37
23.560        30
23.580        60
23.600        43
23.620        37
23.640        37
23.660        30
23.680        30
23.700        30
23.720        67
23.740        27
23.760        57
23.780        40
23.800        30
23.820        37
23.840        47
23.860        37
23.880        53
23.900        63
23.920        40
23.940        47
23.960        43
23.980        23
24.000        33
24.020        43
24.040        27
24.060        27
24.080        37
24.100        63
24.120        50
24.140        37
24.160        50
24.180        27
24.200        30
24.220        23
24.240        33
24.260        30
24.280        37
24.300        20
24.320        37
24.340        30
24.360        40
24.380        33
24.400        27
24.420        20
24.440        60
24.460        43
24.480        40
24.500        30
24.520        20
24.540        37
24.560        50
24.580        63
24.600        30
24.620        33
24.640        17
24.660        30
24.680        47
24.700        13
24.720        23
24.740        13
24.760        23
24.780        33
24.800        53
24.820        37
24.840        47
24.860        40
24.880        37
24.900        33
24.920        27
24.940        33
24.960        30
24.980        37
25.000        30
25.020        27
25.040        37
25.060        40
25.080        37
25.100        37
25.120        27
25.140        43
25.160        53
25.180        30
25.200        20
25.220        20
25.240        43
25.260        23
25.280        47
25.300        40
25.320        53
25.340        20
25.360        33
25.380        37
25.400        50
25.420        47
25.440        27
25.460        27
25.480        27
25.500        43
25.520        43
25.540        40
25.560        37
25.580        30
25.600        43
25.620        20
25.640        27
25.660        43
25.680        30
25.700        40
25.720        37
25.740        27
25.760        13
25.780        33
25.800        30
25.820        27
25.840        57
25.860        27
25.880        20
25.900        17
25.920        23
25.940        23
25.960        47
25.980        17
26.000        30
26.020        60
26.040        40
26.060        23
26.080        43
26.100        33
26.120        30
26.140        27
26.160        27
26.180        33
26.200        20
26.220        50
26.240        47
26.260        17
26.280        30
26.300        30
26.320        23
26.340        30
26.360        20
26.380        27
26.400        20
26.420        33
26.440        30
26.460        23
26.480        23
26.500        30
26.520        47
26.540        20
26.560        33
26.580        33
26.600        30
26.620        37
26.640        30
26.660        53
26.680        23
26.700        23
26.720        20
26.740        43
26.760        40
26.780        37
26.800        23
26.820        30
26.840        33
26.860        37
26.880        43
26.900        33
26.920        20
26.940        50
26.960        10
26.980        33
27.000        33
27.020        47
27.040        17
27.060        13
27.080        23
27.100        23
27.120        30
27.140        43
27.160        20
27.180        20
27.200        27
27.220        17
27.240        37
27.260        20
27.280        33
27.300        23
27.320        43
27.340        10
27.360        30
27.380        23
27.400        33
27.420        47
27.440        43
27.460        33
27.480        33
27.500        37
27.520        30
27.540        27
27.560        37
27.580        30
27.600        53
27.620        33
27.640        43
27.660        37
27.680        53
27.700        50
27.720        63
27.740        70
27.760        70
27.780        53
27.800        47
27.820        50
27.840        37
27.860        17
27.880        13
27.900        33
27.920        40
27.940        13
27.960        27
27.980        37
28.000        23
28.020        30
28.040        67
28.060        20
28.080        33
28.100        27
28.120        37
28.140        37
28.160        27
28.180        30
28.200        30
28.220        40
28.240        43
28.260        40
28.280        40
28.300        40
28.320        30
28.340        27
28.360        40
28.380        50
28.400        50
28.420        27
28.440        27
28.460        20
28.480        23
28.500        50
28.520        37
28.540        30
28.560        47
28.580        30
28.600        30
28.620        60
28.640        30
28.660        33
28.680        53
28.700        37
28.720        23
28.740        37
28.760        43
28.780        57
28.800        23
28.820        40
28.840        23
28.860        37
28.880        47
28.900        23
28.920        33
28.940        37
28.960        50
28.980        27
29.000        30
29.020        17
29.040        47
29.060        50
29.080        20
29.100        33
29.120        30
29.140        43
29.160        60
29.180        30
29.200        27
29.220        23
29.240        30
29.260        50
29.280        47
29.300        27
29.320        33
29.340        17
29.360        53
29.380        40
29.400        67
29.420        23
29.440        43
29.460        57
29.480        37
29.500        60
29.520        33
29.540        77
29.560        33
29.580        33
29.600        57
29.620        53
29.640        57
29.660        67
29.680        80
29.700        67
29.720        77
29.740        50
29.760        43
29.780        87
29.800        63
29.820        70
29.840        50
29.860        60
29.880        57
29.900        50
29.920        70
29.940        83
29.960        70
29.980        60
30.000       100
30.020        93
30.040        90
30.060        97
30.080        87
30.100        53
30.120        83
30.140        70
30.160       113
30.180       107
30.200       103
30.220       100
30.240       113
30.260       110
30.280       107
30.300       120
30.320       157
30.340       163
30.360       143
30.380       150
30.400       193
30.420       247
30.440       220
30.460       203
30.480       283
30.500       337
30.520       367
30.540       503
30.560       670
30.580       723
30.600       943
30.620      1150
30.640      1483
30.660      1949
30.680      2329
30.700      3342
30.720      4322
30.740      5091
30.760      5624
30.780      5698
30.800      5231
30.820      4122
30.840      3735
30.860      2952
30.880      2242
30.900      1636
30.920      1116
30.940       813
30.960       766
30.980       740
31.000       526
31.020       623
31.040       556
31.060       506
31.080       480
31.100       403
31.120       373
31.140       347
31.160       253
31.180       220
31.200       263
31.220       230
31.240       213
31.260       243
31.280       173
31.300       140
31.320       167
31.340       187
31.360       137
31.380       167
31.400       180
31.420       137
31.440       147
31.460       160
31.480        77
31.500       140
31.520       127
31.540       170
31.560       130
31.580       107
31.600       120
31.620       140
31.640       117
31.660       120
31.680        97
31.700        90
31.720       103
31.740       117
31.760       103
31.780       103
31.800        93
31.820       127
31.840        80
31.860        90
31.880       100
31.900        80
31.920        90
31.940        77
31.960        87
31.980        60
32.000        73
32.020        80
32.040        87
32.060       100
32.080        47
32.100       100
32.120        63
32.140        80
32.160        60
32.180        77
32.200        50
32.220        63
32.240        87
32.260        60
32.280        73
32.300        70
32.320        70
32.340        70
32.360        60
32.380        87
32.400        63
32.420        67
32.440        40
32.460        37
32.480        43
32.500        43
32.520        70
32.540        60
32.560        43
32.580        53
32.600        23
32.620        53
32.640        43
32.660        80
32.680        87
32.700        37
32.720        43
32.740        43
32.760        53
32.780        40
32.800        50
32.820        57
32.840        43
32.860        63
32.880        30
32.900        60
32.920        40
32.940        60
32.960        50
32.980        47
33.000        40
33.020        30
33.040        37
33.060        33
33.080        33
33.100        33
33.120        57
33.140        47
33.160        27
33.180        30
33.200        47
33.220        40
33.240        50
33.260        37
33.280        43
33.300        37
33.320        30
33.340        23
33.360        33
33.380        43
33.400        17
33.420        57
33.440        57
33.460        47
33.480        50
33.500        40
33.520        33
33.540        43
33.560        43
33.580        33
33.600        40
33.620        30
33.640        33
33.660        23
33.680        37
33.700        33
33.720        53
33.740         7
33.760        37
33.780        23
33.800        43
33.820        20
33.840        57
33.860        20
33.880        23
33.900        37
33.920        23
33.940        50
33.960        20
33.980        20
34.000        40
34.020        27
34.040        17
34.060        60
34.080        30
34.100        13
34.120        40
34.140        27
34.160        40
34.180        23
34.200        23
34.220        30
34.240        27
34.260        30
34.280        37
34.300        27
34.320        47
34.340        37
34.360        27
34.380        30
34.400        40
34.420        30
34.440        30
34.460        43
34.480        40
34.500        37
34.520        27
34.540        27
34.560        40
34.580        40
34.600        23
34.620        67
34.640        17
34.660        27
34.680        40
34.700        37
34.720        27
34.740        50
34.760        33
34.780        43
34.800        23
34.820        20
34.840        47
34.860        23
34.880        43
34.900        33
34.920        33
34.940        37
34.960        33
34.980        37
35.000        33
35.020        47
35.040        40
35.060        37
35.080        33
35.100        50
35.120        83
35.140       123
35.160        83
35.180        77
35.200        50
35.220        83
35.240        67
35.260        67
35.280        40
35.300        33
35.320        27
35.340        23
35.360        40
35.380        23
35.400        40
35.420        30
35.440        20
35.460        20
35.480        47
35.500        27
35.520        27
35.540        27
35.560        17
35.580        47
35.600        33
35.620        33
35.640        40
35.660        17
35.680        23
35.700        30
35.720        37
35.740        17
35.760        37
35.780        13
35.800        23
35.820        37
35.840        50
35.860        27
35.880        30
35.900        30
35.920        13
35.940        23
35.960        30
35.980        23
36.000        30
36.020        23
36.040        33
36.060        43
36.080        17
36.100        20
36.120        30
36.140        47
36.160        37
36.180        30
36.200        33
36.220        17
36.240        17
36.260        43
36.280        13
36.300        20
36.320        20
36.340        23
36.360        40
36.380        17
36.400        20
36.420        33
36.440        13
36.460        27
36.480        30
36.500        33
36.520        40
36.540        27
36.560        33
36.580        13
36.600        33
36.620        17
36.640        40
36.660        20
36.680        27
36.700        47
36.720        40
36.740        23
36.760         7
36.780        27
36.800        17
36.820        33
36.840        27
36.860        13
36.880        43
36.900        40
36.920        33
36.940        30
36.960        40
36.980        37
37.000        37
37.020        40
37.040        20
37.060        27
37.080        37
37.100        30
37.120        57
37.140        30
37.160        40
37.180        43
37.200        40
37.220        13
37.240        37
37.260        40
37.280        33
37.300        30
37.320        33
37.340        33
37.360        40
37.380        37
37.400        53
37.420        27
37.440        40
37.460        40
37.480        50
37.500        37
37.520        27
37.540        67
37.560        43
37.580        33
37.600        70
37.620        77
37.640        93
37.660        70
37.680        77
37.700       100
37.720        83
37.740       133
37.760       157
37.780       140
37.800       203
37.820       260
37.840       313
37.860       280
37.880       350
37.900       410
37.920       546
37.940       596
37.960       633
37.980       786
38.000       690
38.020       713
38.040       576
38.060       493
38.080       573
38.100       470
38.120       333
38.140       327
38.160       283
38.180       197
38.200       173
38.220       190
38.240       157
38.260       170
38.280       150
38.300       147
38.320       133
38.340       107
38.360       103
38.380       117
38.400        87
38.420        67
38.440        63
38.460        60
38.480        80
38.500        50
38.520        53
38.540        37
38.560        77
38.580        53
38.600        47
38.620        67
38.640        37
38.660        30
38.680        60
38.700        40
38.720        40
38.740        47
38.760        37
38.780        23
38.800        40
38.820        37
38.840        43
38.860        43
38.880        63
38.900        67
38.920        47
38.940        40
38.960        60
38.980        50
39.000        33
39.020        23
39.040        20
39.060        33
39.080        43
39.100         7
39.120        27
39.140        37
39.160        43
39.180        40
39.200        43
39.220        20
39.240        63
39.260        40
39.280        57
39.300        27
39.320        27
39.340        10
39.360        33
39.380        23
39.400        13
39.420        33
39.440        17
39.460        37
39.480        20
39.500        27
39.520        30
39.540        33
39.560        37
39.580        27
39.600        53
39.620        27
39.640        37
39.660        40
39.680        50
39.700        23
39.720        17
39.740        33
39.760        27
39.780        47
39.800        47
39.820        37
39.840        47
39.860        33
39.880        33
39.900        10
39.920        27
39.940        17
39.960        17
39.980        27
40.000        13
40.020        27
40.040        23
40.060        23
40.080        23
40.100        20
40.120        27
40.140        20
40.160        37
40.180        27
40.200        13
40.220        30
40.240        30
40.260        33
40.280        20
40.300        20
40.320        43
40.340        23
40.360        30
40.380        27
40.400        20
40.420        30
40.440        27
40.460        13
40.480        43
40.500        13
40.520        27
40.540        17
40.560        47
40.580        23
40.600        23
40.620        33
40.640        27
40.660        33
40.680        20
40.700        33
40.720        33
40.740        20
40.760        13
40.780        33
40.800        33
40.820        17
40.840        33
40.860        20
40.880        33
40.900        17
40.920         7
40.940        30
40.960        27
40.980        37
41.000        20
41.020        17
41.040        23
41.060        10
41.080        20
41.100        20
41.120        20
41.140        10
41.160        23
41.180        33
41.200        23
41.220        30
41.240        20
41.260        23
41.280        17
41.300        30
41.320        47
41.340        17
41.360        33
41.380        23
41.400        27
41.420        33
41.440        23
41.460        23
41.480        23
41.500        27
41.520        43
41.540        30
41.560        20
41.580        23
41.600         3
41.620        17
41.640        73
41.660        60
41.680        50
41.700        67
41.720        53
41.740        63
41.760        30
41.780        43
41.800        60
41.820        33
41.840        43
41.860        33
41.880        20
41.900        20
41.920        30
41.940        43
41.960        17
41.980        20
42.000        13
42.020        10
42.040        30
42.060        20
42.080        23
42.100         7
42.120        47
42.140        27
42.160        30
42.180        23
42.200        33
42.220        27
42.240        33
42.260        30
42.280        33
42.300        20
42.320        20
42.340        20
42.360        20
42.380        23
42.400        27
42.420        13
42.440        17
42.460        30
42.480        33
42.500        20
42.520        20
42.540        23
42.560        30
42.580        30
42.600        10
42.620        27
42.640        17
42.660        47
42.680        20
42.700        23
42.720        17
42.740        33
42.760        37
42.780        33
42.800        27
42.820        13
42.840        30
42.860        27
42.880        20
42.900        20
42.920        40
42.940        20
42.960        13
42.980        23
43.000        20
43.020        10
43.040        23
43.060        37
43.080        37
43.100        17
43.120        23
43.140        17
43.160        20
43.180        23
43.200        40
43.220        20
43.240        30
43.260        37
43.280        27
43.300        33
43.320        37
43.340        53
43.360        53
43.380        70
43.400        87
43.420        67
43.440        30
43.460        33
43.480        47
43.500        50
43.520        53
43.540        60
43.560        70
43.580        30
43.600        43
43.620        40
43.640        37
43.660        20
43.680        60
43.700        43
43.720        40
43.740        70
43.760        57
43.780        67
43.800        87
43.820        93
43.840       103
43.860        97
43.880       113
43.900       127
43.920       140
43.940       187
43.960       210
43.980       220
44.000       333
44.020       380
44.040       456
44.060       553
44.080       613
44.100       726
44.120       710
44.140       610
44.160       686
44.180       646
44.200       573
44.220       473
44.240       423
44.260       387
44.280       280
44.300       260
44.320       237
44.340       183
44.360       177
44.380       153
44.400       130
44.420       140
44.440       137
44.460       117
44.480       123
44.500        90
44.520        67
44.540        60
44.560        80
44.580        80
44.600        63
44.620        57
44.640        53
44.660        57
44.680        50
44.700        57
44.720        60
44.740        43
44.760        33
44.780        27
44.800        63
44.820        27
44.840        20
44.860        60
44.880        47
44.900        53
44.920        50
44.940        40
44.960        40
44.980        23
45.000        50
45.020        27
45.040        27
45.060        23
45.080        57
45.100        23
45.120        23
45.140        30
45.160        17
45.180        30
45.200        40
45.220        40
45.240        30
45.260        37
45.280        40
45.300        23
45.320        23
45.340        23
45.360        40
45.380        13
45.400        33
45.420        37
45.440        13
45.460        20
45.480        20
45.500        30
45.520        43
45.540        40
45.560        33
45.580        13
45.600        30
45.620        33
45.640        23
45.660        23
45.680        30
45.700        17
45.720        20
45.740        23
45.760        20
45.780        40
45.800        30
45.820        23
45.840        43
45.860        27
45.880        13
45.900        17
45.920        33
45.940        30
45.960        13
45.980        27
46.000        13
46.020        27
46.040        23
46.060        13
46.080        23
46.100        27
46.120        20
46.140        37
46.160        17
46.180         7
46.200        30
46.220        20
46.240        33
46.260        17
46.280        20
46.300        23
46.320        23
46.340        10
46.360        23
46.380        17
46.400        30
46.420        23
46.440         7
46.460        23
46.480        23
46.500        23
46.520        23
46.540        20
46.560        13
46.580        13
46.600        30
46.620        23
46.640        20
46.660        27
46.680        23
46.700        30
46.720        17
46.740        27
46.760        53
46.780        10
46.800        27
46.820        23
46.840        40
46.860        30
46.880        17
46.900        23
46.920        20
46.940        13
46.960        17
46.980        30
47.000        23
47.020        30
47.040        10
47.060        23
47.080        20
47.100        27
47.120        23
47.140        37
47.160        23
47.180        30
47.200        20
47.220        33
47.240        30
47.260        13
47.280        20
47.300        27
47.320        10
47.340        13
47.360        17
47.380         3
47.400        40
47.420         7
47.440        30
47.460        10
47.480        17
47.500        20
47.520        20
47.540        17
47.560        20
47.580        20
47.600        23
47.620        17
47.640        17
47.660        20
47.680        13
47.700        23
47.720        17
47.740        17
47.760        10
47.780        17
47.800        20
47.820        10
47.840        23
47.860        13
47.880        13
47.900        10
47.920        20
47.940        13
47.960        13
47.980        17
48.000         3
48.020        23
48.040        37
48.060        23
48.080        13
48.100        37
48.120        13
48.140        20
48.160         0
48.180        10
48.200        10
48.220        10
48.240        13
48.260        13
48.280        37
48.300        10
48.320        20
48.340        20
48.360        33
48.380        17
48.400        23
48.420        33
48.440        23
48.460        20
48.480        17
48.500         7
48.520        10
48.540        20
48.560        10
48.580        17
48.600        17
48.620        13
48.640        17
48.660        17
48.680        13
48.700        17
48.720        13
48.740        23
48.760        27
48.780        33
48.800        20
48.820         7
48.840        23
48.860        20
48.880        30
48.900        30
48.920         7
48.940        10
48.960        30
48.980        10
49.000        23
49.020        17
49.040        27
49.060        23
49.080        17
49.100        20
49.120         3
49.140         7
49.160        30
49.180        17
49.200        10
49.220        13
49.240        10
49.260        37
49.280        17
49.300        20
49.320        27
49.340        20
49.360        23
49.380         7
49.400        13
49.420        23
49.440        17
49.460        27
49.480        20
49.500        20
49.520        10
49.540         0
49.560        20
49.580        30
49.600        23
49.620        23
49.640        17
49.660        17
49.680        20
49.700        33
49.720        13
49.740        10
49.760        27
49.780         3
49.800        17
49.820        17
49.840        23
49.860        17
49.880        10
49.900        13
49.920        17
49.940        30
49.960        30
49.980        10
50.000        10
50.020        27
50.040        13
50.060        13
50.080         7
50.100        27
50.120        10
50.140        27
50.160        17
50.180        17
50.200        10
50.220         3
50.240        13
50.260        40
50.280        20
50.300         7
50.320        23
50.340        23
50.360         7
50.380        10
50.400        10
50.420         7
50.440        23
50.460        20
50.480        23
50.500        10
50.520        17
50.540        20
50.560        13
50.580        23
50.600        27
50.620        13
50.640         7
50.660        27
50.680        23
50.700        20
50.720        30
50.740        47
50.760        33
50.780        20
50.800        23
50.820        33
50.840        30
50.860        20
50.880        23
50.900        17
50.920        17
50.940        20
50.960        17
50.980        27
51.000        20
51.020        13
51.040        13
51.060        20
51.080        33
51.100        10
51.120         3
51.140        23
51.160        40
51.180        13
51.200        13
51.220        33
51.240         7
51.260        13
51.280        30
51.300        20
51.320        13
51.340        17
51.360         7
51.380        13
51.400        10
51.420        30
51.440        23
51.460        20
51.480        10
51.500        10
51.520        13
51.540        30
51.560        10
51.580        13
51.600        13
51.620        13
51.640        20
51.660        13
51.680        27
51.700         7
51.720        17
51.740        20
51.760        23
51.780         7
51.800        20
51.820         7
51.840        23
51.860        20
51.880         7
51.900        27
51.920        33
51.940        23
51.960        23
51.980        23
52.000        10
52.020         7
52.040        17
52.060        27
52.080        17
52.100        13
52.120        20
52.140        23
52.160        20
52.180        20
52.200         3
52.220        37
52.240        13
52.260        17
52.280        13
52.300        17
52.320        37
52.340        13
52.360        17
52.380        13
52.400         3
52.420        33
52.440        17
52.460        13
52.480        17
52.500        40
52.520        37
52.540        63
52.560        67
52.580       113
52.600       153
52.620        90
52.640        37
52.660        37
52.680        30
52.700        63
52.720        67
52.740        93
52.760        50
52.780        40
52.800        23
52.820        23
52.840        13
52.860         7
52.880        20
52.900        17
52.920        20
52.940        20
52.960        23
52.980        30
53.000         3
53.020        17
53.040        20
53.060        13
53.080        10
53.100        30
53.120        17
53.140        10
53.160        23
53.180        23
53.200        17
53.220        13
53.240         7
53.260        17
53.280        20
53.300        10
53.320        17
53.340        17
53.360        20
53.380        13
53.400        10
53.420        20
53.440        10
53.460        13
53.480        17
53.500        33
53.520        20
53.540        17
53.560        17
53.580        20
53.600        17
53.620        10
53.640        23
53.660        17
53.680         7
53.700        13
53.720         7
53.740        23
53.760        17
53.780        23
53.800        17
53.820        20
53.840        17
53.860         7
53.880        20
53.900        20
53.920        13
53.940        17
53.960        10
53.980        10
54.000        17
54.020        23
54.040        23
54.060        23
54.080        13
54.100        10
54.120        10
54.140         7
54.160        20
54.180        23
54.200        13
54.220        13
54.240        13
54.260        10
54.280        17
54.300        13
54.320         7
54.340        27
54.360        27
54.380        33
54.400        17
54.420        37
54.440        20
54.460        27
54.480        33
54.500        27
54.520        23
54.540        33
54.560        30
54.580        23
54.600        37
54.620        57
54.640        57
54.660        57
54.680        40
54.700        50
54.720        40
54.740        77
54.760        73
54.780        77
54.800        47
54.820        73
54.840        83
54.860        50
54.880        37
54.900        57
54.920        47
54.940        57
54.960        33
54.980        60
55.000        50
55.020        30
55.040        30
55.060        50
55.080        40
55.100        57
55.120        43
55.140        17
55.160        47
55.180        40
55.200        30
55.220        53
55.240        40
55.260        43
55.280        30
55.300        40
55.320        27
55.340        27
55.360        43
55.380        23
55.400        30
55.420        43
55.440        27
55.460        23
55.480        13
55.500        13
55.520        40
55.540        23
55.560        17
55.580        20
55.600        33
55.620        20
55.640        13
55.660        17
55.680        27
55.700        37
55.720        10
55.740        23
55.760        20
55.780        13
55.800        23
55.820        13
55.840        30
55.860        17
55.880        10
55.900        20
55.920        23
55.940        20
55.960        17
55.980        10
56.000        27
56.020        13
56.040        17
56.060         7
56.080        13
56.100        20
56.120         7
56.140        17
56.160        10
56.180        20
56.200        17
56.220        17
56.240        20
56.260        30
56.280        17
56.300        20
56.320        17
56.340        17
56.360        27
56.380        20
56.400        17
56.420         3
56.440        20
56.460        20
56.480        13
56.500        23
56.520        20
56.540        27
56.560        13
56.580        10
56.600        10
56.620        17
56.640        13
56.660         7
56.680        17
56.700         3
56.720        17
56.740        20
56.760        13
56.780        20
56.800        13
56.820        10
56.840        13
56.860        13
56.880        10
56.900        27
56.920        10
56.940        13
56.960        23
56.980         7
57.000         7
57.020        10
57.040         7
57.060        23
57.080        17
57.100        17
57.120        17
57.140        27
57.160        20
57.180        17
57.200         3
57.220        23
57.240        33
57.260        10
57.280        13
57.300        20
57.320        10
57.340        17
57.360        23
57.380        43
57.400        17
57.420        47
57.440        43
57.460       107
57.480       100
57.500       153
57.520       227
57.540       187
57.560       150
57.580        60
57.600        67
57.620        53
57.640        40
57.660        93
57.680       123
57.700        90
57.720        70
57.740        60
57.760        50
57.780        20
57.800        27
57.820        23
57.840        17
57.860        13
57.880        13
57.900        27
57.920        10
57.940        17
57.960        17
57.980        23
58.000        10
58.020        27
58.040        20
58.060         0
58.080        13
58.100        17
58.120        10
58.140         7
58.160        20
58.180        20
58.200        23
58.220        10
58.240        17
58.260         7
58.280         7
58.300        10
58.320        30
58.340        23
58.360         7
58.380        20
58.400        17
58.420        13
58.440        10
58.460         7
58.480        17
58.500        17
58.520        13
58.540         7
58.560        10
58.580        23
58.600        27
58.620         7
58.640        17
58.660        13
58.680        13
58.700        27
58.720        20
58.740        17
58.760        10
58.780        13
58.800        23
58.820         3
58.840        10
58.860        13
58.880        13
58.900        10
58.920        20
58.940         7
58.960        17
58.980        20
59.000        13
59.020        20
59.040        10
59.060        20
59.080        13
59.100         7
59.120        23
59.140         7
59.160        13
59.180        20
59.200        13
59.220        13
59.240        10
59.260        13
59.280        17
59.300        13
59.320        10
59.340        20
59.360        20
59.380        10
59.400        17
59.420        13
59.440        13
59.460        13
59.480        13
59.500        23
59.520        10
59.540        17
59.560         3
59.580        10
59.600        17
59.620        13
59.640         7
59.660        27
59.680        23
59.700        23
59.720        10
59.740        23
59.760        20
59.780         3
59.800        13
59.820        23
59.840        17
59.860         7
59.880        27
59.900        13
59.920        13
59.940         7
59.960        17
59.980        10
60.000        10
