20.000         0
20.010         0
20.020        13
20.030        53
20.040        40
20.050        80
20.060        67
20.070        13
20.080        40
20.090        40
20.100        13
20.110        67
20.120        40
20.130        67
20.140        40
20.150        27
20.160        67
20.170        40
20.180        27
20.190        80
20.200        13
20.210        13
20.220        40
20.230        13
20.240        67
20.250        53
20.260        27
20.270       120
20.280        27
20.290        27
20.300        93
20.310        53
20.320        80
20.330        53
20.340        40
20.350        40
20.360        53
20.370        67
20.380        13
20.390        27
20.400        53
20.410        27
20.420        40
20.430        27
20.440        53
20.450        67
20.460        27
20.470        67
20.480        53
20.490        13
20.500        27
20.510        67
20.520        13
20.530        53
20.540        27
20.550         0
20.560        53
20.570        53
20.580        40
20.590        93
20.600        40
20.610        40
20.620        53
20.630        40
20.640        13
20.650        40
20.660        13
20.670        27
20.680         0
20.690        13
20.700        13
20.710        40
20.720        40
20.730        27
20.740        40
20.750        13
20.760        67
20.770        27
20.780        53
20.790        40
20.800        40
20.810        13
20.820        27
20.830        27
20.840        27
20.850        40
20.860        13
20.870        27
20.880        53
20.890        13
20.900        40
20.910        67
20.920        40
20.930        53
20.940        67
20.950        13
20.960        27
20.970        53
20.980       107
20.990        27
21.000        40
21.010         0
21.020        40
21.030        13
21.040        27
21.050        40
21.060        13
21.070        40
21.080        93
21.090        53
21.100        27
21.110        40
21.120        27
21.130         0
21.140        40
21.150        27
21.160        80
21.170        27
21.180        40
21.190        53
21.200         0
21.210        27
21.220        67
21.230        67
21.240        13
21.250        53
21.260        13
21.270        53
21.280        27
21.290        13
21.300        53
21.310        27
21.320         0
21.330        67
21.340        53
21.350        53
21.360         0
21.370        67
21.380        27
21.390        40
21.400         0
21.410        67
21.420        27
21.430        40
21.440        27
21.450        53
21.460        67
21.470        93
21.480        40
21.490        27
21.500        40
21.510        40
21.520        27
21.530        40
21.540        13
21.550        53
21.560        13
21.570        40
21.580        13
21.590         0
21.600         0
21.610        40
21.620        13
21.630        27
21.640        40
21.650        67
21.660        27
21.670        40
21.680        67
21.690        80
21.700         0
21.710        53
21.720        27
21.730        27
21.740        53
21.750        27
21.760        27
21.770        40
21.780        40
21.790       120
21.800        27
21.810        53
21.820        27
21.830        67
21.840        27
21.850        40
21.860        67
21.870        40
21.880         0
21.890        40
21.900        40
21.910        53
21.920        80
21.930        67
21.940        67
21.950        13
21.960        40
21.970        53
21.980        40
21.990        40
22.000        27
22.010        13
22.020        80
22.030        53
22.040        53
22.050        53
22.060        40
22.070        27
22.080        53
22.090         0
22.100        80
22.110        53
22.120        53
22.130        80
22.140        27
22.150        27
22.160        40
22.170        53
22.180        27
22.190        93
22.200        93
22.210        40
22.220        40
22.230        53
22.240        40
22.250        27
22.260        27
22.270        40
22.280        40
22.290        53
22.300        40
22.310        40
22.320        13
22.330        13
22.340        27
22.350        40
22.360        53
22.370        13
22.380        67
22.390        13
22.400        13
22.410        67
22.420        27
22.430        40
22.440        13
22.450        53
22.460        27
22.470        40
22.480        13
22.490        13
22.500        80
22.510        40
22.520        13
22.530        67
22.540        27
22.550        27
22.560        80
22.570        13
22.580        27
22.590        40
22.600        27
22.610        27
22.620        40
22.630        13
22.640        53
22.650        53
22.660        40
22.670        40
22.680        40
22.690        40
22.700        13
22.710        27
22.720        80
22.730        53
22.740        40
22.750        27
22.760        40
22.770        40
22.780        80
22.790        27
22.800         0
22.810        53
22.820        40
22.830        67
22.840        40
22.850        67
22.860        13
22.870        40
22.880        27
22.890        27
22.900        27
22.910        13
22.920         0
22.930        53
22.940        13
22.950        40
22.960        27
22.970        27
22.980        40
22.990        53
23.000        13
23.010        40
23.020        53
23.030        53
23.040        40
23.050        53
23.060         0
23.070         0
23.080        13
23.090        27
23.100        40
23.110        40
23.120        13
23.130        53
23.140        27
23.150        13
23.160        93
23.170        67
23.180       107
23.190        53
23.200        13
23.210        27
23.220        40
23.230        27
23.240        53
23.250        67
23.260        13
23.270        67
23.280        67
23.290        13
23.300        27
23.310        53
23.320        53
23.330        13
23.340        67
23.350         0
23.360        53
23.370        53
23.380        40
23.390        13
23.400        13
23.410        53
23.420        53
23.430        27
23.440        27
23.450        27
23.460        80
23.470        13
23.480        13
23.490        93
23.500        53
23.510        27
23.520        40
23.530        40
23.540        27
23.550         0
23.560        40
23.570         0
23.580        40
23.590        40
23.600        53
23.610        27
23.620        53
23.630        53
23.640        40
23.650        40
23.660        13
23.670        40
23.680         0
23.690         0
23.700        53
23.710        40
23.720        40
23.730        67
23.740        27
23.750        53
23.760        27
23.770        40
23.780        27
23.790        27
23.800        13
23.810        53
23.820        27
23.830        13
23.840        13
23.850        40
23.860         0
23.870         0
23.880        80
23.890        13
23.900        13
23.910        27
23.920        53
23.930        53
23.940        53
23.950        13
23.960        27
23.970        13
23.980        40
23.990        27
24.000        53
24.010        27
24.020        40
24.030        40
24.040        27
24.050         0
24.060        27
24.070        40
24.080        53
24.090        40
24.100        40
24.110        27
24.120        67
24.130        27
24.140         0
24.150        27
24.160        13
24.170        80
24.180        27
24.190        27
24.200        67
24.210        53
24.220        53
24.230        40
24.240        40
24.250        13
24.260        13
24.270         0
24.280        13
24.290        40
24.300         0
24.310        27
24.320        27
24.330        53
24.340        40
24.350        27
24.360        27
24.370        40
24.380        53
24.390        53
24.400        40
24.410        27
24.420        13
24.430        27
24.440        27
24.450        40
24.460        13
24.470        40
24.480        53
24.490        13
24.500        13
24.510        40
24.520        13
24.530        27
24.540        27
24.550         0
24.560        27
24.570        27
24.580        40
24.590        13
24.600        13
24.610        27
24.620        13
24.630        53
24.640        40
24.650        53
24.660        13
24.670         0
24.680        27
24.690        27
24.700        13
24.710        53
24.720        27
24.730        13
24.740        53
24.750        93
24.760        53
24.770        40
24.780         0
24.790         0
24.800        53
24.810        40
24.820        27
24.830        53
24.840        27
24.850        53
24.860        27
24.870        13
24.880        40
24.890        27
24.900        40
24.910        53
24.920        40
24.930        40
24.940        27
24.950        40
24.960        40
24.970        67
24.980        67
24.990        40
25.000         0
25.010        40
25.020        40
25.030        53
25.040        40
25.050        40
25.060        13
25.070        27
25.080        40
25.090        27
25.100        27
25.110        27
25.120        27
25.130        53
25.140        13
25.150        40
25.160        40
25.170        27
25.180        53
25.190        27
25.200        53
25.210        27
25.220        13
25.230        13
25.240        67
25.250         0
25.260        40
25.270        40
25.280         0
25.290        13
25.300        40
25.310        53
25.320        40
25.330        40
25.340        53
25.350        27
25.360        27
25.370        53
25.380        53
25.390        53
25.400        13
25.410        27
25.420         0
25.430        40
25.440        13
25.450        67
25.460        27
25.470        40
25.480         0
25.490        40
25.500        40
25.510        40
25.520        27
25.530        27
25.540        67
25.550        27
25.560        27
25.570        80
25.580        67
25.590        13
25.600        27
25.610        67
25.620        27
25.630         0
25.640        80
25.650        27
25.660        27
25.670        13
25.680        27
25.690        27
25.700        13
25.710        27
25.720        40
25.730        13
25.740        13
25.750       107
25.760        27
25.770        27
25.780        40
25.790        27
25.800        53
25.810        40
25.820        13
25.830        40
25.840        53
25.850        53
25.860        40
25.870         0
25.880        27
25.890        27
25.900        80
25.910        40
25.920        27
25.930        13
25.940        27
25.950         0
25.960        67
25.970         0
25.980         0
25.990        13
26.000        53
26.010        27
26.020        13
26.030        13
26.040        13
26.050        13
26.060        40
26.070        53
26.080        40
26.090        27
26.100        53
26.110        27
26.120         0
26.130        40
26.140        53
26.150        80
26.160        13
26.170        27
26.180        13
26.190        40
26.200        27
26.210        53
26.220         0
26.230         0
26.240         0
26.250        40
26.260        80
26.270        13
26.280         0
26.290        40
26.300        13
26.310        67
26.320        13
26.330        13
26.340        40
26.350        13
26.360        27
26.370        27
26.380        40
26.390         0
26.400        40
26.410        67
26.420        13
26.430        27
26.440        13
26.450        13
26.460        27
26.470        40
26.480        40
26.490        13
26.500        40
26.510        13
26.520         0
26.530        53
26.540        27
26.550        40
26.560        13
26.570        40
26.580        27
26.590        67
26.600         0
26.610        13
26.620        13
26.630        13
26.640        53
26.650        40
26.660        27
26.670        13
26.680        40
26.690        13
26.700         0
26.710        13
26.720        27
26.730        27
26.740        27
26.750        40
26.760        27
26.770        13
26.780        40
26.790        13
26.800        27
26.810        13
26.820        27
26.830        40
26.840        13
26.850         0
26.860        27
26.870        27
26.880        40
26.890        67
26.900        53
26.910        53
26.920        53
26.930        13
26.940        13
26.950        27
26.960        27
26.970        53
26.980         0
26.990        13
27.000        40
27.010        27
27.020        27
27.030        27
27.040        53
27.050        27
27.060        27
27.070        27
27.080        13
27.090         0
27.100        13
27.110         0
27.120        93
27.130        40
27.140         0
27.150        67
27.160         0
27.170        67
27.180        13
27.190        13
27.200        13
27.210        40
27.220        40
27.230        13
27.240        13
27.250         0
27.260        40
27.270        27
27.280        13
27.290        27
27.300        67
27.310        27
27.320        40
27.330        13
27.340        27
27.350        27
27.360        13
27.370        53
27.380        53
27.390        40
27.400        13
27.410         0
27.420        27
27.430        67
27.440        27
27.450        40
27.460        53
27.470        40
27.480        40
27.490        13
27.500        13
27.510        27
27.520        27
27.530        27
27.540        27
27.550         0
27.560        13
27.570        27
27.580        27
27.590         0
27.600        13
27.610        40
27.620        13
27.630        27
27.640        13
27.650        13
27.660        40
27.670        40
27.680        27
27.690        27
27.700        40
27.710         0
27.720        27
27.730        27
27.740        40
27.750        40
27.760        27
27.770        53
27.780        53
27.790        27
27.800        27
27.810        27
27.820        13
27.830         0
27.840        40
27.850        27
27.860        67
27.870        27
27.880         0
27.890        27
27.900        27
27.910        53
27.920        27
27.930        40
27.940         0
27.950        13
27.960         0
27.970        13
27.980        27
27.990        27
28.000        13
28.010        27
28.020        27
28.030        13
28.040        40
28.050         0
28.060        40
28.070        13
28.080        53
28.090        40
28.100        27
28.110         0
28.120        40
28.130         0
28.140        27
28.150         0
28.160        27
28.170        13
28.180        13
28.190        13
28.200         0
28.210        53
28.220        53
28.230        13
28.240        40
28.250         0
28.260        27
28.270         0
28.280        27
28.290        40
28.300        53
28.310        27
28.320        13
28.330        40
28.340        53
28.350        13
28.360        80
28.370         0
28.380         0
28.390        67
28.400        27
28.410         0
28.420         0
28.430        27
28.440         0
28.450        27
28.460        27
28.470        53
28.480         0
28.490         0
28.500        13
28.510        13
28.520        40
28.530        40
28.540        27
28.550        27
28.560        40
28.570        13
28.580        27
28.590        40
28.600        13
28.610        67
28.620        27
28.630         0
28.640        53
28.650        40
28.660         0
28.670         0
28.680        27
28.690         0
28.700        13
28.710        40
28.720        27
28.730        40
28.740         0
28.750        27
28.760        40
28.770        40
28.780        27
28.790        67
28.800        67
28.810        13
28.820        40
28.830         0
28.840        40
28.850        13
28.860        40
28.870         0
28.880        27
28.890        27
28.900         0
28.910        27
28.920        40
28.930        13
28.940         0
28.950        27
28.960        27
28.970        27
28.980        40
28.990        27
29.000        27
29.010        53
29.020        27
29.030        13
29.040        13
29.050        40
29.060        27
29.070        27
29.080        40
29.090        93
29.100        13
29.110         0
29.120        27
29.130         0
29.140         0
29.150        13
29.160        13
29.170        40
29.180        13
29.190        27
29.200        40
29.210        13
29.220        13
29.230        27
29.240        27
29.250        80
29.260         0
29.270         0
29.280        13
29.290        13
29.300        27
29.310        27
29.320        27
29.330        27
29.340         0
29.350        27
29.360        53
29.370        13
29.380         0
29.390         0
29.400        13
29.410        13
29.420        27
29.430         0
29.440         0
29.450        13
29.460         0
29.470        13
29.480        40
29.490        53
29.500        27
29.510        67
29.520        13
29.530         0
29.540        53
29.550        13
29.560        13
29.570        27
29.580        13
29.590        27
29.600        13
29.610        80
29.620         0
29.630         0
29.640         0
29.650        27
29.660        13
29.670        27
29.680        13
29.690         0
29.700        53
29.710        13
29.720        13
29.730        40
29.740        27
29.750        27
29.760         0
29.770        53
29.780        27
29.790         0
29.800         0
29.810        27
29.820        13
29.830        40
29.840        27
29.850        27
29.860        27
29.870        27
29.880        27
29.890        53
29.900         0
29.910        40
29.920        13
29.930        40
29.940        13
29.950        27
29.960         0
29.970        13
29.980        13
29.990        13
30.000        27
30.010         0
30.020        27
30.030        53
30.040        13
30.050        80
30.060         0
30.070        13
30.080        13
30.090        27
30.100        13
30.110        27
30.120        40
30.130        13
30.140        13
30.150        27
30.160        27
30.170         0
30.180        27
30.190        13
30.200        13
30.210        40
30.220        27
30.230        53
30.240        40
30.250        13
30.260        13
30.270         0
30.280        13
30.290        80
30.300        27
30.310        40
30.320         0
30.330        27
30.340        40
30.350        27
30.360        27
30.370         0
30.380        53
30.390        27
30.400        40
30.410        67
30.420        13
30.430        27
30.440        27
30.450        13
30.460        53
30.470        40
30.480        27
30.490        13
30.500        40
30.510         0
30.520        40
30.530        53
30.540        53
30.550        27
30.560        40
30.570        27
30.580        40
30.590        27
30.600        40
30.610        13
30.620        27
30.630        40
30.640        53
30.650        13
30.660        13
30.670        27
30.680        27
30.690        13
30.700        13
30.710        13
30.720         0
30.730        27
30.740        40
30.750        13
30.760        13
30.770        13
30.780        80
30.790        27
30.800         0
30.810        40
30.820        13
30.830        80
30.840        27
30.850        27
30.860        13
30.870        27
30.880         0
30.890        27
30.900         0
30.910        53
30.920        67
30.930         0
30.940        13
30.950        40
30.960        13
30.970        13
30.980        13
30.990         0
31.000         0
31.010         0
31.020        13
31.030        13
31.040        80
31.050        27
31.060        13
31.070        13
31.080        13
31.090        40
31.100         0
31.110        27
31.120        27
31.130        13
31.140        27
31.150         0
31.160        27
31.170         0
31.180        13
31.190        13
31.200        40
31.210        13
31.220        27
31.230        13
31.240        27
31.250        80
31.260         0
31.270        40
31.280        40
31.290         0
31.300        13
31.310        13
31.320        13
31.330        27
31.340        40
31.350         0
31.360        40
31.370        27
31.380        13
31.390        53
31.400         0
31.410         0
31.420        40
31.430         0
31.440        27
31.450        13
31.460        27
31.470        27
31.480        13
31.490        53
31.500        53
31.510        13
31.520        13
31.530        40
31.540        13
31.550        27
31.560        27
31.570        13
31.580        40
31.590        27
31.600        27
31.610        27
31.620        13
31.630        53
31.640        53
31.650        53
31.660         0
31.670        27
31.680        53
31.690        40
31.700        40
31.710        40
31.720        53
31.730        27
31.740        27
31.750        13
31.760        27
31.770         0
31.780        27
31.790        13
31.800        13
31.810        27
31.820        40
31.830         0
31.840        53
31.850        13
31.860        80
31.870        53
31.880        40
31.890        13
31.900        13
31.910        40
31.920        27
31.930        53
31.940         0
31.950        93
31.960        27
31.970        40
31.980        53
31.990        13
32.000        53
32.010        27
32.020        80
32.030        67
32.040        27
32.050        27
32.060        53
32.070        40
32.080        40
32.090        67
32.100        53
32.110        53
32.120       107
32.130        67
32.140        67
32.150        40
32.160        80
32.170        93
32.180        80
32.190        93
32.200       120
32.210        53
32.220       107
32.230        80
32.240       120
32.250       120
32.260       187
32.270       107
32.280       187
32.290       160
32.300        93
32.310       133
32.320        80
32.330        80
32.340        67
32.350        27
32.360        53
32.370        80
32.380       120
32.390        67
32.400        53
32.410        27
32.420        67
32.430       107
32.440        40
32.450        40
32.460        27
32.470        13
32.480        80
32.490        40
32.500        53
32.510        27
32.520        13
32.530        40
32.540        13
32.550        27
32.560        40
32.570        27
32.580        27
32.590        27
32.600        13
32.610        27
32.620         0
32.630        40
32.640        27
32.650        13
32.660        40
32.670        13
32.680        13
32.690        40
32.700        13
32.710        13
32.720        13
32.730        13
32.740        40
32.750        27
32.760        13
32.770         0
32.780        27
32.790         0
32.800        13
32.810        27
32.820         0
32.830        13
32.840        40
32.850        27
32.860        27
32.870         0
32.880        13
32.890        13
32.900        13
32.910        13
32.920        40
32.930         0
32.940        40
32.950        27
32.960         0
32.970        13
32.980        13
32.990        40
33.000        13
33.010        53
33.020        13
33.030         0
33.040        40
33.050        40
33.060         0
33.070        67
33.080        27
33.090        27
33.100        27
33.110        27
33.120        40
33.130        40
33.140        27
33.150        13
33.160        27
33.170        13
33.180        40
33.190         0
33.200        13
33.210        13
33.220         0
33.230        13
33.240        27
33.250        13
33.260         0
33.270        27
33.280        27
33.290        13
33.300        27
33.310        13
33.320         0
33.330         0
33.340        27
33.350        13
33.360        27
33.370        27
33.380        27
33.390         0
33.400        40
33.410        13
33.420         0
33.430        27
33.440         0
33.450         0
33.460        27
33.470        13
33.480        40
33.490        40
33.500         0
33.510        53
33.520        27
33.530        27
33.540        13
33.550        13
33.560        27
33.570        53
33.580         0
33.590        67
33.600        13
33.610         0
33.620        13
33.630        13
33.640        13
33.650        13
33.660        40
33.670        27
33.680         0
33.690        53
33.700        53
33.710         0
33.720        13
33.730        40
33.740         0
33.750        13
33.760        13
33.770        13
33.780        40
33.790        27
33.800        13
33.810         0
33.820        27
33.830        13
33.840        27
33.850        13
33.860        13
33.870         0
33.880         0
33.890        27
33.900         0
33.910         0
33.920        27
33.930        13
33.940        27
33.950        27
33.960         0
33.970        27
33.980        13
33.990        40
34.000        27
34.010        27
34.020        40
34.030        27
34.040         0
34.050        13
34.060        27
34.070        53
34.080        27
34.090        27
34.100         0
34.110        13
34.120        27
34.130         0
34.140        40
34.150         0
34.160        27
34.170        27
34.180        13
34.190        67
34.200        13
34.210         0
34.220         0
34.230        13
34.240        27
34.250        13
34.260        13
34.270        27
34.280        27
34.290        27
34.300        27
34.310        40
34.320        13
34.330        53
34.340        53
34.350        27
34.360        13
34.370         0
34.380        13
34.390        40
34.400        13
34.410        40
34.420        53
34.430        40
34.440         0
34.450        13
34.460        27
34.470        40
34.480        40
34.490        67
34.500        27
34.510        13
34.520        53
34.530        27
34.540        13
34.550         0
34.560        27
34.570         0
34.580         0
34.590         0
34.600        40
34.610        13
34.620         0
34.630        40
34.640        27
34.650        13
34.660        27
34.670        27
34.680         0
34.690         0
34.700         0
34.710        40
34.720         0
34.730        13
34.740        13
34.750         0
34.760        27
34.770        40
34.780        13
34.790        13
34.800        27
34.810         0
34.820         0
34.830         0
34.840         0
34.850        40
34.860        13
34.870        40
34.880        13
34.890        53
34.900        27
34.910        40
34.920        13
34.930        13
34.940        40
34.950        13
34.960         0
34.970         0
34.980        13
34.990        13
35.000        13
35.010        13
35.020        27
35.030        53
35.040        27
35.050         0
35.060        53
35.070        27
35.080        67
35.090        13
35.100        27
35.110        53
35.120        27
35.130        53
35.140        27
35.150        53
35.160        80
35.170        40
35.180        80
35.190        13
35.200       133
35.210       147
35.220       173
35.230       107
35.240        93
35.250        40
35.260        40
35.270        27
35.280        67
35.290        53
35.300        13
35.310        13
35.320        80
35.330        40
35.340        40
35.350        67
35.360        40
35.370        13
35.380        13
35.390        40
35.400         0
35.410        53
35.420        53
35.430        27
35.440        40
35.450        13
35.460        27
35.470         0
35.480         0
35.490        27
35.500        13
35.510        40
35.520        13
35.530        13
35.540        27
35.550        13
35.560        13
35.570         0
35.580        27
35.590         0
35.600        27
35.610        27
35.620         0
35.630         0
35.640        40
35.650         0
35.660        27
35.670        53
35.680        13
35.690         0
35.700        40
35.710        13
35.720         0
35.730        27
35.740         0
35.750         0
35.760        13
35.770        27
35.780        13
35.790        13
35.800        27
35.810        27
35.820        53
35.830        27
35.840        27
35.850         0
35.860        13
35.870        27
35.880        13
35.890        27
35.900        40
35.910         0
35.920        27
35.930         0
35.940        53
35.950        27
35.960         0
35.970        13
35.980        27
35.990        27
36.000        13
36.010        13
36.020        13
36.030         0
36.040        53
36.050         0
36.060        27
36.070        27
36.080        27
36.090        67
36.100        27
36.110        27
36.120         0
36.130        27
36.140        13
36.150        13
36.160         0
36.170        13
36.180        40
36.190        27
36.200        27
36.210        13
36.220        13
36.230         0
36.240         0
36.250         0
36.260        13
36.270        13
36.280        27
36.290        13
36.300        13
36.310         0
36.320        53
36.330         0
36.340        13
36.350        13
36.360         0
36.370        27
36.380         0
36.390        13
36.400        13
36.410        13
36.420        27
36.430        13
36.440        27
36.450         0
36.460        13
36.470         0
36.480        40
36.490        27
36.500         0
36.510        27
36.520        13
36.530        13
36.540        53
36.550        13
36.560        13
36.570        13
36.580        13
36.590         0
36.600         0
36.610         0
36.620        13
36.630        27
36.640        40
36.650        40
36.660        13
36.670        80
36.680        13
36.690         0
36.700        27
36.710        13
36.720        27
36.730        13
36.740         0
36.750        27
36.760         0
36.770        53
36.780        13
36.790        13
36.800        13
36.810        53
36.820        53
36.830        27
36.840        27
36.850        13
36.860        53
36.870        13
36.880        40
36.890        67
36.900        27
36.910        40
36.920        80
36.930        80
36.940        53
36.950        27
36.960        27
36.970        67
36.980        40
36.990        13
37.000        27
37.010        27
37.020        67
37.030        13
37.040        93
37.050        27
37.060        80
37.070        27
37.080        40
37.090        27
37.100        53
37.110        27
37.120        53
37.130        40
37.140        13
37.150        40
37.160        80
37.170        53
37.180        27
37.190        13
37.200         0
37.210        27
37.220        53
37.230        27
37.240        13
37.250        67
37.260        40
37.270        13
37.280        27
37.290        40
37.300         0
37.310        13
37.320        13
37.330        67
37.340        40
37.350        27
37.360         0
37.370        53
37.380        13
37.390        13
37.400        27
37.410        13
37.420        13
37.430         0
37.440        27
37.450        27
37.460         0
37.470        13
37.480        13
37.490         0
37.500        13
37.510        80
37.520        27
37.530        27
37.540         0
37.550         0
37.560        13
37.570        13
37.580        40
37.590        27
37.600        13
37.610        27
37.620        40
37.630         0
37.640        13
37.650        27
37.660        27
37.670         0
37.680        40
37.690        13
37.700         0
37.710        40
37.720        13
37.730        53
37.740         0
37.750        53
37.760        40
37.770        27
37.780        40
37.790        27
37.800        27
37.810         0
37.820        53
37.830        13
37.840        27
37.850         0
37.860        13
37.870        13
37.880        13
37.890         0
37.900        40
37.910        27
37.920        13
37.930        27
37.940        13
37.950        27
37.960        13
37.970        13
37.980        67
37.990        27
38.000        13
38.010        13
38.020        53
38.030         0
38.040        13
38.050        13
38.060        13
38.070         0
38.080        13
38.090        13
38.100        13
38.110        13
38.120        53
38.130        13
38.140        13
38.150         0
38.160        53
38.170        27
38.180        27
38.190         0
38.200        27
38.210         0
38.220         0
38.230         0
38.240        13
38.250         0
38.260        13
38.270        27
38.280        13
38.290         0
38.300        13
38.310        40
38.320         0
38.330        13
38.340         0
38.350        13
38.360        13
38.370        27
38.380        13
38.390        27
38.400        40
38.410         0
38.420         0
38.430        13
38.440        13
38.450        13
38.460        53
38.470        40
38.480         0
38.490        13
38.500        13
38.510        13
38.520        40
38.530        13
38.540        13
38.550        13
38.560         0
38.570         0
38.580        27
38.590        40
38.600        13
38.610        40
38.620        13
38.630        27
38.640        27
38.650        13
38.660         0
38.670        13
38.680        67
38.690        13
38.700        27
38.710        13
38.720        27
38.730        40
38.740        53
38.750        40
38.760        67
38.770        27
38.780        13
38.790        13
38.800        27
38.810        27
38.820        27
38.830        13
38.840         0
38.850        13
38.860        53
38.870        67
38.880        13
38.890        27
38.900        13
38.910         0
38.920        40
38.930         0
38.940         0
38.950        13
38.960        27
38.970        27
38.980        27
38.990        13
39.000        13
39.010        53
39.020        53
39.030        27
39.040        80
39.050        40
39.060        40
39.070        27
39.080         0
39.090        40
39.100        13
39.110        40
39.120        40
39.130        13
39.140        53
39.150        53
39.160        67
39.170        13
39.180        13
39.190         0
39.200         0
39.210        27
39.220        13
39.230        27
39.240        27
39.250        40
39.260       120
39.270        40
39.280        27
39.290         0
39.300        40
39.310        80
39.320        53
39.330        13
39.340        27
39.350        27
39.360        13
39.370        53
39.380        53
39.390        67
39.400        80
39.410        53
39.420        53
39.430        40
39.440        40
39.450        40
39.460        40
39.470       107
39.480        13
39.490        67
39.500        67
39.510        80
39.520        67
39.530        53
39.540        93
39.550        40
39.560        53
39.570        53
39.580       160
39.590       133
39.600       107
39.610       107
39.620        80
39.630        67
39.640       187
39.650        93
39.660       200
39.670       160
39.680       120
39.690       213
39.700       200
39.710       213
39.720       187
39.730       133
39.740       160
39.750       200
39.760       200
39.770       120
39.780       160
39.790       213
39.800        93
39.810       173
39.820       240
39.830       200
39.840        93
39.850       147
39.860       120
39.870        93
39.880       107
39.890       120
39.900       160
39.910       147
39.920       120
39.930        40
39.940        67
39.950        80
39.960        80
39.970        80
39.980        40
39.990       107
40.000       107
40.010        80
40.020         0
40.030        53
40.040        67
40.050        53
40.060        27
40.070        80
40.080        13
40.090        27
40.100         0
40.110        27
40.120        53
40.130        67
40.140        40
40.150        40
40.160        27
40.170        40
40.180        40
40.190        27
40.200        40
40.210        27
40.220         0
40.230        27
40.240        67
40.250        67
40.260        13
40.270        27
40.280         0
40.290        13
40.300        27
40.310         0
40.320        13
40.330        40
40.340        40
40.350        13
40.360         0
40.370        13
40.380        13
40.390        27
40.400        40
40.410         0
40.420         0
40.430        40
40.440        40
40.450        13
40.460        40
40.470        27
40.480        27
40.490        27
40.500        40
40.510        27
40.520        27
40.530        27
40.540        13
40.550        13
40.560         0
40.570        27
40.580         0
40.590        13
40.600        27
40.610        27
40.620        13
40.630        53
40.640        40
40.650        13
40.660         0
40.670        27
40.680        27
40.690        40
40.700        27
40.710        27
40.720        13
40.730        13
40.740         0
40.750        27
40.760        27
40.770         0
40.780        27
40.790        27
40.800        27
40.810        13
40.820         0
40.830        13
40.840         0
40.850        40
40.860         0
40.870        13
40.880        27
40.890        40
40.900        27
40.910         0
40.920        13
40.930        13
40.940        27
40.950        40
40.960         0
40.970        13
40.980        53
40.990        13
41.000        13
41.010        40
41.020        27
41.030        13
41.040         0
41.050        53
41.060        13
41.070        27
41.080         0
41.090        53
41.100        27
41.110         0
41.120         0
41.130         0
41.140        40
41.150        27
41.160        27
41.170        80
41.180        27
41.190        13
41.200        40
41.210        40
41.220        27
41.230        27
41.240        13
41.250         0
41.260        27
41.270        13
41.280        13
41.290         0
41.300        53
41.310        13
41.320         0
41.330        13
41.340        13
41.350        27
41.360        80
41.370        27
41.380        13
41.390        67
41.400        27
41.410        13
41.420        40
41.430        67
41.440        40
41.450        93
41.460         0
41.470        27
41.480        27
41.490        53
41.500        67
41.510        27
41.520        67
41.530        13
41.540        13
41.550        13
41.560        53
41.570        40
41.580        40
41.590        93
41.600       147
41.610        93
41.620        67
41.630        40
41.640        67
41.650       107
41.660       200
41.670       173
41.680       133
41.690       147
41.700       187
41.710       107
41.720       200
41.730       200
41.740       347
41.750       133
41.760       213
41.770       187
41.780        80
41.790       133
41.800        80
41.810       107
41.820        80
41.830       147
41.840       173
41.850        67
41.860       147
41.870        80
41.880        93
41.890        27
41.900        80
41.910        40
41.920        53
41.930        27
41.940        40
41.950        40
41.960        13
41.970        53
41.980        27
41.990        13
42.000        27
42.010         0
42.020        40
42.030        40
42.040        13
42.050         0
42.060        53
42.070        27
42.080        13
42.090        13
42.100        53
42.110        27
42.120        13
42.130        40
42.140        27
42.150         0
42.160        13
42.170        13
42.180        40
42.190        13
42.200        13
42.210         0
42.220         0
42.230        13
42.240        27
42.250         0
42.260         0
42.270        53
42.280        13
42.290        13
42.300         0
42.310         0
42.320        27
42.330        40
42.340        40
42.350        13
42.360        13
42.370        13
42.380        27
42.390         0
42.400        13
42.410         0
42.420         0
42.430        13
42.440        13
42.450        27
42.460         0
42.470        13
42.480        53
42.490         0
42.500        13
42.510        13
42.520        67
42.530        13
42.540         0
42.550        27
42.560        27
42.570        13
42.580        13
42.590        40
42.600         0
42.610         0
42.620        13
42.630        27
42.640        13
42.650        53
42.660        13
42.670        40
42.680        13
42.690         0
42.700         0
42.710        27
42.720        13
42.730        40
42.740        13
42.750        13
42.760        27
42.770        13
42.780        40
42.790        13
42.800         0
42.810        40
42.820        40
42.830        40
42.840        53
42.850        13
42.860        13
42.870        13
42.880        13
42.890        13
42.900        13
42.910        27
42.920        13
42.930        67
42.940        27
42.950        27
42.960        13
42.970        13
42.980         0
42.990         0
43.000         0
43.010        13
43.020        13
43.030        40
43.040        67
43.050        27
43.060         0
43.070         0
43.080        27
43.090        27
43.100        40
43.110        27
43.120        27
43.130        27
43.140        13
43.150        13
43.160        13
43.170        13
43.180        27
43.190        13
43.200        13
43.210        27
43.220        27
43.230         0
43.240        67
43.250        40
43.260        13
43.270        67
43.280        53
43.290        27
43.300        27
43.310        13
43.320        40
43.330        53
43.340        93
43.350        53
43.360        13
43.370        53
43.380       107
43.390        80
43.400        93
43.410        27
43.420       107
43.430        80
43.440        53
43.450        40
43.460        53
43.470        93
43.480        13
43.490        27
43.500        80
43.510        40
43.520        40
43.530        80
43.540        53
43.550        67
43.560        53
43.570        40
43.580        27
43.590         0
43.600        40
43.610        40
43.620        13
43.630        27
43.640        27
43.650         0
43.660        27
43.670        13
43.680         0
43.690        40
43.700         0
43.710        27
43.720        27
43.730         0
43.740        27
43.750         0
43.760        13
43.770        13
43.780        13
43.790        13
43.800        27
43.810         0
43.820        13
43.830        13
43.840        13
43.850        13
43.860        27
43.870        13
43.880        13
43.890        27
43.900         0
43.910         0
43.920        40
43.930        27
43.940        13
43.950         0
43.960        27
43.970         0
43.980        13
43.990        27
44.000        27
44.010        27
44.020        13
44.030        27
44.040         0
44.050        13
44.060        27
44.070         0
44.080        27
44.090        27
44.100        27
44.110         0
44.120        27
44.130        13
44.140        27
44.150        13
44.160        40
44.170        27
44.180        27
44.190        40
44.200         0
44.210        13
44.220        13
44.230        40
44.240        13
44.250         0
44.260        53
44.270        13
44.280         0
44.290        27
44.300        53
44.310        40
44.320         0
44.330        27
44.340        27
44.350        27
44.360        13
44.370         0
44.380         0
44.390         0
44.400        27
44.410        27
44.420        40
44.430        27
44.440        40
44.450        40
44.460        40
44.470        27
44.480        13
44.490        27
44.500        27
44.510        27
44.520        27
44.530        53
44.540        13
44.550        13
44.560        27
44.570        13
44.580        27
44.590        27
44.600        40
44.610        27
44.620         0
44.630        27
44.640        27
44.650        13
44.660        13
44.670        13
44.680        13
44.690        13
44.700         0
44.710        40
44.720        13
44.730        13
44.740         0
44.750        13
44.760         0
44.770        53
44.780        13
44.790        13
44.800        13
44.810        40
44.820        40
44.830         0
44.840        13
44.850        13
44.860        40
44.870        13
44.880        13
44.890        40
44.900        27
44.910         0
44.920        27
44.930        40
44.940        93
44.950        13
44.960        27
44.970        27
44.980        27
44.990         0
45.000        13
45.010        27
45.020        27
45.030        13
45.040        27
45.050        13
45.060        13
45.070        13
45.080        27
45.090        13
45.100        13
45.110        40
45.120        13
45.130         0
45.140        13
45.150        13
45.160         0
45.170        13
45.180        13
45.190        13
45.200        27
45.210        13
45.220        27
45.230         0
45.240        13
45.250        13
45.260        27
45.270        53
45.280        13
45.290        13
45.300         0
45.310         0
45.320        13
45.330         0
45.340        13
45.350        27
45.360        27
45.370         0
45.380        27
45.390         0
45.400        27
45.410        27
45.420        27
45.430        27
45.440         0
45.450        13
45.460        40
45.470         0
45.480        13
45.490        13
45.500        53
45.510        13
45.520        13
45.530        27
45.540        27
45.550        40
45.560         0
45.570         0
45.580        13
45.590         0
45.600        13
45.610        27
45.620         0
45.630         0
45.640        13
45.650         0
45.660         0
45.670        13
45.680        13
45.690        53
45.700        13
45.710        27
45.720        13
45.730         0
45.740        53
45.750        13
45.760        40
45.770         0
45.780        27
45.790        27
45.800         0
45.810        27
45.820        13
45.830        67
45.840        13
45.850        13
45.860        13
45.870        27
45.880        13
45.890        13
45.900        27
45.910        53
45.920        13
45.930         0
45.940        13
45.950        40
45.960         0
45.970        13
45.980         0
45.990        13
46.000        40
46.010        27
46.020        13
46.030        40
46.040        53
46.050         0
46.060         0
46.070         0
46.080         0
46.090        40
46.100        13
46.110         0
46.120        27
46.130        27
46.140        27
46.150        13
46.160        27
46.170        40
46.180         0
46.190        13
46.200        13
46.210        13
46.220        40
46.230        13
46.240        40
46.250        27
46.260        13
46.270        27
46.280        27
46.290        27
46.300        27
46.310        13
46.320        27
46.330        13
46.340        13
46.350        27
46.360        27
46.370        27
46.380        27
46.390        67
46.400        13
46.410        40
46.420        67
46.430        27
46.440        80
46.450         0
46.460         0
46.470         0
46.480        13
46.490        27
46.500        13
46.510         0
46.520        27
46.530        40
46.540        40
46.550        13
46.560        40
46.570         0
46.580        13
46.590        27
46.600        13
46.610         0
46.620        40
46.630        13
46.640        27
46.650        27
46.660        13
46.670         0
46.680        67
46.690        40
46.700        13
46.710         0
46.720        53
46.730        40
46.740        13
46.750        13
46.760        40
46.770        13
46.780        13
46.790         0
46.800        13
46.810        27
46.820        13
46.830        13
46.840        40
46.850        53
46.860        13
46.870        13
46.880         0
46.890        13
46.900        27
46.910        13
46.920        53
46.930        40
46.940        13
46.950        13
46.960        27
46.970         0
46.980        27
46.990        40
47.000         0
47.010        27
47.020        13
47.030        40
47.040        53
47.050         0
47.060        13
47.070        13
47.080        27
47.090        13
47.100        40
47.110        53
47.120        40
47.130        13
47.140        40
47.150        27
47.160         0
47.170         0
47.180        13
47.190        27
47.200        53
47.210        40
47.220        13
47.230        13
47.240        40
47.250        40
47.260        40
47.270        40
47.280        27
47.290        40
47.300        27
47.310        13
47.320         0
47.330        27
47.340        40
47.350         0
47.360         0
47.370        13
47.380        27
47.390        13
47.400        27
47.410        13
47.420        13
47.430        13
47.440        13
47.450        53
47.460        13
47.470        27
47.480        13
47.490        27
47.500        13
47.510         0
47.520        13
47.530        13
47.540        40
47.550         0
47.560        27
47.570        27
47.580        13
47.590        13
47.600         0
47.610        13
47.620        13
47.630        13
47.640        27
47.650        27
47.660        27
47.670        13
47.680         0
47.690         0
47.700        27
47.710         0
47.720        27
47.730        13
47.740        13
47.750        13
47.760        13
47.770        53
47.780        13
47.790        40
47.800        67
47.810        27
47.820         0
47.830        13
47.840         0
47.850         0
47.860        27
47.870        27
47.880        13
47.890         0
47.900        13
47.910        13
47.920        27
47.930        13
47.940        13
47.950         0
47.960        27
47.970        53
47.980         0
47.990         0
48.000        13
48.010        13
48.020        13
48.030        13
48.040         0
48.050        27
48.060        27
48.070        13
48.080        27
48.090        13
48.100         0
48.110         0
48.120        27
48.130         0
48.140        27
48.150        53
48.160        27
48.170        13
48.180        13
48.190        13
48.200        13
48.210         0
48.220        53
48.230        27
48.240        13
48.250        40
48.260        27
48.270        27
48.280        27
48.290         0
48.300        27
48.310        27
48.320        13
48.330        13
48.340        27
48.350        40
48.360         0
48.370         0
48.380        27
48.390         0
48.400         0
48.410        27
48.420        27
48.430        13
48.440        27
48.450        13
48.460        13
48.470        40
48.480        27
48.490        27
48.500        27
48.510         0
48.520        13
48.530        27
48.540        40
48.550         0
48.560         0
48.570        13
48.580        13
48.590        13
48.600        40
48.610        13
48.620         0
48.630        13
48.640        13
48.650        13
48.660        53
48.670         0
48.680        40
48.690        13
48.700         0
48.710        53
48.720        27
48.730        13
48.740        27
48.750         0
48.760        27
48.770        27
48.780         0
48.790        13
48.800        13
48.810        40
48.820        13
48.830        13
48.840        27
48.850        13
48.860        40
48.870        13
48.880        13
48.890        27
48.900        27
48.910        80
48.920         0
48.930        13
48.940        13
48.950        13
48.960        27
48.970        27
48.980        40
48.990         0
49.000         0
49.010         0
49.020         0
49.030        27
49.040        13
49.050        27
49.060         0
49.070        13
49.080        13
49.090         0
49.100        13
49.110        13
49.120         0
49.130        13
49.140         0
49.150        13
49.160        13
49.170        13
49.180        40
49.190        27
49.200         0
49.210        40
49.220        27
49.230         0
49.240        27
49.250        27
49.260        13
49.270        27
49.280        27
49.290        27
49.300        27
49.310        13
49.320         0
49.330         0
49.340        13
49.350        27
49.360        40
49.370        13
49.380        27
49.390        13
49.400        27
49.410        13
49.420        13
49.430         0
49.440        27
49.450         0
49.460        53
49.470        27
49.480        13
49.490        13
49.500        40
49.510         0
49.520        13
49.530        40
49.540        13
49.550        27
49.560         0
49.570        13
49.580        13
49.590        13
49.600         0
49.610        27
49.620        27
49.630         0
49.640        13
49.650        13
49.660        13
49.670        27
49.680        27
49.690         0
49.700         0
49.710         0
49.720         0
49.730        13
49.740        40
49.750        13
49.760         0
49.770         0
49.780         0
49.790         0
49.800        13
49.810         0
49.820         0
49.830        13
49.840         0
49.850         0
49.860        13
49.870        13
49.880        13
49.890         0
49.900        13
49.910         0
49.920         0
49.930        53
49.940        13
49.950         0
49.960         0
49.970        13
49.980        40
49.990        27
50.000         0
50.010        27
50.020         0
50.030         0
50.040        13
50.050        27
50.060         0
50.070        53
50.080         0
50.090        40
50.100         0
50.110        13
50.120        40
50.130         0
50.140        13
50.150        13
50.160        13
50.170         0
50.180        13
50.190        27
50.200        13
50.210        13
50.220        13
50.230         0
50.240         0
50.250         0
50.260        27
50.270         0
50.280         0
50.290         0
50.300         0
50.310        13
50.320        40
50.330         0
50.340        13
50.350        13
50.360        13
50.370        40
50.380         0
50.390         0
50.400         0
50.410        13
50.420        13
50.430        40
50.440        27
50.450        13
50.460        27
50.470        13
50.480        53
50.490        27
50.500         0
50.510        27
50.520        53
50.530        13
50.540        53
50.550        27
50.560        27
50.570         0
50.580         0
50.590        13
50.600        13
50.610        40
50.620        40
50.630        27
50.640         0
50.650        13
50.660        40
50.670         0
50.680        27
50.690        67
50.700         0
50.710        40
50.720        13
50.730        27
50.740         0
50.750         0
50.760        53
50.770        27
50.780        13
50.790        13
50.800        13
50.810        13
50.820        13
50.830        13
50.840        53
50.850        13
50.860        27
50.870        13
50.880        13
50.890         0
50.900         0
50.910        13
50.920        13
50.930        27
50.940         0
50.950        13
50.960        13
50.970        13
50.980        27
50.990        40
51.000        13
51.010         0
51.020         0
51.030        13
51.040        13
51.050        13
51.060        27
51.070        13
51.080        13
51.090        13
51.100         0
51.110         0
51.120        13
51.130        13
51.140        27
51.150         0
51.160        27
51.170        13
51.180         0
51.190        40
51.200         0
51.210        40
51.220        13
51.230        27
51.240        13
51.250         0
51.260         0
51.270         0
51.280        40
51.290         0
51.300        13
51.310        40
51.320        13
51.330        27
51.340         0
51.350        13
51.360         0
51.370        27
51.380        13
51.390         0
51.400        13
51.410        13
51.420         0
51.430        27
51.440        13
51.450        13
51.460        27
51.470         0
51.480         0
51.490        13
51.500        13
51.510         0
51.520         0
51.530        53
51.540        27
51.550        27
51.560        40
51.570        13
51.580        27
51.590        13
51.600        13
51.610         0
51.620         0
51.630        27
51.640        13
51.650         0
51.660        13
51.670        13
51.680        13
51.690         0
51.700         0
51.710        13
51.720        13
51.730        40
51.740         0
51.750        27
51.760        13
51.770         0
51.780        53
51.790        27
51.800        53
51.810        40
51.820        13
51.830        27
51.840        13
51.850        27
51.860        13
51.870        27
51.880        27
51.890        13
51.900        27
51.910        27
51.920        13
51.930        40
51.940         0
51.950        13
51.960         0
51.970         0
51.980        27
51.990        27
52.000         0
52.010        53
52.020         0
52.030        13
52.040        13
52.050        13
52.060         0
52.070        13
52.080        27
52.090         0
52.100        40
52.110         0
52.120        40
52.130        13
52.140        27
52.150        53
52.160         0
52.170        40
52.180        13
52.190        13
52.200         0
52.210        13
52.220        13
52.230        13
52.240        13
52.250        40
52.260        27
52.270        13
52.280        13
52.290        27
52.300         0
52.310        13
52.320         0
52.330        40
52.340        13
52.350        13
52.360         0
52.370        13
52.380        27
52.390        27
52.400         0
52.410        27
52.420        13
52.430        40
52.440        13
52.450         0
52.460        27
52.470        27
52.480        40
52.490         0
52.500         0
52.510        27
52.520        13
52.530        27
52.540        27
52.550        13
52.560        27
52.570        53
52.580        53
52.590        13
52.600        40
52.610        27
52.620         0
52.630        67
52.640        13
52.650        27
52.660        13
52.670         0
52.680        27
52.690         0
52.700        27
52.710        53
52.720        27
52.730        53
52.740         0
52.750        13
52.760        27
52.770        40
52.780        27
52.790         0
52.800        40
52.810         0
52.820         0
52.830         0
52.840        13
52.850         0
52.860        13
52.870         0
52.880         0
52.890        13
52.900         0
52.910        13
52.920        27
52.930        40
52.940        40
52.950         0
52.960        13
52.970        13
52.980        27
52.990        40
53.000         0
53.010        27
53.020        13
53.030        13
53.040        13
53.050         0
53.060        13
53.070        13
53.080         0
53.090        13
53.100        27
53.110        40
53.120        13
53.130        13
53.140         0
53.150        27
53.160        13
53.170        40
53.180        13
53.190        13
53.200         0
53.210        13
53.220        13
53.230        27
53.240        13
53.250        27
53.260        13
53.270         0
53.280         0
53.290         0
53.300        27
53.310        40
53.320        13
53.330         0
53.340        13
53.350        27
53.360        13
53.370        13
53.380        27
53.390        27
53.400         0
53.410         0
53.420        13
53.430        13
53.440        27
53.450         0
53.460        13
53.470        27
53.480         0
53.490        13
53.500         0
53.510        13
53.520         0
53.530        13
53.540        27
53.550         0
53.560        13
53.570        13
53.580        13
53.590        67
53.600        13
53.610         0
53.620        13
53.630        27
53.640        13
53.650        53
53.660        13
53.670         0
53.680         0
53.690        40
53.700         0
53.710        27
53.720        13
53.730        13
53.740        13
53.750        27
53.760        13
53.770        53
53.780         0
53.790        13
53.800        13
53.810         0
53.820        13
53.830         0
53.840         0
53.850        27
53.860        40
53.870         0
53.880        40
53.890         0
53.900         0
53.910         0
53.920        27
53.930         0
53.940        13
53.950        13
53.960        13
53.970         0
53.980         0
53.990        13
54.000        13
54.010        13
54.020        40
54.030         0
54.040         0
54.050        27
54.060         0
54.070        13
54.080        13
54.090        13
54.100        13
54.110        13
54.120        13
54.130         0
54.140         0
54.150        13
54.160         0
54.170        67
54.180        40
54.190         0
54.200        40
54.210        27
54.220        27
54.230        13
54.240        13
54.250        13
54.260        13
54.270        13
54.280         0
54.290         0
54.300        27
54.310         0
54.320         0
54.330         0
54.340        27
54.350        27
54.360        27
54.370         0
54.380        40
54.390        13
54.400        27
54.410        13
54.420        27
54.430        13
54.440         0
54.450        27
54.460         0
54.470         0
54.480        13
54.490        27
54.500        13
54.510        13
54.520        13
54.530         0
54.540         0
54.550        27
54.560        27
54.570        40
54.580         0
54.590        13
54.600         0
54.610        13
54.620        27
54.630        27
54.640        13
54.650        13
54.660        13
54.670        27
54.680        13
54.690        13
54.700         0
54.710         0
54.720        13
54.730        53
54.740         0
54.750         0
54.760        13
54.770        13
54.780         0
54.790         0
54.800         0
54.810        13
54.820        40
54.830        13
54.840         0
54.850         0
54.860        13
54.870         0
54.880        27
54.890         0
54.900         0
54.910         0
54.920        13
54.930        27
54.940        40
54.950         0
54.960        27
54.970         0
54.980         0
54.990         0
55.000        13
55.010         0
55.020         0
55.030         0
55.040        13
55.050         0
55.060         0
55.070         0
55.080         0
55.090        27
55.100        27
55.110         0
55.120        13
55.130        27
55.140        13
55.150         0
55.160         0
55.170         0
55.180        53
55.190        13
55.200        13
55.210         0
55.220        53
55.230        27
55.240        27
55.250        27
55.260        13
55.270         0
55.280        27
55.290        13
55.300        13
55.310        13
55.320        13
55.330       147
55.340         0
55.350        27
55.360        67
55.370        67
55.380         0
55.390        13
55.400        13
55.410        13
55.420        13
55.430         0
55.440        13
55.450         0
55.460        27
55.470        13
55.480        40
55.490         0
55.500        13
55.510         0
55.520         0
55.530        13
55.540        40
55.550         0
55.560         0
55.570         0
55.580        53
55.590        40
55.600         0
55.610        27
55.620        13
55.630        53
55.640         0
55.650        40
55.660        40
55.670         0
55.680         0
55.690        13
55.700        13
55.710         0
55.720         0
55.730        27
55.740         0
55.750        13
55.760        13
55.770        13
55.780        13
55.790        13
55.800        13
55.810         0
55.820        13
55.830        27
55.840        40
55.850         0
55.860        27
55.870        13
55.880        13
55.890         0
55.900         0
55.910        13
55.920        13
55.930        13
55.940         0
55.950        13
55.960         0
55.970        13
55.980        40
55.990         0
56.000         0
56.010        13
56.020        27
56.030        67
56.040        13
56.050        27
56.060         0
56.070         0
56.080        53
56.090        13
56.100         0
56.110        13
56.120        40
56.130        27
56.140         0
56.150         0
56.160        13
56.170        27
56.180         0
56.190        27
56.200        13
56.210        13
56.220        13
56.230        27
56.240        40
56.250        13
56.260        13
56.270        13
56.280        13
56.290        13
56.300        13
56.310        40
56.320        13
56.330         0
56.340         0
56.350         0
56.360        13
56.370        13
56.380        13
56.390        13
56.400        27
56.410        13
56.420         0
56.430         0
56.440        13
56.450        13
56.460        27
56.470         0
56.480        13
56.490         0
56.500         0
56.510        13
56.520         0
56.530        27
56.540         0
56.550        13
56.560        13
56.570        13
56.580        67
56.590         0
56.600        27
56.610         0
56.620        27
56.630        13
56.640         0
56.650         0
56.660        13
56.670        13
56.680         0
56.690        27
56.700        40
56.710        27
56.720         0
56.730         0
56.740        13
56.750         0
56.760         0
56.770         0
56.780         0
56.790        13
56.800         0
56.810        40
56.820        27
56.830        13
56.840         0
56.850        13
56.860        27
56.870         0
56.880        27
56.890        40
56.900        13
56.910        13
56.920         0
56.930         0
56.940        27
56.950         0
56.960         0
56.970        13
56.980        13
56.990        27
57.000        27
57.010        13
57.020        13
57.030        27
57.040        13
57.050         0
57.060        27
57.070        40
57.080        13
57.090         0
57.100         0
57.110        27
57.120         0
57.130        27
57.140        40
57.150        13
57.160        40
57.170        13
57.180        53
57.190        27
57.200        53
57.210        27
57.220         0
57.230        13
57.240        13
57.250        53
57.260        13
57.270         0
57.280        40
57.290         0
57.300        13
57.310        13
57.320         0
57.330        27
57.340        27
57.350        80
57.360        40
57.370        27
57.380        67
57.390        40
57.400        67
57.410        53
57.420        27
57.430        40
57.440        53
57.450        40
57.460        27
57.470        80
57.480        80
57.490       147
57.500        80
57.510        13
57.520        93
57.530        67
57.540        27
57.550       107
57.560        53
57.570        27
57.580       133
57.590        13
57.600        40
57.610       120
57.620        67
57.630        93
57.640        13
57.650        13
57.660        40
57.670        67
57.680        13
57.690        40
57.700        27
57.710        53
57.720        93
57.730        93
57.740        67
57.750        27
57.760        40
57.770        40
57.780        80
57.790        13
57.800        40
57.810         0
57.820         0
57.830        13
57.840         0
57.850        40
57.860        13
57.870        27
57.880        27
57.890        27
57.900         0
57.910        13
57.920        27
57.930         0
57.940         0
57.950         0
57.960        27
57.970         0
57.980        27
57.990         0
58.000        13
58.010        13
58.020        27
58.030        67
58.040        13
58.050        40
58.060        13
58.070         0
58.080        27
58.090         0
58.100         0
58.110        13
58.120        13
58.130         0
58.140        13
58.150         0
58.160        13
58.170         0
58.180         0
58.190        13
58.200        13
58.210        13
58.220        13
58.230        27
58.240        13
58.250         0
58.260        27
58.270        13
58.280         0
58.290         0
58.300        13
58.310        27
58.320         0
58.330        27
58.340        13
58.350         0
58.360        13
58.370         0
58.380        27
58.390        13
58.400        13
58.410        13
58.420        40
58.430         0
58.440        13
58.450        13
58.460        27
58.470        13
58.480        13
58.490         0
58.500        13
58.510         0
58.520         0
58.530         0
58.540         0
58.550        13
58.560        40
58.570        27
58.580         0
58.590         0
58.600         0
58.610        13
58.620        13
58.630         0
58.640        27
58.650        13
58.660        27
58.670        13
58.680        13
58.690        13
58.700         0
58.710        27
58.720         0
58.730        13
58.740        13
58.750        13
58.760         0
58.770        40
58.780        13
58.790         0
58.800        13
58.810        53
58.820         0
58.830         0
58.840         0
58.850        27
58.860         0
58.870        13
58.880        13
58.890        27
58.900        27
58.910        13
58.920         0
58.930        27
58.940        27
58.950         0
58.960        53
58.970         0
58.980        13
58.990        13
59.000        40
59.010         0
59.020         0
59.030        13
59.040        13
59.050        13
59.060         0
59.070         0
59.080        13
59.090         0
59.100        13
59.110         0
59.120         0
59.130        13
59.140         0
59.150         0
59.160        40
59.170        13
59.180        13
59.190        27
59.200        40
59.210         0
59.220        13
59.230        13
59.240        40
59.250        13
59.260        40
59.270         0
59.280         0
59.290        13
59.300        13
59.310         0
59.320         0
59.330        40
59.340         0
59.350        13
59.360        53
59.370        13
59.380        13
59.390        27
59.400        27
59.410        13
59.420        53
59.430        13
59.440        27
59.450         0
59.460        40
59.470        27
59.480        27
59.490         0
59.500        13
59.510         0
59.520        40
59.530        13
59.540        13
59.550        40
59.560        13
59.570        13
59.580        27
59.590        13
59.600        27
59.610         0
59.620         0
59.630        13
59.640         0
59.650        40
59.660         0
59.670        27
59.680        13
59.690         0
59.700        27
59.710        13
59.720         0
59.730        13
59.740         0
59.750         0
59.760        13
59.770        13
59.780        13
59.790        13
59.800        27
59.810         0
59.820        13
59.830         0
59.840         0
59.850        40
59.860        13
59.870         0
59.880        13
59.890        13
59.900        13
59.910         0
59.920         0
59.930         0
59.940         0
59.950         0
59.960         0
59.970        27
59.980         0
59.990        27
60.000        40
