20.000       263
20.020       283
20.040       237
20.060       317
20.080       247
20.100       293
20.120       233
20.140       243
20.160       263
20.180       253
20.200       290
20.220       243
20.240       250
20.260       227
20.280       297
20.300       233
20.320       287
20.340       233
20.360       233
20.380       243
20.400       223
20.420       267
20.440       293
20.460       220
20.480       240
20.500       260
20.520       290
20.540       270
20.560       230
20.580       257
20.600       260
20.620       220
20.640       227
20.660       243
20.680       197
20.700       210
20.720       227
20.740       197
20.760       260
20.780       203
20.800       230
20.820       243
20.840       273
20.860       253
20.880       203
20.900       197
20.920       210
20.940       230
20.960       230
20.980       237
21.000       280
21.020       227
21.040       193
21.060       207
21.080       213
21.100       253
21.120       280
21.140       253
21.160       187
21.180       223
21.200       197
21.220       260
21.240       250
21.260       213
21.280       237
21.300       207
21.320       203
21.340       220
21.360       257
21.380       210
21.400       213
21.420       257
21.440       243
21.460       247
21.480       270
21.500       263
21.520       263
21.540       200
21.560       223
21.580       210
21.600       257
21.620       210
21.640       253
21.660       257
21.680       257
21.700       197
21.720       293
21.740       237
21.760       287
21.780       287
21.800       300
21.820       307
21.840       283
21.860       213
21.880       237
21.900       273
21.920       283
21.940       253
21.960       183
21.980       257
22.000       163
22.020       230
22.040       227
22.060       273
22.080       180
22.100       217
22.120       230
22.140       217
22.160       243
22.180       207
22.200       237
22.220       227
22.240       203
22.260       197
22.280       250
22.300       280
22.320       217
22.340       190
22.360       220
22.380       257
22.400       260
22.420       187
22.440       193
22.460       210
22.480       163
22.500       203
22.520       213
22.540       200
22.560       193
22.580       180
22.600       213
22.620       193
22.640       197
22.660       243
22.680       210
22.700       207
22.720       257
22.740       210
22.760       220
22.780       207
22.800       187
22.820       197
22.840       187
22.860       253
22.880       190
22.900       230
22.920       210
22.940       227
22.960       233
22.980       193
23.000       250
23.020       263
23.040       193
23.060       190
23.080       180
23.100       227
23.120       247
23.140       223
23.160       190
23.180       187
23.200       213
23.220       190
23.240       153
23.260       197
23.280       180
23.300       167
23.320       210
23.340       260
23.360       207
23.380       197
23.400       223
23.420       170
23.440       180
23.460       217
23.480       223
23.500       213
23.520       217
23.540       240
23.560       207
23.580       193
23.600       227
23.620       190
23.640       207
23.660       203
23.680       203
23.700       240
23.720       197
23.740       220
23.760       240
23.780       193
23.800       233
23.820       200
23.840       170
23.860       210
23.880       227
23.900       227
23.920       200
23.940       150
23.960       293
23.980       233
24.000       170
24.020       183
24.040       193
24.060       167
24.080       200
24.100       143
24.120       197
24.140       150
24.160       187
24.180       173
24.200       177
24.220       187
24.240       210
24.260       223
24.280       183
24.300       163
24.320       193
24.340       133
24.360       190
24.380       143
24.400       143
24.420       137
24.440       173
24.460       177
24.480       167
24.500       180
24.520       230
24.540       183
24.560       170
24.580       187
24.600       177
24.620       170
24.640       187
24.660       153
24.680       187
24.700       207
24.720       180
24.740       197
24.760       170
24.780       170
24.800       177
24.820       160
24.840       210
24.860       187
24.880       177
24.900       183
24.920       210
24.940       107
24.960       160
24.980       197
25.000       170
25.020       153
25.040       203
25.060       133
25.080       143
25.100       257
25.120       123
25.140       160
25.160       180
25.180       163
25.200       187
25.220       140
25.240       150
25.260       160
25.280       173
25.300       183
25.320       210
25.340       190
25.360       183
25.380       197
25.400       183
25.420       170
25.440       150
25.460       150
25.480       213
25.500       167
25.520       197
25.540       123
25.560       133
25.580       157
25.600       143
25.620       137
25.640       147
25.660       170
25.680       177
25.700       163
25.720       150
25.740       140
25.760       167
25.780       127
25.800       140
25.820       133
25.840       117
25.860       183
25.880       140
25.900       167
25.920       110
25.940       183
25.960       163
25.980       150
26.000       160
26.020       147
26.040       170
26.060       153
26.080       157
26.100       137
26.120       163
26.140       137
26.160       137
26.180       193
26.200       113
26.220       133
26.240       110
26.260       153
26.280       147
26.300       127
26.320       167
26.340       123
26.360       133
26.380       133
26.400       153
26.420       120
26.440       140
26.460       137
26.480       143
26.500       103
26.520       123
26.540       123
26.560       137
26.580       230
26.600       133
26.620       137
26.640       127
26.660       140
26.680       163
26.700       140
26.720       147
26.740       117
26.760       147
26.780        80
26.800       137
26.820       157
26.840       140
26.860       157
26.880       177
26.900       143
26.920       117
26.940       147
26.960       177
26.980       133
27.000       150
27.020       113
27.040       133
27.060       127
27.080        90
27.100       133
27.120       133
27.140       140
27.160       120
27.180       147
27.200       147
27.220       147
27.240       127
27.260       113
27.280        97
27.300       147
27.320       160
27.340       113
27.360       143
27.380        97
27.400        93
27.420       130
27.440       103
27.460       150
27.480       123
27.500       140
27.520       153
27.540       130
27.560       130
27.580       143
27.600       130
27.620       143
27.640       170
27.660       133
27.680       120
27.700       133
27.720       117
27.740       130
27.760       143
27.780       153
27.800       133
27.820       130
27.840       170
27.860       137
27.880       147
27.900       163
27.920       213
27.940       200
27.960       133
27.980       173
28.000       170
28.020       130
28.040       147
28.060       117
28.080       143
28.100       157
28.120       140
28.140       117
28.160       150
28.180       150
28.200       127
28.220       170
28.240       117
28.260       187
28.280       133
28.300       163
28.320       193
28.340       180
28.360       117
28.380       127
28.400       147
28.420       127
28.440       110
28.460       110
28.480        97
28.500       140
28.520       160
28.540       123
28.560       153
28.580       183
28.600        97
28.620       130
28.640       123
28.660       173
28.680       130
28.700       177
28.720       127
28.740       137
28.760        97
28.780       140
28.800       133
28.820       100
28.840       113
28.860       177
28.880       163
28.900       103
28.920        90
28.940       170
28.960       100
28.980       177
29.000        93
29.020       177
29.040       143
29.060       137
29.080       150
29.100       123
29.120       137
29.140       147
29.160       163
29.180       170
29.200       170
29.220       173
29.240       147
29.260       117
29.280       143
29.300       137
29.320       133
29.340       133
29.360       200
29.380       127
29.400       133
29.420       153
29.440       167
29.460       153
29.480       170
29.500       167
29.520       120
29.540       133
29.560       123
29.580       113
29.600       120
29.620       150
29.640       147
29.660       113
29.680       170
29.700       120
29.720       103
29.740       143
29.760       137
29.780        93
29.800       147
29.820       123
29.840       127
29.860       100
29.880       140
29.900       143
29.920       130
29.940       167
29.960       137
29.980       190
30.000       170
30.020       120
30.040       123
30.060       113
30.080       137
30.100       163
30.120       140
30.140       123
30.160       160
30.180        87
30.200       157
30.220       137
30.240       167
30.260       167
30.280       147
30.300       173
30.320       147
30.340       133
30.360       100
30.380       130
30.400       103
30.420       150
30.440        83
30.460       160
30.480       147
30.500       133
30.520       137
30.540       147
30.560       207
30.580       183
30.600       183
30.620       190
30.640       183
30.660       220
30.680       277
30.700       257
30.720       357
30.740       353
30.760       496
30.780       570
30.800       703
30.820       903
30.840      1160
30.860      1486
30.880      1836
30.900      2442
30.920      3109
30.940      4122
30.960      5025
30.980      5021
31.000      4488
31.020      3758
31.040      3122
31.060      2599
31.080      1933
31.100      1383
31.120       836
31.140       553
31.160       407
31.180       267
31.200       263
31.220       210
31.240       183
31.260       173
31.280       187
31.300       180
31.320       143
31.340       130
31.360       187
31.380       190
31.400       163
31.420       163
31.440       137
31.460       137
31.480       170
31.500       117
31.520       153
31.540       137
31.560       147
31.580       140
31.600       120
31.620       170
31.640       120
31.660       133
31.680       137
31.700       147
31.720       150
31.740       100
31.760       123
31.780       143
31.800       127
31.820       117
31.840       140
31.860       137
31.880       113
31.900       150
31.920        73
31.940       113
31.960        83
31.980       137
32.000       143
32.020       117
32.040       127
32.060       103
32.080       123
32.100       123
32.120       117
32.140       117
32.160       110
32.180       163
32.200       153
32.220        97
32.240       117
32.260       153
32.280       133
32.300       113
32.320       110
32.340       130
32.360        93
32.380       127
32.400       127
32.420       100
32.440       107
32.460        77
32.480       117
32.500        87
32.520        90
32.540       113
32.560       110
32.580       117
32.600       103
32.620        90
32.640       103
32.660        77
32.680       123
32.700       110
32.720        87
32.740       103
32.760       123
32.780        97
32.800        97
32.820        83
32.840        60
32.860       110
32.880       103
32.900        90
32.920       140
32.940       113
32.960        67
32.980       110
33.000        90
33.020        90
33.040        87
33.060        80
33.080       110
33.100       117
33.120        83
33.140       110
33.160       113
33.180       117
33.200       140
33.220       117
33.240        90
33.260       110
33.280       130
33.300       120
33.320       120
33.340        83
33.360        87
33.380        63
33.400       117
33.420       100
33.440       103
33.460        93
33.480        97
33.500        90
33.520       113
33.540       117
33.560        83
33.580       123
33.600       113
33.620        83
33.640        87
33.660        90
33.680        70
33.700        87
33.720       123
33.740        90
33.760        83
33.780       113
33.800       117
33.820       160
33.840       117
33.860        83
33.880       137
33.900        77
33.920       103
33.940        73
33.960       100
33.980        97
34.000        90
34.020        90
34.040        83
34.060       130
34.080       110
34.100       130
34.120        77
34.140        90
34.160        97
34.180       127
34.200        87
34.220        77
34.240       113
34.260       103
34.280        87
34.300       133
34.320        87
34.340        67
34.360       107
34.380        83
34.400        90
34.420       100
34.440       100
34.460       100
34.480        90
34.500       137
34.520       107
34.540        87
34.560        87
34.580       110
34.600        93
34.620       117
34.640       103
34.660       107
34.680       110
34.700        90
34.720       127
34.740       120
34.760       133
34.780        63
34.800       113
34.820       103
34.840       110
34.860        93
34.880       103
34.900       123
34.920        93
34.940       110
34.960       100
34.980        97
35.000        97
35.020       127
35.040       127
35.060       137
35.080       153
35.100       270
35.120       230
35.140       297
35.160       287
35.180       393
35.200       343
35.220       233
35.240       210
35.260       247
35.280       163
35.300       163
35.320       197
35.340        90
35.360       127
35.380       113
35.400        80
35.420       103
35.440        73
35.460       107
35.480        93
35.500       107
35.520        93
35.540       100
35.560        80
35.580       117
35.600        80
35.620        97
35.640        90
35.660       127
35.680        90
35.700       113
35.720       133
35.740        97
35.760        63
35.780        73
35.800       110
35.820       117
35.840       103
35.860       100
35.880        53
35.900        87
35.920       107
35.940       127
35.960       130
35.980       143
36.000       107
36.020       103
36.040       100
36.060       107
36.080        90
36.100        93
36.120       103
36.140        97
36.160        97
36.180        50
36.200        97
36.220        70
36.240        77
36.260        93
36.280       117
36.300        67
36.320       100
36.340        57
36.360        87
36.380        97
36.400        87
36.420        83
36.440        97
36.460        87
36.480        83
36.500        80
36.520        80
36.540       107
36.560        80
36.580       107
36.600        80
36.620        80
36.640       107
36.660        67
36.680        63
36.700       103
36.720        87
36.740        73
36.760       100
36.780       117
36.800        80
36.820        97
36.840        83
36.860        83
36.880        80
36.900        73
36.920        80
36.940        87
36.960       120
36.980        90
37.000        77
37.020       103
37.040        87
37.060       103
37.080        83
37.100        80
37.120        87
37.140        60
37.160        97
37.180        87
37.200       103
37.220        73
37.240        97
37.260        73
37.280        80
37.300        90
37.320       107
37.340        87
37.360       123
37.380        73
37.400        80
37.420        63
37.440        77
37.460       110
37.480        93
37.500        83
37.520        60
37.540        57
37.560        77
37.580        57
37.600        93
37.620        93
37.640        63
37.660        77
37.680       117
37.700        93
37.720        83
37.740       123
37.760       103
37.780       140
37.800       120
37.820       123
37.840        87
37.860       133
37.880        90
37.900       110
37.920        90
37.940       127
37.960        67
37.980       127
38.000       113
38.020       137
38.040       110
38.060       137
38.080       113
38.100       153
38.120       190
38.140       227
38.160       197
38.180       213
38.200       223
38.220       253
38.240       170
38.260       210
38.280       140
38.300       163
38.320       183
38.340       130
38.360       110
38.380        70
38.400       117
38.420        93
38.440        83
38.460        73
38.480        87
38.500        97
38.520       107
38.540        93
38.560        83
38.580       117
38.600        67
38.620        70
38.640        77
38.660       103
38.680        93
38.700        83
38.720        80
38.740        60
38.760        90
38.780        77
38.800        90
38.820        73
38.840        97
38.860        70
38.880        67
38.900        60
38.920        83
38.940        70
38.960        77
38.980       100
39.000        97
39.020       100
39.040        77
39.060        80
39.080        87
39.100        73
39.120        77
39.140       130
39.160        57
39.180       117
39.200        80
39.220       100
39.240        83
39.260       107
39.280        87
39.300        77
39.320        73
39.340        70
39.360        80
39.380       100
39.400        90
39.420        80
39.440        57
39.460        80
39.480        60
39.500        63
39.520        83
39.540       123
39.560        83
39.580       103
39.600        90
39.620        77
39.640        67
39.660        63
39.680       120
39.700        87
39.720        87
39.740        67
39.760        87
39.780        70
39.800        77
39.820        73
39.840       103
39.860        90
39.880        70
39.900        90
39.920        73
39.940        60
39.960        73
39.980        93
40.000        57
40.020        73
40.040        70
40.060        93
40.080        97
40.100        43
40.120        60
40.140        67
40.160        87
40.180        90
40.200       100
40.220        87
40.240        90
40.260        87
40.280       100
40.300        63
40.320       103
40.340        80
40.360        73
40.380        73
40.400       100
40.420        67
40.440        67
40.460        70
40.480        90
40.500       107
40.520        93
40.540       100
40.560        80
40.580        50
40.600        70
40.620        70
40.640        97
40.660        83
40.680        77
40.700        73
40.720        93
40.740        90
40.760        47
40.780       100
40.800        80
40.820       110
40.840        83
40.860        53
40.880        73
40.900        77
40.920        73
40.940        90
40.960        83
40.980        60
41.000        57
41.020        57
41.040        97
41.060        87
41.080        87
41.100        77
41.120        80
41.140        93
41.160        63
41.180        67
41.200       100
41.220       103
41.240        73
41.260        47
41.280       120
41.300        73
41.320        50
41.340        77
41.360        50
41.380        77
41.400        93
41.420        70
41.440        80
41.460        93
41.480        80
41.500        80
41.520        83
41.540        57
41.560        57
41.580        90
41.600        80
41.620       113
41.640        93
41.660       113
41.680       170
41.700       213
41.720       183
41.740       110
41.760       130
41.780       103
41.800       147
41.820       103
41.840       110
41.860        77
41.880        87
41.900        90
41.920        63
41.940        73
41.960       103
41.980        87
42.000        53
42.020        60
42.040        83
42.060        77
42.080        97
42.100        87
42.120        77
42.140       110
42.160        93
42.180        77
42.200        73
42.220        80
42.240        90
42.260        83
42.280        93
42.300        93
42.320        73
42.340        83
42.360        67
42.380        97
42.400       100
42.420        90
42.440        53
42.460        87
42.480        70
42.500        60
42.520        77
42.540        63
42.560        87
42.580        80
42.600        57
42.620        60
42.640        87
42.660        87
42.680        90
42.700        70
42.720        53
42.740        73
42.760        80
42.780        77
42.800       107
42.820        67
42.840       117
42.860        93
42.880        80
42.900        63
42.920       110
42.940        93
42.960        87
42.980        80
43.000       103
43.020        93
43.040        87
43.060        70
43.080       107
43.100        97
43.120        87
43.140        80
43.160        90
43.180       143
43.200        80
43.220        70
43.240       107
43.260        97
43.280        73
43.300        80
43.320       117
43.340        97
43.360       140
43.380       267
43.400       280
43.420       240
43.440       157
43.460       177
43.480       167
43.500       157
43.520       150
43.540       157
43.560       143
43.580        73
43.600        90
43.620        83
43.640       103
43.660        50
43.680       103
43.700        57
43.720        67
43.740       103
43.760        60
43.780        73
43.800        57
43.820       110
43.840        67
43.860        87
43.880        83
43.900       113
43.920        93
43.940        87
43.960        93
43.980       103
44.000        90
44.020       107
44.040        87
44.060       117
44.080        87
44.100       117
44.120       160
44.140       143
44.160       123
44.180       157
44.200       197
44.220       143
44.240       197
44.260       193
44.280       243
44.300       280
44.320       313
44.340       347
44.360       393
44.380       420
44.400       443
44.420       453
44.440       413
44.460       383
44.480       377
44.500       380
44.520       317
44.540       300
44.560       290
44.580       240
44.600       223
44.620       163
44.640       160
44.660       167
44.680       120
44.700       143
44.720       130
44.740       110
44.760       110
44.780       137
44.800        70
44.820       120
44.840       100
44.860        87
44.880        83
44.900        90
44.920        83
44.940       107
44.960        70
44.980       113
45.000       103
45.020       113
45.040        77
45.060        73
45.080        90
45.100       113
45.120       100
45.140        63
45.160        80
45.180       103
45.200        93
45.220        80
45.240        67
45.260        47
45.280        67
45.300        60
45.320       103
45.340       100
45.360        77
45.380        83
45.400        63
45.420        37
45.440        83
45.460        63
45.480        70
45.500        90
45.520       103
45.540        50
45.560        83
45.580        57
45.600        67
45.620        53
45.640        50
45.660       107
45.680        87
45.700        77
45.720        80
45.740        80
45.760        87
45.780        77
45.800       117
45.820        63
45.840        83
45.860        87
45.880        73
45.900        47
45.920       107
45.940        83
45.960        57
45.980       103
46.000       103
46.020        93
46.040        90
46.060        60
46.080        80
46.100        77
46.120        90
46.140        77
46.160        80
46.180        93
46.200       100
46.220        63
46.240        70
46.260        87
46.280        70
46.300        53
46.320        83
46.340        80
46.360        63
46.380       110
46.400       100
46.420        63
46.440        93
46.460        93
46.480        60
46.500        90
46.520        77
46.540       117
46.560        63
46.580        53
46.600        97
46.620       107
46.640       110
46.660        73
46.680        87
46.700        63
46.720        80
46.740       107
46.760        83
46.780        93
46.800       117
46.820        70
46.840       107
46.860        90
46.880        53
46.900        80
46.920       103
46.940       100
46.960       100
46.980        87
47.000       100
47.020       120
47.040       103
47.060        93
47.080       103
47.100        90
47.120        90
47.140        60
47.160        80
47.180       100
47.200        70
47.220       110
47.240        73
47.260        90
47.280        77
47.300        97
47.320        87
47.340       127
47.360       133
47.380       100
47.400       110
47.420        93
47.440       150
47.460       130
47.480       100
47.500        90
47.520        90
47.540        73
47.560       117
47.580        83
47.600        93
47.620        70
47.640        97
47.660        67
47.680        63
47.700        97
47.720        77
47.740       107
47.760        57
47.780        97
47.800        77
47.820        80
47.840        77
47.860        83
47.880       103
47.900        60
47.920        60
47.940        80
47.960        70
47.980        90
48.000       103
48.020        63
48.040        93
48.060        77
48.080        63
48.100        70
48.120        97
48.140       103
48.160        87
48.180        77
48.200       103
48.220        83
48.240       113
48.260       113
48.280        97
48.300       110
48.320       107
48.340        97
48.360       117
48.380       113
48.400        87
48.420       110
48.440       110
48.460        77
48.480        97
48.500       117
48.520        97
48.540       117
48.560        87
48.580       117
48.600        83
48.620        90
48.640        60
48.660        80
48.680        87
48.700        77
48.720        63
48.740       107
48.760        70
48.780        73
48.800        97
48.820        80
48.840        83
48.860        83
48.880        70
48.900        73
48.920        80
48.940        73
48.960        50
48.980        83
49.000        93
49.020        80
49.040        93
49.060        90
49.080        77
49.100        60
49.120        97
49.140       100
49.160        77
49.180       107
49.200        57
49.220        83
49.240        73
49.260        70
49.280        53
49.300        53
49.320       120
49.340        97
49.360        73
49.380        83
49.400       103
49.420        93
49.440        73
49.460        87
49.480        97
49.500       100
49.520        93
49.540        83
49.560        80
49.580        70
49.600        50
49.620        87
49.640        73
49.660        90
49.680        70
49.700        60
49.720        87
49.740        93
49.760        80
49.780        70
49.800        63
49.820       113
49.840        50
49.860        67
49.880        67
49.900        60
49.920        73
49.940        80
49.960        90
49.980        80
50.000       103
50.020        70
50.040        97
50.060        67
50.080        83
50.100        53
50.120        73
50.140        63
50.160        77
50.180        60
50.200        63
50.220        77
50.240        93
50.260        70
50.280        83
50.300        67
50.320        90
50.340        70
50.360        57
50.380        80
50.400        77
50.420       103
50.440        70
50.460        93
50.480        93
50.500        73
50.520        70
50.540        60
50.560        93
50.580        63
50.600        80
50.620       110
50.640        90
50.660        67
50.680        57
50.700        73
50.720        73
50.740        70
50.760        83
50.780        73
50.800       100
50.820        77
50.840        67
50.860        63
50.880        80
50.900        83
50.920        87
50.940        90
50.960        47
50.980        90
51.000        93
51.020        53
51.040        50
51.060        93
51.080        53
51.100        60
51.120        97
51.140        70
51.160        57
51.180        43
51.200        63
51.220        67
51.240        77
51.260        77
51.280       107
51.300        93
51.320        67
51.340        87
51.360        67
51.380        67
51.400        70
51.420        87
51.440        80
51.460        97
51.480        73
51.500        97
51.520        77
51.540        67
51.560        60
51.580        87
51.600        77
51.620        87
51.640        63
51.660        67
51.680        53
51.700        57
51.720        77
51.740        83
51.760        53
51.780        87
51.800        67
51.820        33
51.840       107
51.860        87
51.880        60
51.900        73
51.920        87
51.940        60
51.960        80
51.980        93
52.000        80
52.020        77
52.040        50
52.060        97
52.080        40
52.100        63
52.120        73
52.140        97
52.160        57
52.180        80
52.200        90
52.220        60
52.240        77
52.260        70
52.280        87
52.300       120
52.320       123
52.340        67
52.360        67
52.380        73
52.400        77
52.420        70
52.440        70
52.460        87
52.480       107
52.500        50
52.520        97
52.540        53
52.560       127
52.580       100
52.600       130
52.620       107
52.640        80
52.660        53
52.680       100
52.700       137
52.720       107
52.740        63
52.760       110
52.780       117
52.800        80
52.820        87
52.840        60
52.860        83
52.880        83
52.900        83
52.920        77
52.940        80
52.960        77
52.980        67
53.000        63
53.020        83
53.040        90
53.060        67
53.080        57
53.100        67
53.120        73
53.140        83
53.160        60
53.180        73
53.200        67
53.220        77
53.240        67
53.260        77
53.280        53
53.300       107
53.320        80
53.340       103
53.360        77
53.380        93
53.400        97
53.420        77
53.440        80
53.460        80
53.480        93
53.500        87
53.520        90
53.540        77
53.560        93
53.580        70
53.600        97
53.620        77
53.640       100
53.660       123
53.680        83
53.700        70
53.720        83
53.740       107
53.760        87
53.780        73
53.800        93
53.820       103
53.840       120
53.860        63
53.880        77
53.900        73
53.920        87
53.940        97
53.960        93
53.980        50
54.000        70
54.020        73
54.040        57
54.060        67
54.080        93
54.100        80
54.120        77
54.140        97
54.160        73
54.180        77
54.200        90
54.220       103
54.240       100
54.260        53
54.280        73
54.300        77
54.320        87
54.340        87
54.360        87
54.380        97
54.400       110
54.420        87
54.440        97
54.460        93
54.480       127
54.500        80
54.520        87
54.540        90
54.560       103
54.580       123
54.600       117
54.620       117
54.640       120
54.660       113
54.680        77
54.700       120
54.720       117
54.740        90
54.760       110
54.780       120
54.800       180
54.820       147
54.840       130
54.860       150
54.880       153
54.900       260
54.920       230
54.940       227
54.960       350
54.980       307
55.000       377
55.020       453
55.040       580
55.060       536
55.080       643
55.100       570
55.120       606
55.140       496
55.160       473
55.180       387
55.200       430
55.220       403
55.240       313
55.260       337
55.280       240
55.300       233
55.320       180
55.340       170
55.360       130
55.380       123
55.400       107
55.420       117
55.440       127
55.460        83
55.480        90
55.500        87
55.520        80
55.540        87
55.560        63
55.580        80
55.600        80
55.620        77
55.640        87
55.660        77
55.680        67
55.700        63
55.720       110
55.740       117
55.760       103
55.780        60
55.800       107
55.820        97
55.840        70
55.860        93
55.880        87
55.900       100
55.920        93
55.940       123
55.960        67
55.980        97
56.000        80
56.020        77
56.040        63
56.060        83
56.080       103
56.100        60
56.120       103
56.140        90
56.160        57
56.180       110
56.200        67
56.220        80
56.240       107
56.260        97
56.280        87
56.300        93
56.320       110
56.340       130
56.360       120
56.380       113
56.400        80
56.420       143
56.440        90
56.460        47
56.480       110
56.500       113
56.520       120
56.540       103
56.560        60
56.580        90
56.600        97
56.620        73
56.640       107
56.660       100
56.680        63
56.700       100
56.720        73
56.740        83
56.760       123
56.780       133
56.800        93
56.820        90
56.840        97
56.860        70
56.880       113
56.900        80
56.920       123
56.940       117
56.960        60
56.980        90
57.000        83
57.020        97
57.040        77
57.060        73
57.080        93
57.100        70
57.120       110
57.140       120
57.160       127
57.180        97
57.200       103
57.220       140
57.240        90
57.260        93
57.280        63
57.300        93
57.320       113
57.340       120
57.360       117
57.380       120
57.400       120
57.420       150
57.440       177
57.460       167
57.480       263
57.500       327
57.520       393
57.540       370
57.560       300
57.580       207
57.600       167
57.620       130
57.640       173
57.660       213
57.680       277
57.700       270
57.720       187
57.740        97
57.760       110
57.780       113
57.800        97
57.820        80
57.840        63
57.860        80
57.880        93
57.900        77
57.920        77
57.940       100
57.960       120
57.980        93
58.000       103
58.020       110
58.040        97
58.060        80
58.080        97
58.100        73
58.120        93
58.140        73
58.160        70
58.180        80
58.200        87
58.220        80
58.240        93
58.260       100
58.280       113
58.300        63
58.320        77
58.340        80
58.360        57
58.380        67
58.400       113
58.420        93
58.440        63
58.460        83
58.480        77
58.500        57
58.520       107
58.540        77
58.560        83
58.580       103
58.600       103
58.620        83
58.640        80
58.660       107
58.680        97
58.700        77
58.720        50
58.740       103
58.760       110
58.780        87
58.800        90
58.820        83
58.840       110
58.860        90
58.880        53
58.900        87
58.920        73
58.940        93
58.960        87
58.980        73
59.000        47
59.020        90
59.040        87
59.060        63
59.080       103
59.100        87
59.120        60
59.140        73
59.160        97
59.180        80
59.200       103
59.220        70
59.240        77
59.260        67
59.280        77
59.300        97
59.320        70
59.340        87
59.360        60
59.380        63
59.400        77
59.420        87
59.440       103
59.460        77
59.480        90
59.500       113
59.520        93
59.540       107
59.560        67
59.580        67
59.600        60
59.620        83
59.640       107
59.660        90
59.680        63
59.700        83
59.720        87
59.740       103
59.760        87
59.780       127
59.800        67
59.820        97
59.840        90
59.860        87
59.880        77
59.900        80
59.920       127
59.940        87
59.960        67
59.980        67
60.000        67
