20.000        40
20.010        27
20.020        53
20.030        27
20.040        40
20.050        60
20.060        33
20.070        20
20.080        67
20.090        53
20.100        40
20.110        40
20.120        27
20.130         7
20.140        47
20.150        27
20.160        47
20.170        47
20.180        47
20.190        80
20.200        47
20.210        33
20.220        40
20.230        47
20.240        40
20.250        40
20.260        20
20.270        53
20.280        47
20.290        60
20.300        33
20.310        20
20.320        40
20.330        20
20.340        60
20.350        33
20.360        33
20.370        20
20.380        20
20.390        20
20.400        53
20.410        47
20.420        33
20.430        53
20.440        27
20.450        53
20.460        33
20.470        40
20.480        40
20.490        40
20.500        13
20.510        33
20.520        40
20.530        47
20.540        53
20.550        47
20.560        33
20.570        40
20.580         7
20.590        33
20.600        33
20.610        33
20.620        40
20.630        33
20.640        27
20.650        13
20.660        20
20.670        67
20.680        47
20.690        13
20.700        20
20.710        33
20.720        73
20.730        47
20.740        40
20.750        60
20.760        27
20.770        33
20.780        33
20.790        27
20.800        47
20.810        27
20.820        73
20.830        33
20.840        47
20.850        47
20.860        67
20.870        67
20.880        53
20.890         7
20.900        53
20.910        53
20.920        47
20.930        40
20.940        47
20.950        27
20.960        20
20.970        40
20.980        40
20.990        60
21.000        27
21.010        47
21.020        20
21.030        33
21.040        47
21.050        47
21.060        13
21.070        73
21.080        73
21.090        80
21.100        67
21.110        40
21.120        27
21.130        33
21.140        47
21.150        67
21.160        33
21.170        40
21.180        40
21.190        53
21.200        33
21.210        27
21.220        53
21.230        67
21.240        20
21.250         7
21.260        13
21.270        20
21.280        73
21.290        67
21.300        53
21.310        27
21.320        20
21.330        53
21.340        27
21.350        80
21.360        20
21.370        60
21.380        60
21.390        27
21.400        47
21.410        53
21.420        53
21.430        40
21.440        40
21.450        60
21.460        33
21.470        33
21.480        20
21.490        47
21.500        47
21.510        40
21.520        87
21.530        47
21.540        27
21.550        40
21.560        27
21.570        60
21.580        67
21.590        47
21.600        60
21.610        53
21.620        60
21.630        20
21.640        40
21.650        53
21.660        53
21.670        33
21.680        80
21.690        40
21.700        67
21.710        33
21.720        53
21.730        27
21.740        67
21.750        47
21.760        53
21.770       100
21.780        53
21.790        27
21.800        60
21.810        53
21.820        40
21.830        27
21.840        40
21.850        80
21.860        73
21.870        53
21.880        53
21.890        67
21.900        47
21.910        73
21.920        60
21.930        53
21.940        13
21.950        80
21.960        47
21.970        47
21.980        40
21.990        47
22.000        33
22.010        53
22.020        27
22.030        27
22.040        33
22.050        47
22.060        13
22.070        27
22.080        47
22.090        73
22.100        33
22.110        40
22.120        60
22.130        27
22.140        53
22.150        47
22.160        33
22.170        13
22.180        40
22.190        20
22.200        60
22.210        47
22.220         7
22.230         7
22.240        53
22.250        53
22.260        40
22.270        47
22.280        60
22.290        73
22.300        20
22.310        53
22.320        27
22.330        47
22.340        47
22.350        40
22.360        47
22.370        67
22.380        53
22.390        80
22.400        80
22.410        33
22.420        47
22.430        60
22.440        13
22.450        13
22.460        40
22.470        53
22.480        53
22.490        47
22.500        13
22.510        20
22.520        53
22.530        27
22.540        27
22.550        20
22.560        20
22.570        80
22.580        60
22.590        33
22.600        47
22.610        47
22.620        60
22.630        60
22.640        40
22.650        53
22.660        13
22.670        33
22.680        27
22.690         7
22.700        33
22.710        33
22.720        33
22.730        27
22.740        20
22.750        60
22.760        40
22.770        67
22.780        33
22.790        47
22.800        53
22.810        27
22.820        40
22.830        53
22.840        40
22.850        20
22.860        13
22.870        27
22.880        33
22.890        53
22.900        80
22.910        40
22.920        20
22.930        67
22.940        47
22.950        53
22.960        53
22.970        67
22.980        47
22.990        27
23.000        13
23.010        40
23.020        20
23.030        27
23.040        40
23.050        40
23.060        33
23.070        47
23.080        27
23.090        27
23.100        33
23.110        33
23.120        47
23.130        33
23.140         7
23.150        20
23.160        13
23.170        13
23.180        40
23.190        40
23.200        53
23.210        13
23.220        33
23.230        33
23.240        47
23.250        67
23.260        47
23.270        47
23.280        40
23.290        40
23.300        73
23.310        20
23.320        40
23.330        40
23.340        40
23.350        40
23.360        20
23.370        20
23.380        20
23.390        27
23.400        27
23.410        27
23.420         7
23.430        40
23.440        60
23.450        27
23.460        20
23.470        47
23.480        13
23.490        40
23.500        47
23.510        40
23.520        20
23.530        40
23.540        60
23.550        20
23.560        20
23.570        33
23.580        20
23.590        60
23.600        60
23.610        33
23.620        33
23.630        27
23.640        40
23.650        53
23.660        27
23.670        53
23.680        40
23.690        53
23.700        13
23.710        40
23.720        47
23.730        27
23.740        53
23.750        27
23.760        33
23.770        33
23.780        47
23.790        73
23.800        53
23.810        47
23.820        33
23.830        67
23.840        40
23.850        40
23.860        53
23.870        47
23.880        33
23.890        27
23.900        20
23.910        47
23.920        27
23.930        27
23.940        33
23.950        40
23.960        47
23.970        67
23.980        47
23.990        27
24.000        27
24.010        53
24.020        53
24.030        40
24.040        27
24.050        27
24.060        60
24.070        33
24.080        40
24.090        33
24.100        67
24.110        20
24.120        20
24.130        53
24.140        27
24.150        27
24.160        53
24.170        33
24.180        27
24.190        60
24.200        47
24.210        27
24.220        40
24.230        40
24.240        13
24.250        47
24.260        40
24.270        40
24.280        60
24.290        20
24.300        20
24.310        27
24.320        27
24.330        27
24.340        60
24.350        33
24.360        60
24.370        40
24.380        20
24.390        27
24.400        47
24.410        60
24.420        53
24.430        27
24.440        27
24.450        40
24.460        47
24.470        27
24.480        33
24.490        20
24.500        40
24.510        80
24.520        20
24.530        33
24.540        40
24.550        33
24.560        47
24.570        33
24.580        27
24.590        20
24.600        47
24.610        27
24.620         0
24.630        27
24.640        27
24.650        47
24.660        40
24.670        20
24.680        40
24.690        13
24.700        67
24.710        27
24.720        33
24.730        47
24.740        60
24.750         0
24.760        33
24.770        47
24.780        40
24.790        40
24.800        27
24.810        27
24.820        20
24.830        47
24.840        20
24.850        13
24.860        40
24.870        40
24.880        53
24.890        13
24.900        47
24.910        27
24.920        53
24.930        33
24.940        27
24.950        53
24.960        67
24.970        40
24.980        13
24.990        33
25.000        20
25.010        40
25.020        33
25.030        33
25.040        53
25.050        20
25.060        20
25.070        20
25.080        47
25.090        33
25.100        40
25.110        27
25.120        27
25.130        40
25.140        20
25.150        40
25.160        20
25.170        33
25.180        53
25.190        33
25.200        13
25.210        33
25.220        47
25.230        47
25.240        40
25.250        13
25.260        27
25.270        40
25.280        40
25.290        67
25.300        33
25.310        47
25.320        40
25.330        33
25.340        40
25.350        27
25.360        27
25.370        27
25.380        20
25.390        33
25.400        73
25.410        60
25.420        27
25.430        33
25.440        53
25.450        13
25.460        33
25.470        47
25.480        33
25.490        33
25.500        33
25.510        40
25.520        20
25.530        27
25.540        60
25.550        47
25.560        40
25.570        27
25.580        47
25.590        20
25.600        20
25.610        20
25.620        47
25.630        67
25.640        13
25.650         7
25.660        47
25.670        27
25.680        20
25.690        47
25.700        40
25.710        33
25.720        27
25.730         7
25.740        47
25.750        27
25.760         0
25.770        20
25.780        47
25.790        33
25.800        67
25.810        47
25.820        67
25.830        33
25.840        27
25.850        27
25.860        53
25.870        20
25.880        33
25.890        47
25.900        53
25.910        27
25.920        33
25.930        47
25.940        47
25.950         7
25.960        13
25.970        53
25.980        27
25.990         7
26.000        40
26.010        40
26.020        53
26.030        27
26.040        40
26.050        27
26.060        40
26.070        27
26.080        27
26.090        67
26.100        27
26.110        27
26.120        47
26.130        33
26.140        47
26.150        27
26.160        20
26.170        60
26.180        20
26.190        33
26.200        13
26.210        40
26.220        13
26.230         0
26.240        33
26.250        40
26.260        53
26.270        40
26.280        27
26.290        20
26.300        40
26.310        47
26.320        27
26.330        40
26.340        20
26.350        40
26.360        47
26.370        13
26.380        27
26.390        47
26.400         7
26.410        47
26.420        33
26.430        40
26.440        13
26.450        20
26.460        27
26.470        53
26.480        40
26.490        60
26.500        27
26.510        20
26.520        27
26.530        87
26.540        33
26.550        20
26.560        27
26.570        47
26.580        60
26.590        40
26.600        27
26.610        40
26.620        20
26.630        47
26.640        53
26.650        27
26.660        40
26.670        40
26.680        13
26.690        40
26.700        33
26.710        13
26.720        27
26.730        93
26.740        20
26.750        33
26.760        20
26.770         7
26.780        47
26.790        13
26.800        33
26.810        33
26.820        20
26.830        47
26.840        33
26.850        20
26.860        20
26.870        13
26.880        20
26.890        33
26.900        40
26.910        33
26.920        27
26.930        20
26.940        67
26.950        27
26.960        27
26.970        20
26.980        33
26.990        47
27.000        13
27.010        47
27.020        40
27.030        20
27.040        33
27.050        13
27.060        27
27.070        13
27.080        27
27.090        40
27.100        27
27.110        20
27.120        27
27.130        87
27.140        33
27.150        67
27.160        40
27.170        53
27.180        27
27.190        40
27.200        40
27.210        13
27.220        40
27.230        40
27.240        33
27.250        20
27.260        47
27.270        33
27.280        33
27.290        47
27.300        20
27.310        27
27.320        53
27.330        47
27.340        33
27.350        47
27.360        47
27.370        47
27.380        27
27.390        33
27.400        20
27.410        13
27.420        33
27.430        60
27.440        27
27.450        13
27.460        40
27.470        67
27.480        13
27.490        20
27.500        40
27.510        33
27.520        53
27.530        13
27.540        60
27.550        27
27.560        53
27.570        53
27.580        27
27.590        40
27.600        47
27.610        33
27.620        47
27.630        27
27.640        40
27.650        20
27.660        33
27.670        13
27.680        33
27.690        27
27.700        33
27.710        27
27.720        53
27.730        40
27.740        27
27.750        27
27.760        40
27.770        20
27.780        47
27.790        60
27.800        33
27.810        53
27.820        40
27.830        73
27.840        40
27.850        67
27.860        67
27.870        53
27.880        47
27.890        53
27.900        60
27.910        60
27.920        80
27.930       107
27.940        80
27.950        67
27.960        40
27.970        73
27.980        47
27.990        33
28.000        33
28.010        33
28.020        13
28.030        20
28.040        40
28.050        40
28.060        53
28.070        47
28.080        60
28.090        33
28.100        47
28.110        60
28.120        27
28.130        47
28.140        13
28.150        53
28.160        20
28.170        27
28.180        73
28.190        13
28.200        40
28.210        40
28.220        20
28.230        67
28.240        60
28.250        33
28.260        27
28.270        73
28.280         7
28.290        33
28.300        40
28.310        13
28.320        33
28.330        20
28.340        40
28.350        53
28.360        33
28.370        47
28.380        33
28.390        13
28.400        47
28.410        47
28.420        33
28.430        47
28.440        33
28.450        47
28.460        27
28.470        33
28.480        67
28.490        60
28.500        27
28.510        47
28.520        40
28.530        13
28.540         7
28.550        67
28.560        13
28.570        40
28.580        40
28.590        67
28.600        33
28.610        27
28.620        47
28.630        27
28.640        27
28.650        33
28.660        60
28.670        40
28.680        27
28.690        27
28.700        47
28.710        33
28.720        40
28.730        27
28.740        33
28.750        13
28.760        33
28.770        40
28.780        47
28.790        47
28.800        33
28.810        53
28.820         7
28.830        40
28.840        33
28.850        53
28.860        27
28.870        47
28.880        27
28.890        27
28.900        53
28.910         7
28.920        67
28.930        47
28.940        13
28.950        33
28.960        20
28.970        33
28.980        73
28.990        33
29.000        33
29.010        20
29.020        33
29.030         7
29.040        27
29.050        27
29.060        27
29.070        33
29.080        40
29.090        33
29.100        40
29.110        13
29.120        33
29.130        60
29.140        73
29.150        53
29.160        33
29.170        40
29.180        40
29.190        40
29.200        13
29.210        40
29.220        13
29.230        67
29.240        13
29.250        27
29.260        20
29.270        40
29.280        20
29.290        20
29.300        40
29.310        13
29.320        53
29.330        40
29.340        33
29.350        53
29.360        27
29.370        13
29.380        53
29.390        27
29.400        20
29.410        27
29.420        13
29.430        33
29.440        20
29.450        27
29.460        80
29.470        33
29.480        40
29.490        13
29.500        47
29.510        33
29.520        33
29.530        40
29.540        40
29.550        67
29.560        40
29.570        87
29.580        53
29.590        47
29.600        20
29.610        27
29.620        67
29.630        67
29.640        47
29.650        27
29.660        33
29.670        53
29.680        60
29.690        40
29.700        47
29.710        40
29.720        33
29.730        60
29.740        80
29.750        47
29.760        40
29.770        60
29.780        53
29.790        33
29.800        40
29.810        27
29.820        27
29.830        27
29.840        33
29.850        40
29.860        47
29.870        47
29.880        53
29.890        20
29.900        67
29.910        93
29.920        33
29.930        20
29.940        47
29.950        20
29.960        73
29.970        87
29.980        20
29.990        60
30.000        27
30.010        47
30.020        87
30.030        47
30.040        53
30.050        40
30.060        20
30.070        80
30.080        67
30.090       107
30.100        60
30.110        47
30.120        73
30.130        67
30.140        47
30.150        53
30.160        53
30.170        60
30.180        27
30.190        47
30.200        73
30.210        40
30.220        47
30.230        53
30.240        40
30.250       120
30.260        87
30.270        73
30.280        73
30.290        80
30.300        80
30.310        53
30.320        73
30.330        67
30.340        73
30.350       100
30.360        53
30.370        73
30.380        40
30.390        67
30.400       100
30.410        40
30.420        80
30.430        93
30.440        73
30.450        67
30.460        93
30.470        80
30.480        53
30.490        73
30.500       100
30.510        87
30.520        53
30.530       127
30.540       120
30.550       100
30.560       127
30.570        80
30.580       113
30.590       147
30.600       147
30.610       160
30.620       100
30.630       253
30.640       253
30.650       293
30.660       273
30.670       260
30.680       280
30.690       307
30.700       307
30.710       353
30.720       400
30.730       546
30.740       473
30.750       646
30.760       693
30.770       806
30.780       860
30.790      1033
30.800      1246
30.810      1406
30.820      1453
30.830      1653
30.840      2079
30.850      2319
30.860      2319
30.870      2939
30.880      3532
30.890      3705
30.900      3998
30.910      4711
30.920      4951
30.930      5245
30.940      5591
30.950      5951
30.960      5511
30.970      5424
30.980      5231
30.990      4532
31.000      4332
31.010      3639
31.020      3732
31.030      3052
31.040      2732
31.050      2286
31.060      2026
31.070      1739
31.080      1346
31.090       826
31.100       793
31.110       720
31.120       360
31.130       420
31.140       480
31.150       233
31.160       260
31.170       200
31.180       180
31.190       213
31.200       173
31.210       127
31.220       180
31.230       140
31.240       173
31.250        80
31.260        53
31.270       127
31.280       140
31.290        93
31.300       153
31.310        93
31.320       107
31.330        80
31.340       100
31.350        87
31.360       127
31.370       100
31.380       147
31.390        67
31.400        80
31.410        67
31.420        67
31.430        67
31.440        67
31.450       107
31.460        67
31.470       113
31.480        67
31.490        40
31.500        73
31.510        73
31.520        73
31.530        73
31.540        53
31.550        67
31.560        67
31.570        53
31.580        73
31.590        40
31.600        87
31.610        67
31.620       120
31.630        80
31.640        47
31.650        73
31.660        13
31.670        73
31.680        60
31.690        87
31.700        60
31.710        67
31.720        27
31.730        47
31.740        40
31.750        53
31.760        60
31.770        47
31.780        40
31.790        53
31.800        40
31.810        40
31.820        47
31.830        20
31.840        53
31.850        73
31.860        67
31.870        27
31.880        40
31.890        40
31.900        60
31.910        40
31.920        60
31.930        67
31.940        20
31.950        47
31.960        40
31.970        20
31.980        47
31.990        60
32.000        40
32.010        73
32.020        47
32.030        47
32.040        47
32.050        73
32.060        87
32.070        40
32.080        87
32.090        73
32.100        47
32.110        27
32.120        47
32.130        67
32.140        40
32.150        47
32.160        33
32.170        53
32.180        93
32.190        40
32.200        33
32.210        27
32.220        47
32.230        40
32.240        60
32.250        53
32.260        73
32.270        53
32.280        53
32.290        47
32.300        33
32.310        40
32.320        33
32.330        33
32.340        47
32.350        40
32.360        60
32.370        33
32.380        33
32.390        87
32.400        47
32.410        87
32.420        47
32.430        53
32.440        40
32.450        67
32.460        33
32.470        60
32.480        20
32.490        40
32.500        40
32.510        53
32.520        47
32.530        53
32.540        20
32.550        67
32.560        33
32.570        33
32.580        53
32.590        33
32.600        47
32.610        20
32.620        20
32.630        40
32.640        40
32.650        67
32.660        20
32.670        87
32.680        53
32.690        40
32.700        60
32.710        87
32.720        40
32.730        40
32.740        47
32.750        40
32.760        53
32.770        47
32.780        53
32.790        13
32.800        47
32.810        60
32.820        33
32.830        27
32.840        20
32.850        47
32.860        60
32.870        47
32.880        20
32.890        40
32.900        47
32.910        60
32.920        27
32.930        33
32.940        33
32.950        53
32.960        20
32.970        27
32.980        27
32.990        33
33.000        40
33.010        60
33.020        27
33.030        27
33.040        67
33.050        33
33.060        40
33.070        13
33.080        47
33.090        27
33.100        40
33.110        47
33.120        40
33.130        40
33.140        33
33.150        20
33.160        27
33.170        27
33.180        53
33.190        40
33.200        27
33.210        53
33.220        40
33.230        40
33.240        47
33.250        73
33.260        73
33.270        33
33.280        40
33.290        20
33.300        80
33.310        27
33.320        67
33.330        47
33.340        27
33.350        33
33.360        33
33.370        13
33.380         7
33.390        67
33.400        40
33.410        27
33.420        67
33.430        47
33.440        47
33.450        33
33.460        33
33.470        27
33.480        40
33.490        40
33.500        87
33.510        33
33.520        40
33.530        73
33.540        40
33.550        47
33.560        53
33.570        47
33.580        27
33.590        40
33.600        47
33.610        67
33.620        27
33.630        13
33.640        20
33.650        53
33.660        20
33.670        60
33.680        47
33.690        27
33.700        27
33.710        33
33.720        47
33.730         7
33.740        53
33.750        20
33.760        27
33.770        67
33.780        60
33.790        47
33.800        40
33.810        53
33.820        47
33.830        20
33.840        60
33.850        33
33.860        40
33.870        47
33.880        27
33.890        27
33.900        40
33.910        40
33.920        13
33.930        20
33.940        80
33.950        73
33.960        27
33.970        27
33.980        73
33.990        33
34.000        53
34.010        53
34.020        27
34.030        67
34.040        33
34.050        33
34.060        47
34.070        40
34.080        20
34.090        13
34.100        27
34.110        27
34.120        40
34.130        27
34.140        27
34.150        20
34.160        47
34.170        20
34.180        40
34.190        33
34.200        27
34.210        47
34.220        40
34.230        53
34.240        53
34.250        13
34.260        73
34.270        47
34.280        67
34.290         7
34.300        60
34.310        33
34.320        40
34.330        53
34.340        13
34.350        13
34.360        27
34.370        27
34.380        33
34.390        13
34.400        73
34.410        33
34.420        33
34.430        47
34.440        60
34.450        40
34.460        33
34.470        60
34.480        13
34.490        40
34.500        20
34.510        20
34.520        33
34.530        27
34.540        20
34.550        60
34.560        27
34.570        53
34.580        47
34.590        40
34.600        33
34.610        33
34.620        60
34.630        13
34.640        33
34.650        20
34.660        20
34.670        20
34.680        20
34.690        40
34.700        20
34.710        27
34.720        27
34.730        27
34.740        53
34.750        33
34.760        40
34.770        33
34.780        47
34.790        20
34.800        27
34.810        40
34.820         7
34.830        27
34.840        67
34.850        33
34.860        27
34.870        53
34.880        27
34.890        20
34.900        40
34.910        27
34.920        33
34.930        33
34.940        33
34.950        33
34.960        27
34.970        33
34.980        47
34.990        53
35.000        33
35.010        47
35.020        27
35.030        60
35.040        80
35.050        47
35.060        93
35.070        93
35.080        80
35.090        93
35.100        53
35.110        47
35.120       100
35.130        73
35.140        87
35.150        73
35.160       140
35.170       147
35.180       100
35.190       100
35.200        93
35.210        73
35.220        93
35.230        40
35.240        87
35.250        80
35.260        60
35.270        67
35.280        33
35.290        47
35.300        47
35.310        47
35.320        47
35.330        60
35.340        40
35.350        53
35.360        27
35.370        40
35.380        27
35.390        20
35.400        33
35.410         7
35.420        60
35.430        33
35.440        33
35.450        13
35.460        40
35.470        33
35.480        33
35.490        33
35.500        20
35.510        53
35.520        13
35.530         7
35.540        20
35.550        47
35.560        20
35.570        40
35.580        33
35.590        33
35.600        40
35.610         0
35.620        47
35.630        13
35.640        47
35.650        40
35.660        60
35.670        27
35.680        27
35.690        80
35.700        13
35.710        13
35.720        40
35.730        60
35.740        20
35.750        13
35.760        47
35.770        33
35.780        53
35.790         7
35.800        33
35.810        27
35.820        20
35.830        33
35.840        27
35.850        40
35.860        20
35.870        27
35.880        20
35.890        20
35.900        40
35.910        40
35.920        20
35.930         7
35.940        47
35.950        13
35.960        13
35.970        33
35.980        27
35.990        33
36.000        33
36.010        47
36.020        13
36.030        27
36.040        13
36.050        33
36.060        27
36.070        80
36.080        20
36.090        27
36.100        47
36.110        20
36.120        33
36.130        13
36.140        27
36.150        20
36.160        33
36.170        60
36.180         7
36.190        47
36.200        13
36.210         7
36.220        27
36.230        20
36.240        47
36.250        33
36.260        33
36.270        20
36.280         0
36.290        40
36.300        20
36.310        47
36.320        33
36.330        40
36.340        33
36.350        47
36.360        47
36.370        40
36.380        13
36.390        27
36.400        20
36.410        40
36.420        27
36.430        40
36.440         7
36.450         7
36.460        33
36.470        40
36.480        20
36.490        40
36.500        73
36.510        13
36.520        27
36.530        40
36.540        20
36.550        27
36.560         0
36.570        27
36.580        47
36.590        47
36.600        33
36.610        20
36.620        27
36.630        40
36.640        27
36.650        27
36.660        33
36.670        20
36.680        27
36.690        33
36.700        60
36.710        20
36.720        20
36.730        27
36.740        27
36.750        20
36.760        13
36.770        13
36.780        33
36.790        33
36.800        27
36.810        20
36.820        27
36.830        47
36.840        13
36.850        20
36.860        20
36.870        20
36.880        33
36.890        27
36.900        40
36.910        47
36.920        40
36.930         0
36.940        33
36.950        27
36.960        53
36.970        47
36.980        20
36.990        13
37.000         7
37.010        20
37.020        27
37.030        47
37.040        33
37.050        47
37.060        47
37.070        47
37.080        13
37.090        33
37.100         7
37.110        33
37.120        20
37.130        40
37.140        40
37.150        40
37.160        73
37.170        33
37.180        20
37.190        40
37.200        20
37.210        13
37.220        13
37.230        20
37.240        27
37.250        20
37.260        20
37.270        33
37.280        27
37.290        60
37.300        33
37.310        27
37.320        27
37.330        27
37.340        27
37.350        33
37.360        27
37.370        40
37.380        20
37.390        33
37.400        60
37.410        53
37.420        27
37.430         7
37.440        27
37.450        27
37.460        40
37.470        33
37.480        27
37.490         7
37.500         0
37.510         7
37.520        60
37.530        33
37.540        40
37.550        40
37.560        20
37.570        13
37.580        20
37.590        20
37.600        27
37.610        33
37.620        13
37.630        27
37.640        33
37.650        20
37.660        13
37.670        40
37.680        20
37.690        27
37.700        33
37.710        27
37.720        33
37.730        33
37.740         7
37.750        40
37.760        33
37.770        67
37.780        13
37.790        53
37.800        27
37.810        13
37.820        47
37.830        27
37.840         7
37.850        20
37.860        53
37.870        33
37.880        53
37.890        20
37.900        33
37.910        27
37.920        47
37.930        40
37.940        47
37.950        40
37.960        53
37.970         7
37.980        60
37.990        27
38.000        33
38.010        40
38.020        60
38.030        80
38.040        33
38.050        60
38.060        53
38.070        93
38.080        87
38.090        67
38.100       147
38.110        67
38.120       100
38.130        60
38.140       180
38.150        87
38.160       133
38.170       173
38.180       140
38.190       113
38.200       127
38.210        80
38.220       133
38.230       147
38.240       100
38.250        67
38.260       113
38.270       100
38.280        47
38.290       100
38.300        33
38.310        60
38.320        67
38.330        60
38.340        60
38.350        60
38.360        33
38.370        27
38.380        40
38.390        27
38.400        87
38.410        40
38.420        20
38.430        27
38.440        60
38.450        33
38.460        40
38.470        27
38.480        60
38.490        40
38.500        13
38.510        33
38.520        20
38.530        33
38.540        27
38.550        20
38.560         7
38.570        27
38.580        40
38.590        27
38.600        47
38.610        33
38.620        20
38.630        47
38.640        20
38.650        27
38.660        13
38.670        47
38.680        33
38.690        27
38.700        53
38.710        13
38.720        27
38.730        13
38.740        20
38.750        33
38.760        40
38.770        40
38.780        13
38.790        27
38.800        27
38.810        47
38.820        20
38.830        27
38.840        40
38.850        20
38.860        33
38.870        27
38.880        47
38.890        13
38.900         7
38.910        20
38.920        20
38.930        33
38.940        13
38.950        20
38.960        27
38.970        20
38.980        13
38.990        13
39.000        33
39.010        27
39.020        27
39.030        20
39.040        13
39.050         7
39.060        20
39.070        20
39.080        27
39.090         0
39.100         0
39.110        13
39.120        47
39.130        13
39.140        13
39.150        27
39.160         0
39.170        33
39.180        27
39.190        20
39.200         0
39.210        60
39.220        33
39.230         7
39.240        20
39.250        47
39.260        47
39.270        33
39.280        27
39.290        13
39.300        13
39.310        33
39.320        13
39.330        33
39.340        60
39.350        27
39.360        20
39.370        13
39.380        20
39.390        53
39.400        33
39.410        20
39.420        47
39.430        60
39.440        13
39.450        40
39.460        13
39.470        33
39.480         7
39.490        13
39.500        40
39.510        27
39.520        13
39.530        20
39.540        47
39.550        33
39.560        33
39.570        13
39.580        40
39.590        40
39.600        27
39.610        47
39.620        13
39.630        20
39.640        13
39.650        27
39.660         0
39.670        20
39.680        20
39.690        33
39.700         7
39.710        20
39.720        73
39.730         7
39.740        27
39.750         7
39.760        20
39.770        27
39.780        27
39.790        33
39.800        40
39.810        13
39.820        13
39.830        40
39.840        13
39.850        27
39.860         7
39.870        20
39.880        33
39.890        13
39.900        13
39.910         7
39.920        20
39.930        33
39.940        27
39.950        13
39.960        13
39.970        27
39.980        33
39.990         0
40.000        27
40.010        33
40.020        33
40.030        40
40.040         7
40.050        40
40.060        27
40.070        33
40.080        20
40.090        20
40.100         0
40.110        27
40.120        20
40.130        27
40.140        20
40.150        27
40.160         7
40.170        20
40.180        33
40.190        13
40.200         0
40.210        33
40.220        33
40.230        20
40.240        27
40.250         7
40.260        33
40.270        27
40.280         7
40.290         7
40.300        20
40.310        33
40.320        20
40.330        20
40.340        27
40.350         0
40.360        60
40.370        20
40.380        20
40.390        13
40.400        27
40.410        13
40.420        20
40.430         7
40.440        20
40.450         7
40.460        20
40.470        33
40.480        20
40.490         0
40.500        67
40.510        33
40.520        27
40.530        13
40.540        13
40.550        27
40.560         7
40.570        27
40.580        20
40.590        13
40.600        27
40.610        13
40.620        20
40.630        47
40.640        20
40.650        33
40.660         7
40.670        20
40.680        20
40.690        20
40.700        20
40.710        27
40.720        33
40.730        33
40.740        13
40.750        20
40.760        20
40.770        40
40.780        20
40.790         0
40.800        27
40.810         7
40.820        13
40.830         0
40.840        20
40.850         7
40.860        27
40.870         7
40.880        40
40.890        20
40.900        33
40.910        20
40.920        20
40.930        20
40.940        40
40.950        33
40.960        40
40.970        20
40.980         0
40.990        33
41.000         0
41.010        33
41.020        13
41.030        13
41.040        27
41.050        20
41.060        33
41.070        20
41.080         7
41.090        13
41.100        20
41.110        20
41.120        20
41.130        27
41.140        20
41.150         7
41.160        20
41.170        33
41.180        20
41.190        13
41.200        20
41.210        27
41.220        13
41.230        27
41.240        20
41.250        27
41.260        27
41.270         7
41.280         7
41.290        20
41.300        33
41.310        20
41.320         7
41.330        47
41.340        47
41.350        20
41.360        20
41.370        27
41.380        40
41.390        40
41.400        13
41.410        20
41.420        13
41.430        27
41.440         7
41.450         7
41.460        33
41.470         7
41.480        27
41.490        27
41.500        33
41.510         7
41.520        40
41.530        33
41.540        33
41.550        47
41.560        40
41.570        33
41.580        47
41.590        20
41.600        20
41.610        40
41.620        47
41.630        47
41.640        20
41.650        67
41.660        27
41.670        47
41.680        73
41.690        53
41.700        53
41.710       127
41.720        73
41.730        40
41.740        40
41.750        53
41.760        47
41.770        27
41.780        40
41.790        67
41.800        33
41.810        47
41.820        40
41.830        33
41.840        33
41.850        40
41.860        27
41.870        40
41.880         7
41.890        13
41.900        20
41.910        13
41.920        27
41.930        13
41.940         7
41.950        20
41.960        33
41.970         0
41.980        20
41.990        20
42.000        20
42.010        20
42.020        13
42.030         0
42.040        13
42.050        20
42.060        40
42.070        20
42.080        27
42.090        13
42.100        20
42.110         7
42.120         7
42.130        47
42.140         7
42.150        13
42.160        13
42.170        20
42.180         7
42.190        27
42.200        20
42.210        33
42.220        13
42.230         0
42.240        27
42.250        13
42.260        27
42.270        13
42.280        20
42.290        13
42.300        20
42.310        20
42.320        13
42.330        20
42.340        27
42.350         7
42.360         7
42.370        20
42.380        33
42.390         0
42.400        20
42.410        27
42.420         7
42.430         0
42.440        40
42.450        13
42.460        20
42.470         7
42.480        20
42.490        40
42.500        33
42.510        27
42.520         7
42.530        33
42.540        33
42.550         7
42.560        13
42.570        13
42.580        33
42.590        27
42.600        20
42.610        20
42.620        40
42.630        20
42.640         7
42.650         0
42.660        27
42.670        13
42.680        20
42.690        20
42.700        40
42.710        13
42.720        27
42.730        20
42.740         7
42.750        27
42.760         7
42.770        27
42.780        20
42.790        13
42.800        20
42.810        13
42.820        20
42.830        20
42.840        40
42.850        20
42.860        27
42.870        20
42.880        20
42.890        13
42.900        33
42.910        13
42.920        33
42.930        27
42.940         7
42.950        13
42.960        13
42.970        13
42.980        40
42.990        20
43.000        27
43.010         7
43.020        47
43.030        13
43.040        27
43.050        27
43.060        27
43.070        20
43.080        40
43.090        13
43.100        13
43.110         7
43.120         7
43.130        27
43.140        33
43.150         7
43.160         7
43.170        13
43.180        20
43.190        20
43.200         7
43.210         7
43.220        33
43.230        27
43.240        33
43.250        47
43.260        13
43.270        27
43.280        33
43.290        27
43.300        53
43.310        20
43.320        20
43.330        67
43.340        33
43.350        60
43.360        33
43.370        67
43.380        47
43.390        40
43.400        67
43.410        33
43.420        40
43.430         7
43.440        27
43.450        20
43.460        27
43.470        20
43.480        53
43.490        60
43.500        33
43.510        33
43.520        40
43.530        13
43.540        20
43.550        13
43.560        13
43.570        13
43.580        27
43.590        20
43.600         7
43.610        53
43.620        20
43.630        20
43.640        33
43.650        27
43.660        27
43.670        13
43.680        33
43.690        20
43.700        20
43.710        13
43.720        13
43.730        33
43.740        13
43.750        13
43.760        40
43.770        47
43.780        27
43.790         0
43.800        20
43.810        13
43.820         7
43.830        20
43.840        13
43.850        13
43.860        20
43.870        20
43.880         7
43.890        33
43.900        13
43.910         7
43.920        27
43.930        13
43.940        27
43.950        33
43.960        40
43.970        13
43.980         7
43.990        33
44.000        13
44.010        27
44.020        27
44.030        27
44.040        33
44.050        27
44.060        40
44.070        40
44.080        40
44.090        40
44.100        27
44.110        13
44.120        33
44.130        27
44.140        27
44.150        27
44.160        40
44.170        13
44.180        40
44.190        53
44.200        80
44.210        73
44.220        73
44.230        47
44.240        73
44.250        67
44.260        47
44.270        73
44.280        40
44.290        80
44.300       133
44.310        67
44.320       120
44.330       107
44.340        87
44.350       167
44.360        73
44.370       173
44.380       127
44.390       100
44.400       160
44.410       107
44.420       100
44.430        87
44.440       120
44.450        67
44.460       133
44.470        73
44.480        87
44.490       127
44.500       107
44.510        47
44.520        67
44.530        93
44.540        73
44.550        60
44.560        53
44.570        40
44.580        47
44.590        53
44.600        73
44.610        40
44.620        27
44.630        40
44.640        47
44.650        33
44.660        93
44.670        27
44.680        27
44.690        67
44.700        27
44.710        40
44.720        47
44.730        27
44.740        27
44.750        27
44.760        20
44.770        33
44.780        33
44.790        27
44.800        33
44.810        27
44.820        13
44.830        13
44.840        13
44.850         7
44.860        20
44.870        20
44.880        13
44.890        13
44.900         7
44.910        27
44.920        20
44.930        40
44.940        13
44.950        33
44.960        33
44.970        20
44.980        33
44.990        40
45.000        27
45.010        53
45.020        20
45.030        33
45.040        13
45.050        40
45.060        53
45.070        27
45.080        33
45.090        40
45.100        27
45.110        47
45.120         7
45.130        13
45.140        20
45.150        27
45.160        20
45.170        27
45.180         7
45.190         7
45.200        33
45.210        20
45.220        20
45.230        20
45.240        33
45.250        27
45.260        13
45.270        13
45.280        13
45.290        27
45.300        20
45.310         7
45.320         7
45.330        20
45.340        40
45.350        20
45.360        20
45.370        20
45.380         7
45.390         7
45.400         0
45.410        13
45.420        13
45.430        20
45.440        13
45.450         7
45.460        20
45.470        13
45.480        47
45.490        13
45.500        27
45.510        27
45.520        40
45.530        13
45.540        13
45.550        33
45.560        27
45.570         7
45.580         0
45.590        33
45.600         7
45.610         0
45.620        27
45.630         7
45.640        13
45.650         7
45.660        20
45.670        13
45.680        27
45.690        13
45.700        20
45.710        20
45.720         7
45.730        20
45.740        33
45.750         7
45.760        27
45.770         7
45.780        33
45.790        13
45.800        20
45.810         7
45.820        33
45.830         7
45.840        13
45.850         0
45.860        13
45.870         0
45.880        27
45.890        20
45.900        13
45.910        27
45.920        27
45.930        13
45.940        27
45.950         0
45.960         7
45.970        20
45.980        27
45.990         7
46.000        20
46.010        20
46.020        33
46.030        13
46.040        13
46.050        13
46.060        13
46.070        13
46.080        27
46.090         7
46.100         7
46.110        20
46.120        20
46.130        20
46.140        27
46.150         7
46.160         7
46.170        33
46.180        20
46.190        13
46.200        13
46.210        27
46.220        20
46.230        33
46.240        27
46.250        20
46.260        20
46.270        20
46.280         0
46.290         7
46.300        27
46.310        27
46.320        20
46.330        33
46.340        40
46.350         7
46.360         7
46.370        13
46.380        13
46.390        13
46.400        13
46.410         7
46.420         0
46.430        27
46.440        13
46.450        27
46.460        20
46.470        20
46.480        13
46.490        13
46.500        13
46.510         0
46.520        33
46.530         7
46.540        20
46.550        13
46.560        27
46.570        27
46.580        13
46.590         7
46.600         7
46.610        27
46.620        13
46.630        13
46.640         7
46.650        20
46.660        13
46.670        27
46.680        20
46.690        27
46.700        20
46.710        13
46.720        20
46.730        13
46.740         7
46.750        13
46.760        20
46.770         0
46.780        13
46.790        27
46.800        13
46.810        20
46.820        13
46.830         0
46.840        13
46.850        40
46.860        20
46.870        20
46.880         0
46.890        33
46.900        27
46.910        13
46.920        13
46.930        27
46.940        33
46.950        20
46.960         7
46.970        27
46.980         0
46.990        33
47.000        13
47.010        40
47.020         7
47.030         7
47.040        27
47.050         7
47.060        20
47.070        13
47.080         7
47.090        27
47.100        33
47.110         7
47.120        27
47.130         7
47.140        13
47.150        27
47.160         7
47.170         7
47.180         0
47.190         7
47.200        47
47.210        20
47.220        27
47.230        13
47.240        20
47.250        20
47.260         7
47.270        20
47.280        13
47.290        13
47.300        20
47.310        20
47.320        33
47.330        40
47.340         0
47.350        20
47.360        20
47.370        13
47.380        20
47.390        33
47.400        13
47.410        27
47.420        13
47.430        13
47.440        13
47.450        27
47.460        13
47.470        33
47.480        20
47.490         0
47.500         0
47.510        27
47.520        13
47.530         7
47.540        27
47.550        20
47.560         7
47.570         7
47.580        20
47.590        20
47.600        20
47.610         0
47.620         7
47.630        27
47.640        33
47.650        20
47.660        13
47.670        13
47.680         7
47.690         7
47.700        13
47.710        20
47.720        13
47.730        27
47.740         7
47.750        27
47.760        27
47.770        13
47.780        13
47.790         0
47.800         7
47.810        13
47.820         7
47.830         7
47.840        13
47.850        13
47.860        33
47.870        13
47.880        40
47.890        13
47.900        20
47.910         7
47.920        13
47.930        13
47.940        20
47.950         7
47.960         0
47.970        27
47.980         0
47.990         7
48.000         0
48.010         0
48.020         0
48.030        27
48.040         0
48.050        20
48.060        13
48.070         7
48.080        20
48.090        20
48.100         0
48.110        27
48.120        13
48.130         7
48.140        47
48.150         7
48.160         0
48.170        20
48.180         7
48.190        13
48.200        20
48.210         7
48.220        13
48.230         7
48.240        20
48.250        13
48.260        13
48.270        20
48.280        20
48.290        33
48.300        13
48.310         0
48.320         7
48.330         0
48.340         0
48.350        27
48.360        20
48.370        27
48.380        20
48.390        13
48.400         0
48.410         7
48.420        27
48.430        20
48.440        27
48.450        27
48.460        13
48.470         0
48.480         0
48.490         7
48.500         7
48.510        20
48.520        20
48.530        27
48.540        27
48.550        13
48.560        13
48.570        13
48.580        33
48.590        13
48.600        27
48.610        13
48.620        13
48.630        27
48.640        13
48.650        13
48.660        13
48.670         0
48.680        13
48.690        13
48.700         0
48.710         7
48.720        20
48.730        13
48.740         7
48.750         0
48.760        13
48.770         7
48.780        20
48.790        20
48.800        20
48.810        20
48.820        27
48.830        20
48.840         0
48.850         0
48.860         0
48.870         7
48.880        20
48.890        13
48.900         7
48.910         7
48.920         7
48.930         0
48.940         7
48.950        20
48.960        27
48.970        20
48.980         7
48.990        27
49.000        33
49.010         7
49.020        13
49.030        27
49.040        27
49.050        20
49.060         7
49.070        20
49.080        20
49.090        13
49.100        20
49.110         0
49.120         7
49.130         0
49.140        13
49.150        13
49.160        20
49.170         7
49.180        20
49.190        13
49.200        13
49.210         7
49.220        13
49.230        13
49.240        27
49.250         7
49.260         0
49.270        13
49.280         0
49.290        20
49.300        20
49.310         7
49.320        20
49.330         7
49.340         0
49.350        13
49.360        33
49.370        13
49.380        40
49.390        20
49.400        13
49.410         0
49.420        27
49.430        20
49.440        33
49.450        13
49.460        27
49.470         0
49.480        27
49.490         7
49.500         0
49.510        13
49.520        13
49.530         7
49.540        20
49.550         7
49.560         7
49.570        13
49.580        13
49.590        33
49.600        33
49.610        27
49.620        33
49.630         0
49.640         7
49.650         7
49.660         7
49.670        27
49.680        13
49.690        13
49.700        20
49.710         7
49.720        20
49.730         7
49.740         7
49.750        13
49.760         0
49.770        13
49.780        20
49.790        20
49.800         0
49.810         7
49.820         0
49.830        13
49.840        13
49.850        33
49.860         7
49.870        13
49.880        13
49.890        13
49.900         0
49.910        20
49.920        33
49.930         7
49.940         7
49.950        27
49.960         7
49.970        33
49.980         7
49.990        20
50.000         7
50.010         7
50.020        20
50.030         7
50.040         0
50.050         7
50.060        40
50.070        20
50.080        13
50.090        20
50.100        27
50.110         7
50.120        33
50.130         7
50.140        13
50.150         7
50.160         7
50.170        27
50.180         7
50.190        20
50.200        27
50.210        20
50.220        13
50.230         7
50.240         0
50.250        13
50.260         7
50.270        20
50.280        13
50.290        13
50.300        13
50.310         0
50.320        20
50.330        13
50.340        27
50.350         7
50.360        27
50.370        20
50.380        13
50.390        33
50.400        13
50.410         0
50.420        20
50.430        27
50.440        13
50.450         7
50.460        13
50.470         0
50.480        13
50.490        13
50.500         0
50.510        13
50.520        13
50.530        20
50.540        20
50.550        20
50.560        20
50.570        13
50.580         7
50.590        27
50.600        13
50.610         0
50.620         0
50.630        20
50.640        27
50.650         7
50.660         7
50.670        13
50.680         0
50.690        13
50.700         7
50.710        13
50.720        20
50.730         0
50.740        33
50.750        20
50.760         7
50.770         7
50.780         7
50.790        27
50.800        13
50.810        13
50.820        20
50.830        27
50.840        33
50.850        20
50.860        53
50.870        47
50.880        13
50.890        27
50.900         7
50.910         0
50.920         7
50.930        13
50.940        20
50.950         7
50.960        20
50.970         0
50.980        13
50.990        20
51.000         7
51.010        13
51.020         7
51.030        20
51.040        20
51.050         0
51.060        13
51.070        13
51.080        20
51.090        13
51.100        13
51.110         7
51.120        40
51.130         7
51.140         7
51.150         7
51.160        20
51.170        27
51.180        33
51.190        20
51.200        13
51.210        13
51.220         7
51.230         7
51.240        13
51.250        13
51.260        13
51.270         7
51.280         7
51.290        20
51.300        13
51.310        20
51.320        20
51.330         7
51.340         0
51.350         7
51.360         0
51.370         0
51.380         0
51.390         7
51.400        13
51.410        20
51.420         0
51.430         7
51.440        13
51.450        13
51.460        27
51.470        20
51.480        20
51.490         7
51.500        20
51.510        13
51.520        20
51.530        20
51.540        27
51.550        20
51.560        13
51.570        20
51.580        13
51.590        27
51.600        20
51.610        20
51.620        20
51.630        27
51.640         7
51.650        27
51.660         7
51.670         7
51.680         7
51.690         7
51.700        27
51.710        13
51.720         7
51.730        20
51.740        13
51.750        27
51.760         7
51.770        20
51.780         7
51.790        20
51.800        13
51.810         0
51.820         7
51.830        20
51.840        33
51.850         0
51.860         7
51.870        13
51.880        20
51.890        20
51.900        27
51.910        33
51.920        40
51.930         7
51.940        40
51.950        13
51.960        27
51.970         7
51.980         7
51.990        20
52.000         7
52.010        13
52.020        13
52.030         0
52.040        20
52.050        33
52.060        20
52.070        20
52.080         7
52.090        40
52.100         7
52.110        13
52.120        13
52.130         7
52.140        13
52.150        13
52.160        13
52.170        13
52.180         7
52.190         0
52.200        13
52.210        20
52.220        33
52.230        13
52.240        20
52.250        27
52.260        27
52.270        33
52.280        27
52.290        27
52.300        13
52.310         7
52.320         7
52.330         0
52.340        13
52.350        27
52.360        20
52.370        13
52.380         7
52.390         0
52.400         7
52.410         0
52.420         7
52.430        40
52.440        33
52.450         0
52.460        13
52.470        20
52.480        13
52.490         7
52.500        40
52.510        13
52.520        20
52.530        33
52.540        20
52.550        33
52.560        27
52.570        33
52.580         7
52.590        13
52.600        20
52.610        13
52.620        20
52.630        13
52.640        27
52.650         7
52.660         7
52.670         7
52.680        27
52.690         7
52.700        13
52.710         7
52.720         7
52.730        27
52.740         7
52.750        13
52.760        13
52.770        27
52.780        13
52.790        33
52.800        13
52.810         7
52.820         0
52.830         7
52.840        27
52.850         7
52.860        20
52.870        20
52.880        20
52.890        20
52.900        27
52.910         7
52.920         0
52.930        13
52.940        13
52.950         7
52.960        27
52.970        13
52.980        33
52.990         7
53.000        13
53.010         7
53.020        20
53.030        13
53.040         7
53.050        33
53.060        13
53.070        20
53.080         7
53.090        20
53.100         7
53.110        13
53.120         0
53.130         7
53.140         0
53.150        33
53.160        20
53.170         7
53.180        20
53.190         7
53.200         0
53.210        27
53.220         0
53.230        13
53.240        20
53.250         7
53.260        20
53.270        13
53.280         7
53.290        20
53.300        13
53.310        27
53.320         7
53.330         7
53.340        27
53.350         7
53.360        20
53.370        20
53.380        13
53.390         7
53.400        27
53.410        13
53.420        20
53.430        20
53.440        13
53.450         7
53.460        33
53.470        13
53.480        27
53.490         7
53.500        27
53.510         7
53.520        20
53.530         7
53.540         7
53.550        20
53.560        33
53.570        13
53.580         0
53.590        13
53.600        13
53.610         7
53.620        13
53.630        13
53.640        13
53.650        20
53.660        20
53.670         7
53.680        13
53.690        33
53.700        13
53.710        33
53.720         0
53.730         7
53.740        13
53.750        27
53.760        20
53.770        20
53.780        20
53.790        47
53.800         7
53.810        13
53.820        33
53.830        27
53.840        20
53.850        20
53.860        13
53.870        47
53.880        27
53.890        33
53.900        20
53.910        27
53.920        20
53.930        20
53.940        20
53.950        13
53.960        13
53.970        40
53.980        20
53.990         7
54.000        13
54.010        40
54.020        20
54.030        13
54.040        20
54.050        20
54.060        13
54.070         7
54.080        20
54.090         7
54.100        27
54.110        13
54.120         7
54.130        20
54.140        13
54.150        13
54.160        13
54.170         7
54.180        20
54.190         0
54.200         7
54.210        13
54.220        27
54.230        20
54.240         7
54.250         7
54.260        33
54.270        33
54.280        47
54.290         0
54.300        27
54.310         0
54.320        27
54.330         0
54.340        33
54.350        13
54.360        27
54.370        13
54.380        13
54.390         7
54.400         7
54.410         7
54.420        27
54.430         0
54.440        53
54.450        27
54.460         0
54.470        20
54.480        13
54.490        33
54.500        40
54.510        20
54.520        40
54.530        33
54.540         7
54.550        13
54.560         7
54.570        20
54.580        33
54.590        13
54.600        20
54.610        47
54.620         7
54.630        20
54.640        13
54.650         7
54.660        40
54.670        40
54.680        33
54.690        20
54.700         7
54.710        13
54.720        27
54.730        20
54.740        27
54.750        40
54.760        47
54.770        47
54.780        40
54.790        33
54.800        40
54.810        60
54.820        47
54.830        73
54.840        60
54.850        73
54.860        73
54.870        93
54.880        80
54.890        67
54.900       100
54.910       153
54.920       113
54.930       187
54.940       220
54.950       173
54.960       113
54.970       293
54.980       180
54.990       320
55.000       333
55.010       293
55.020       320
55.030       420
55.040       347
55.050       267
55.060       307
55.070       247
55.080       407
55.090       327
55.100       307
55.110       347
55.120       313
55.130       207
55.140       227
55.150       200
55.160       233
55.170       180
55.180       280
55.190       200
55.200       253
55.210       240
55.220       180
55.230        93
55.240       160
55.250       140
55.260       120
55.270        73
55.280        73
55.290        93
55.300        33
55.310        47
55.320        80
55.330        53
55.340        40
55.350        47
55.360        80
55.370        60
55.380        20
55.390        20
55.400        27
55.410        27
55.420        33
55.430        47
55.440        20
55.450        27
55.460        33
55.470        40
55.480        40
55.490        27
55.500        20
55.510        40
55.520        20
55.530        13
55.540        13
55.550         7
55.560        13
55.570         7
55.580        60
55.590        47
55.600        13
55.610        20
55.620        20
55.630        27
55.640        20
55.650        33
55.660         0
55.670        20
55.680        33
55.690        13
55.700        33
55.710        27
55.720         7
55.730        27
55.740         7
55.750        27
55.760        33
55.770        13
55.780        20
55.790        20
55.800         7
55.810        27
55.820        27
55.830        20
55.840        33
55.850         0
55.860         7
55.870         7
55.880        20
55.890         7
55.900        13
55.910        13
55.920        20
55.930        27
55.940         7
55.950         0
55.960         0
55.970        20
55.980        13
55.990        13
56.000        13
56.010        13
56.020        13
56.030        13
56.040        20
56.050        27
56.060        20
56.070         7
56.080        13
56.090        20
56.100         7
56.110        40
56.120        13
56.130        27
56.140         7
56.150        13
56.160        20
56.170        13
56.180        27
56.190        13
56.200         0
56.210        13
56.220         0
56.230        33
56.240         7
56.250        20
56.260         7
56.270        27
56.280        13
56.290        13
56.300         7
56.310        27
56.320         7
56.330        20
56.340        27
56.350        13
56.360         7
56.370        20
56.380        20
56.390         7
56.400        13
56.410        13
56.420        20
56.430        47
56.440        33
56.450        33
56.460        13
56.470        13
56.480        13
56.490        13
56.500        13
56.510        27
56.520         0
56.530         7
56.540        13
56.550         7
56.560        20
56.570        27
56.580        47
56.590        13
56.600        13
56.610        20
56.620        20
56.630        27
56.640        20
56.650        40
56.660        20
56.670         0
56.680        27
56.690        20
56.700        13
56.710        47
56.720        13
56.730        13
56.740        20
56.750         7
56.760         7
56.770         7
56.780        13
56.790        27
56.800        13
56.810        20
56.820        40
56.830         0
56.840         0
56.850        20
56.860         7
56.870        13
56.880        13
56.890         7
56.900         0
56.910         7
56.920        27
56.930        20
56.940         0
56.950        27
56.960        20
56.970        13
56.980        20
56.990         0
57.000        13
57.010         7
57.020        20
57.030         7
57.040        13
57.050         7
57.060         7
57.070         7
57.080         0
57.090         7
57.100        20
57.110        20
57.120         0
57.130         7
57.140        20
57.150        20
57.160         7
57.170        13
57.180         0
57.190         7
57.200        27
57.210         0
57.220        13
57.230         7
57.240         7
57.250        13
57.260         7
57.270        27
57.280        13
57.290         7
57.300         7
57.310        13
57.320        47
57.330        13
57.340        13
57.350        20
57.360        13
57.370         7
57.380        27
57.390        27
57.400         7
57.410        40
57.420        27
57.430        47
57.440        20
57.450        27
57.460        40
57.470        40
57.480       100
57.490        87
57.500       173
57.510       120
57.520       173
57.530       147
57.540       140
57.550       173
57.560       160
57.570       120
57.580       120
57.590        87
57.600        33
57.610        73
57.620        33
57.630        53
57.640        87
57.650        33
57.660        33
57.670        67
57.680        53
57.690       100
57.700       113
57.710       100
57.720       113
57.730        93
57.740        33
57.750        73
57.760        60
57.770        20
57.780        47
57.790        40
57.800        13
57.810         7
57.820        13
57.830        33
57.840        20
57.850        13
57.860        20
57.870        20
57.880         7
57.890         0
57.900         7
57.910         7
57.920        13
57.930        13
57.940        20
57.950        40
57.960        13
57.970        33
57.980        13
57.990        33
58.000        20
58.010        20
58.020        13
58.030         7
58.040        13
58.050         7
58.060        27
58.070        13
58.080         0
58.090        13
58.100         7
58.110         7
58.120        13
58.130        20
58.140        13
58.150         0
58.160        20
58.170         0
58.180         0
58.190        20
58.200        13
58.210        13
58.220         7
58.230        13
58.240        13
58.250        20
58.260         0
58.270        33
58.280         7
58.290         0
58.300        13
58.310         0
58.320         0
58.330        20
58.340        20
58.350         7
58.360        27
58.370        47
58.380        13
58.390         7
58.400         7
58.410        13
58.420         0
58.430         7
58.440        20
58.450        13
58.460        13
58.470        13
58.480        33
58.490        20
58.500         7
58.510        27
58.520         0
58.530        20
58.540         7
58.550        33
58.560        27
58.570        13
58.580        13
58.590        13
58.600         7
58.610        13
58.620        13
58.630         7
58.640        13
58.650         7
58.660        13
58.670         7
58.680        13
58.690        13
58.700        13
58.710        20
58.720         7
58.730        20
58.740        20
58.750        33
58.760         0
58.770         0
58.780         7
58.790        20
58.800        13
58.810         7
58.820         7
58.830        13
58.840        40
58.850         7
58.860         7
58.870         7
58.880         7
58.890         7
58.900        20
58.910         7
58.920         0
58.930        13
58.940         7
58.950        27
58.960        20
58.970         0
58.980        20
58.990         7
59.000        20
59.010         7
59.020         0
59.030        33
59.040         7
59.050         0
59.060        27
59.070         7
59.080        13
59.090        27
59.100         0
59.110        13
59.120        20
59.130        20
59.140        20
59.150        13
59.160         0
59.170         0
59.180        13
59.190         7
59.200         7
59.210         7
59.220         7
59.230         7
59.240        13
59.250        20
59.260         0
59.270        13
59.280        13
59.290        13
59.300        13
59.310        33
59.320        13
59.330        13
59.340         7
59.350         0
59.360         0
59.370        20
59.380        20
59.390        27
59.400        13
59.410         7
59.420         7
59.430         7
59.440        33
59.450         7
59.460        13
59.470         7
59.480        13
59.490        20
59.500         7
59.510        13
59.520        20
59.530        13
59.540         0
59.550        13
59.560        13
59.570        20
59.580        20
59.590        13
59.600        33
59.610         7
59.620        27
59.630        20
59.640         7
59.650        13
59.660        13
59.670        13
59.680        13
59.690         7
59.700         0
59.710         7
59.720         7
59.730        13
59.740         7
59.750        27
59.760        47
59.770        13
59.780        27
59.790         0
59.800        20
59.810        13
59.820         0
59.830        27
59.840         7
59.850        20
59.860        20
59.870        20
59.880        20
59.890        13
59.900        20
59.910         7
59.920         7
59.930        13
59.940        20
59.950        13
59.960        13
59.970         0
59.980        20
59.990        13
60.000        13
