20.000        40
20.020        40
20.040        30
20.060        37
20.080        47
20.100        53
20.120        40
20.140        43
20.160        37
20.180        40
20.200        43
20.220        33
20.240        30
20.260        50
20.280        57
20.300        30
20.320        47
20.340        43
20.360        27
20.380        30
20.400        60
20.420        43
20.440        37
20.460        20
20.480        37
20.500        57
20.520        53
20.540        30
20.560        27
20.580        27
20.600        43
20.620        57
20.640        70
20.660        53
20.680        47
20.700        37
20.720        37
20.740        27
20.760        43
20.780        33
20.800        50
20.820        33
20.840        40
20.860        57
20.880        43
20.900        40
20.920        47
20.940        33
20.960        70
20.980        33
21.000        43
21.020        23
21.040        63
21.060        37
21.080        43
21.100        33
21.120        63
21.140        43
21.160        17
21.180        40
21.200        47
21.220        57
21.240        30
21.260        47
21.280        50
21.300        43
21.320        23
21.340        40
21.360        37
21.380        47
21.400        23
21.420        33
21.440        47
21.460        37
21.480        40
21.500        50
21.520        33
21.540        37
21.560        30
21.580        40
21.600        33
21.620        50
21.640        47
21.660        30
21.680        23
21.700        33
21.720        43
21.740        30
21.760        37
21.780        43
21.800        40
21.820        43
21.840        37
21.860        40
21.880        27
21.900        33
21.920        13
21.940        37
21.960        37
21.980        47
22.000        33
22.020        17
22.040        50
22.060        33
22.080        50
22.100        17
22.120        40
22.140        27
22.160        37
22.180        33
22.200        43
22.220        53
22.240        53
22.260        43
22.280        40
22.300        23
22.320        30
22.340        20
22.360        37
22.380        43
22.400        40
22.420        60
22.440        23
22.460        43
22.480        30
22.500        43
22.520        27
22.540        40
22.560        37
22.580        23
22.600        40
22.620        33
22.640        43
22.660        43
22.680        33
22.700        63
22.720        40
22.740        13
22.760        33
22.780        23
22.800        30
22.820        53
22.840        60
22.860        53
22.880        37
22.900        43
22.920        33
22.940        37
22.960        50
22.980        20
23.000        37
23.020        23
23.040        27
23.060        30
23.080        63
23.100        47
23.120        43
23.140        50
23.160        40
23.180        50
23.200        40
23.220        33
23.240        20
23.260        53
23.280        27
23.300        33
23.320        33
23.340        40
23.360        40
23.380        30
23.400        47
23.420        27
23.440        17
23.460        37
23.480        47
23.500        33
23.520        30
23.540        17
23.560        37
23.580        37
23.600        33
23.620        37
23.640        37
23.660        37
23.680        37
23.700        30
23.720        37
23.740        47
23.760        40
23.780        33
23.800        23
23.820        23
23.840        57
23.860        33
23.880        13
23.900        27
23.920        37
23.940        33
23.960        17
23.980        23
24.000        33
24.020        20
24.040        20
24.060        13
24.080        20
24.100        17
24.120        30
24.140        47
24.160        37
24.180        40
24.200        27
24.220        43
24.240        23
24.260        33
24.280        33
24.300        33
24.320        37
24.340        37
24.360        23
24.380        23
24.400        40
24.420        40
24.440        20
24.460        20
24.480        40
24.500        47
24.520        27
24.540        27
24.560        27
24.580        20
24.600        20
24.620        27
24.640        30
24.660        23
24.680        30
24.700        60
24.720        43
24.740        27
24.760        30
24.780        13
24.800        33
24.820        30
24.840        33
24.860        17
24.880        37
24.900        27
24.920        20
24.940        20
24.960        50
24.980        27
25.000        37
25.020        47
25.040        20
25.060        30
25.080        20
25.100        40
25.120        30
25.140        33
25.160        43
25.180        30
25.200        23
25.220        50
25.240        33
25.260        30
25.280        37
25.300        30
25.320        43
25.340        50
25.360        53
25.380        43
25.400        43
25.420        27
25.440        53
25.460        53
25.480        53
25.500        50
25.520        43
25.540        50
25.560        40
25.580        47
25.600        33
25.620        37
25.640        37
25.660        43
25.680        27
25.700        33
25.720        43
25.740        30
25.760        33
25.780        23
25.800        33
25.820        20
25.840        30
25.860        43
25.880        23
25.900        23
25.920        27
25.940        33
25.960        37
25.980        13
26.000        23
26.020        33
26.040        27
26.060        20
26.080        40
26.100        10
26.120        13
26.140        40
26.160        43
26.180        30
26.200        30
26.220        20
26.240        20
26.260        27
26.280        20
26.300        27
26.320        27
26.340        23
26.360        20
26.380        17
26.400        27
26.420        30
26.440        37
26.460        10
26.480        40
26.500        43
26.520        20
26.540        20
26.560        27
26.580        23
26.600        17
26.620        37
26.640        37
26.660        40
26.680        23
26.700        33
26.720        27
26.740        27
26.760        20
26.780        17
26.800        27
26.820        30
26.840        10
26.860        30
26.880        30
26.900        47
26.920        10
26.940        20
26.960        30
26.980        23
27.000        27
27.020        27
27.040        23
27.060        20
27.080        37
27.100         3
27.120         7
27.140        27
27.160        37
27.180        13
27.200        20
27.220        10
27.240        23
27.260        37
27.280        30
27.300        13
27.320        10
27.340        37
27.360        20
27.380        17
27.400        40
27.420        30
27.440        20
27.460        10
27.480        37
27.500        20
27.520        27
27.540        30
27.560        20
27.580        23
27.600        23
27.620        37
27.640        10
27.660        20
27.680        13
27.700        43
27.720        17
27.740        30
27.760        20
27.780        10
27.800        20
27.820        30
27.840        23
27.860        37
27.880        27
27.900        20
27.920        27
27.940        33
27.960        20
27.980        43
28.000        17
28.020        20
28.040        13
28.060        23
28.080        17
28.100         7
28.120        27
28.140        37
28.160        13
28.180        27
28.200        13
28.220        30
28.240        13
28.260        17
28.280        17
28.300        17
28.320        23
28.340        33
28.360        10
28.380        23
28.400         7
28.420        17
28.440        23
28.460        23
28.480        30
28.500        30
28.520        37
28.540        23
28.560        30
28.580        27
28.600        23
28.620        13
28.640        30
28.660        17
28.680        23
28.700        37
28.720        30
28.740        30
28.760        20
28.780        17
28.800        20
28.820        20
28.840        23
28.860        13
28.880         7
28.900        27
28.920        27
28.940        23
28.960        23
28.980        20
29.000        20
29.020        40
29.040        40
29.060        10
29.080        30
29.100        13
29.120        10
29.140        20
29.160        13
29.180        30
29.200         7
29.220        20
29.240        17
29.260        13
29.280        30
29.300         7
29.320        10
29.340        20
29.360        30
29.380        47
29.400        20
29.420        13
29.440        33
29.460        13
29.480        23
29.500        27
29.520        27
29.540        13
29.560        10
29.580        13
29.600        33
29.620        17
29.640        33
29.660        27
29.680        37
29.700        33
29.720        33
29.740        20
29.760        37
29.780        20
29.800        47
29.820        33
29.840        27
29.860        13
29.880        23
29.900        30
29.920        17
29.940        20
29.960        23
29.980        13
30.000        30
30.020        13
30.040        27
30.060        17
30.080        23
30.100        13
30.120        17
30.140        27
30.160        23
30.180        23
30.200        13
30.220        17
30.240        13
30.260        10
30.280        20
30.300         7
30.320        20
30.340        17
30.360        17
30.380        40
30.400        20
30.420        20
30.440        10
30.460        20
30.480        10
30.500        20
30.520        20
30.540        10
30.560        20
30.580        30
30.600        30
30.620        23
30.640        23
30.660        17
30.680        17
30.700        10
30.720        17
30.740        37
30.760        20
30.780        43
30.800        17
30.820        23
30.840        23
30.860        17
30.880        27
30.900        37
30.920        23
30.940        27
30.960        43
30.980        13
31.000        33
31.020        20
31.040        17
31.060        13
31.080        20
31.100        27
31.120        27
31.140        13
31.160        17
31.180        27
31.200         7
31.220        10
31.240        40
31.260        20
31.280        30
31.300        40
31.320        10
31.340        23
31.360        20
31.380        13
31.400        10
31.420        37
31.440         7
31.460        17
31.480        37
31.500        30
31.520        30
31.540        30
31.560        17
31.580        20
31.600        20
31.620        30
31.640        20
31.660        27
31.680        30
31.700        30
31.720        37
31.740        13
31.760        10
31.780        17
31.800        13
31.820        13
31.840        23
31.860        27
31.880        13
31.900        17
31.920        43
31.940        17
31.960        23
31.980        27
32.000        20
32.020         7
32.040        13
32.060        13
32.080        27
32.100        23
32.120        20
32.140        30
32.160        20
32.180        17
32.200        20
32.220        13
32.240        10
32.260        37
32.280        23
32.300        23
32.320        13
32.340        20
32.360        37
32.380        10
32.400        37
32.420        17
32.440        23
32.460        23
32.480        20
32.500        27
32.520        23
32.540        23
32.560        10
32.580        23
32.600        33
32.620        33
32.640        17
32.660         7
32.680        20
32.700        23
32.720        23
32.740        27
32.760        20
32.780        13
32.800        27
32.820        13
32.840        27
32.860        33
32.880        33
32.900        27
32.920        20
32.940        27
32.960        30
32.980        17
33.000        20
33.020        27
33.040        20
33.060        23
33.080        17
33.100        10
33.120        27
33.140        13
33.160        23
33.180        17
33.200        17
33.220        27
33.240        13
33.260        20
33.280        23
33.300        20
33.320        27
33.340        40
33.360        10
33.380        23
33.400        23
33.420        10
33.440        20
33.460        27
33.480        20
33.500        17
33.520        27
33.540        13
33.560        47
33.580        17
33.600        20
33.620        20
33.640        20
33.660        13
33.680        10
33.700        20
33.720        33
33.740        13
33.760        17
33.780        17
33.800        13
33.820        27
33.840        17
33.860        17
33.880        10
33.900        17
33.920        17
33.940        33
33.960        17
33.980        27
34.000        20
34.020        17
34.040        27
34.060        23
34.080        20
34.100        30
34.120        27
34.140        40
34.160        13
34.180        17
34.200        17
34.220        23
34.240        20
34.260        10
34.280        30
34.300        33
34.320        17
34.340        37
34.360        20
34.380        10
34.400        30
34.420        20
34.440        23
34.460        20
34.480        17
34.500        30
34.520        17
34.540        30
34.560         7
34.580        13
34.600        50
34.620        23
34.640        23
34.660        30
34.680        20
34.700        23
34.720        27
34.740        33
34.760        13
34.780         3
34.800        37
34.820        43
34.840        17
34.860        23
34.880        23
34.900        60
34.920        50
34.940        43
34.960        50
34.980        77
35.000        93
35.020       120
35.040       147
35.060       290
35.080       397
35.100       523
35.120       473
35.140       307
35.160       277
35.180       273
35.200       267
35.220       173
35.240        77
35.260        80
35.280        63
35.300        27
35.320        33
35.340        17
35.360        23
35.380        30
35.400        30
35.420        23
35.440        23
35.460         7
35.480        23
35.500        13
35.520        10
35.540        17
35.560        27
35.580        10
35.600        27
35.620        13
35.640        13
35.660        23
35.680        20
35.700        23
35.720        20
35.740        23
35.760        13
35.780        33
35.800        33
35.820        33
35.840        20
35.860        13
35.880        27
35.900        30
35.920        13
35.940        17
35.960        13
35.980        33
36.000        27
36.020        30
36.040        20
36.060        23
36.080        27
36.100        23
36.120        30
36.140        30
36.160        20
36.180        17
36.200         0
36.220        27
36.240        23
36.260        10
36.280         7
36.300        13
36.320        23
36.340        20
36.360        20
36.380        13
36.400        30
36.420        20
36.440        33
36.460        33
36.480        33
36.500        23
36.520        23
36.540        27
36.560        20
36.580        23
36.600        30
36.620        20
36.640        23
36.660        10
36.680        10
36.700        30
36.720        13
36.740        20
36.760        13
36.780        17
36.800        27
36.820        30
36.840        13
36.860        27
36.880        17
36.900        30
36.920        27
36.940        23
36.960        40
36.980        17
37.000        20
37.020        30
37.040        17
37.060        10
37.080        17
37.100        23
37.120        10
37.140        33
37.160        13
37.180        20
37.200        13
37.220        33
37.240        17
37.260        13
37.280        17
37.300        20
37.320        20
37.340         7
37.360        30
37.380         7
37.400        13
37.420        27
37.440        10
37.460        17
37.480        23
37.500        10
37.520        17
37.540        20
37.560        13
37.580        27
37.600        13
37.620        13
37.640        30
37.660        13
37.680        20
37.700        33
37.720        43
37.740        37
37.760        23
37.780        40
37.800        37
37.820        27
37.840        13
37.860         7
37.880        20
37.900        40
37.920        13
37.940        33
37.960        33
37.980        20
38.000        23
38.020        10
38.040        17
38.060        17
38.080        17
38.100        13
38.120        10
38.140        23
38.160        20
38.180        13
38.200        33
38.220        20
38.240        27
38.260        20
38.280        23
38.300        27
38.320         7
38.340        13
38.360        27
38.380         7
38.400        43
38.420        13
38.440        23
38.460        27
38.480         0
38.500        20
38.520        17
38.540        23
38.560        13
38.580        30
38.600        13
38.620        30
38.640        13
38.660        20
38.680        33
38.700        23
38.720        20
38.740        13
38.760        10
38.780        30
38.800        33
38.820        30
38.840        23
38.860        33
38.880        20
38.900        37
38.920        30
38.940        13
38.960        27
38.980        30
39.000         7
39.020        20
39.040        17
39.060        17
39.080        20
39.100        33
39.120        10
39.140        23
39.160        23
39.180        17
39.200        30
39.220        27
39.240        10
39.260         7
39.280        23
39.300        27
39.320        10
39.340        23
39.360        30
39.380        23
39.400        13
39.420        20
39.440        27
39.460        23
39.480        20
39.500        10
39.520        20
39.540        20
39.560        27
39.580        27
39.600        27
39.620        30
39.640        23
39.660        20
39.680        50
39.700        10
39.720        23
39.740        13
39.760        20
39.780        27
39.800        27
39.820        27
39.840        23
39.860        13
39.880        20
39.900        17
39.920        33
39.940        10
39.960        33
39.980        20
40.000        17
40.020        27
40.040        17
40.060        30
40.080        23
40.100        17
40.120        20
40.140        27
40.160        23
40.180        23
40.200        20
40.220        20
40.240        23
40.260        10
40.280        27
40.300        17
40.320        23
40.340        17
40.360        17
40.380        20
40.400        20
40.420        20
40.440        33
40.460        20
40.480        17
40.500        23
40.520        13
40.540        23
40.560        23
40.580        27
40.600        13
40.620        10
40.640        17
40.660        30
40.680        33
40.700        17
40.720        10
40.740        17
40.760        17
40.780        23
40.800        17
40.820        27
40.840        20
40.860        23
40.880        20
40.900        27
40.920         7
40.940        17
40.960        23
40.980        10
41.000        10
41.020        47
41.040        33
41.060        33
41.080        20
41.100        33
41.120        17
41.140        23
41.160        10
41.180        37
41.200        13
41.220        10
41.240        33
41.260        23
41.280        27
41.300        23
41.320        17
41.340        13
41.360        30
41.380        20
41.400        30
41.420        33
41.440        30
41.460        23
41.480        23
41.500        47
41.520        57
41.540        13
41.560       107
41.580        60
41.600        73
41.620       180
41.640       180
41.660       183
41.680       147
41.700       137
41.720        67
41.740       100
41.760        67
41.780       123
41.800        83
41.820        27
41.840        30
41.860        27
41.880        20
41.900        27
41.920        17
41.940        27
41.960        20
41.980         7
42.000        27
42.020        17
42.040        27
42.060        13
42.080        37
42.100         3
42.120        13
42.140        13
42.160        30
42.180        30
42.200        20
42.220        13
42.240        27
42.260        23
42.280        20
42.300        23
42.320        13
42.340        27
42.360        13
42.380        20
42.400        10
42.420        10
42.440        20
42.460        23
42.480         7
42.500        27
42.520         7
42.540        37
42.560        30
42.580        33
42.600        17
42.620        17
42.640        17
42.660        23
42.680        30
42.700        30
42.720        17
42.740        23
42.760        23
42.780        17
42.800        13
42.820        17
42.840        43
42.860        27
42.880        23
42.900        23
42.920        13
42.940         0
42.960        17
42.980        27
43.000        10
43.020        13
43.040        20
43.060        17
43.080        10
43.100        30
43.120         7
43.140        30
43.160        37
43.180        40
43.200        53
43.220        50
43.240       103
43.260       100
43.280       167
43.300       117
43.320       127
43.340       110
43.360        80
43.380        67
43.400        93
43.420       103
43.440        93
43.460        77
43.480        33
43.500        43
43.520        23
43.540        17
43.560        17
43.580         7
43.600        17
43.620        13
43.640        13
43.660        23
43.680        10
43.700         7
43.720        13
43.740        17
43.760        27
43.780        23
43.800        20
43.820        20
43.840        23
43.860        10
43.880        20
43.900        20
43.920        13
43.940        13
43.960        10
43.980        13
44.000        10
44.020        23
44.040        23
44.060        13
44.080        33
44.100         3
44.120        27
44.140        17
44.160        30
44.180         7
44.200         7
44.220        20
44.240         3
44.260        13
44.280        10
44.300         3
44.320        27
44.340        13
44.360        17
44.380        20
44.400        13
44.420         3
44.440        23
44.460        27
44.480        10
44.500         7
44.520        37
44.540        23
44.560        13
44.580        17
44.600        17
44.620         7
44.640        13
44.660        17
44.680        20
44.700        33
44.720        10
44.740        33
44.760        20
44.780        13
44.800        20
44.820        17
44.840         3
44.860        13
44.880        13
44.900        20
44.920        13
44.940        23
44.960        13
44.980        20
45.000        13
45.020         7
45.040        23
45.060        30
45.080        10
45.100        23
45.120        23
45.140        17
45.160        17
45.180        20
45.200        23
45.220        10
45.240        23
45.260        27
45.280        27
45.300        20
45.320        10
45.340        23
45.360        13
45.380        17
45.400        13
45.420        17
45.440        20
45.460        23
45.480        17
45.500        13
45.520        33
45.540        30
45.560        17
45.580        17
45.600        17
45.620        30
45.640        37
45.660        10
45.680        10
45.700        27
45.720        23
45.740        30
45.760        23
45.780        33
45.800         0
45.820        30
45.840        13
45.860        37
45.880        10
45.900        17
45.920        13
45.940        20
45.960        13
45.980        17
46.000        17
46.020        13
46.040        10
46.060        17
46.080        20
46.100        23
46.120        10
46.140        20
46.160        10
46.180        13
46.200        13
46.220        13
46.240        37
46.260        23
46.280        27
46.300         3
46.320        27
46.340         7
46.360        13
46.380        20
46.400        23
46.420        20
46.440        23
46.460        27
46.480        13
46.500        13
46.520        13
46.540        13
46.560        17
46.580        30
46.600         7
46.620        23
46.640        17
46.660        23
46.680        17
46.700        13
46.720        33
46.740        33
46.760        10
46.780        30
46.800         7
46.820        10
46.840        17
46.860        20
46.880        17
46.900        17
46.920        17
46.940         3
46.960        37
46.980        23
47.000        20
47.020        20
47.040        13
47.060        13
47.080        10
47.100        17
47.120        30
47.140        20
47.160        17
47.180        43
47.200         3
47.220        23
47.240        17
47.260        23
47.280        30
47.300        10
47.320        40
47.340        10
47.360        30
47.380        27
47.400        13
47.420         3
47.440        20
47.460         7
47.480        20
47.500         7
47.520        20
47.540        17
47.560        37
47.580        23
47.600        13
47.620        10
47.640        30
47.660        20
47.680        10
47.700         7
47.720        10
47.740        20
47.760        20
47.780        23
47.800        17
47.820        23
47.840        27
47.860        13
47.880        10
47.900         7
47.920        20
47.940        10
47.960        20
47.980        17
48.000        10
48.020        17
48.040        30
48.060        10
48.080        20
48.100        17
48.120        27
48.140        13
48.160        20
48.180         7
48.200        17
48.220        13
48.240        20
48.260        17
48.280        10
48.300        17
48.320         7
48.340        17
48.360        20
48.380        17
48.400        13
48.420        10
48.440        13
48.460        20
48.480        13
48.500         7
48.520        20
48.540        13
48.560        13
48.580        10
48.600        17
48.620        17
48.640        13
48.660         0
48.680        13
48.700        13
48.720        17
48.740        20
48.760        23
48.780        30
48.800        20
48.820         7
48.840        23
48.860        17
48.880        20
48.900        10
48.920         3
48.940        17
48.960        13
48.980        13
49.000        17
49.020        20
49.040        30
49.060        10
49.080        20
49.100        13
49.120         7
49.140        13
49.160         7
49.180        17
49.200        20
49.220        13
49.240        10
49.260        30
49.280        10
49.300        10
49.320        13
49.340        17
49.360        17
49.380        20
49.400        10
49.420        13
49.440        13
49.460         7
49.480        30
49.500        20
49.520        27
49.540        13
49.560        17
49.580        10
49.600        13
49.620         7
49.640        10
49.660        20
49.680        13
49.700        23
49.720        17
49.740        17
49.760        17
49.780        13
49.800        13
49.820        27
49.840        13
49.860        10
49.880        23
49.900         7
49.920        17
49.940        10
49.960        30
49.980         3
50.000        13
50.020        33
50.040        13
50.060        10
50.080         7
50.100         7
50.120        13
50.140        20
50.160        10
50.180        10
50.200        13
50.220        17
50.240        17
50.260        17
50.280         7
50.300        20
50.320        27
50.340        10
50.360         7
50.380        20
50.400         3
50.420        10
50.440        20
50.460        17
50.480        10
50.500        13
50.520        10
50.540        30
50.560        20
50.580        20
50.600        17
50.620        10
50.640        13
50.660        10
50.680         0
50.700        23
50.720         7
50.740         7
50.760        10
50.780        10
50.800        13
50.820        13
50.840        13
50.860        20
50.880        10
50.900        20
50.920        17
50.940        13
50.960        23
50.980        17
51.000        20
51.020        20
51.040        23
51.060        10
51.080        10
51.100        17
51.120        17
51.140        13
51.160        10
51.180        27
51.200        13
51.220        20
51.240         3
51.260        17
51.280         7
51.300         7
51.320         7
51.340        10
51.360        17
51.380        23
51.400        20
51.420        17
51.440        23
51.460        30
51.480        33
51.500         7
51.520        13
51.540        20
51.560        10
51.580        13
51.600        17
51.620        10
51.640        13
51.660        20
51.680        17
51.700        30
51.720        27
51.740         7
51.760        10
51.780        30
51.800        13
51.820        13
51.840        20
51.860        23
51.880        17
51.900        13
51.920        10
51.940        10
51.960         7
51.980        13
52.000        17
52.020        13
52.040        13
52.060        20
52.080        33
52.100        13
52.120        17
52.140        10
52.160        17
52.180        23
52.200         7
52.220        13
52.240        10
52.260        10
52.280        13
52.300        23
52.320        13
52.340        10
52.360        27
52.380        20
52.400        20
52.420        27
52.440        33
52.460        20
52.480        33
52.500        43
52.520        33
52.540        33
52.560        33
52.580        23
52.600        10
52.620        43
52.640        27
52.660        23
52.680        10
52.700        20
52.720        23
52.740        10
52.760         7
52.780        20
52.800         3
52.820        20
52.840        10
52.860         3
52.880        13
52.900        33
52.920        13
52.940         7
52.960         7
52.980        20
53.000        10
53.020        17
53.040        20
53.060         7
53.080        33
53.100         7
53.120        30
53.140         3
53.160        20
53.180        17
53.200        17
53.220        23
53.240        17
53.260        10
53.280         0
53.300        17
53.320         7
53.340        17
53.360        30
53.380        23
53.400        13
53.420        17
53.440        23
53.460        10
53.480         7
53.500        13
53.520        17
53.540         7
53.560        23
53.580         7
53.600        23
53.620        30
53.640        10
53.660        23
53.680        13
53.700        10
53.720         3
53.740        17
53.760        10
53.780        13
53.800        10
53.820        13
53.840        20
53.860        10
53.880        10
53.900        10
53.920         7
53.940        20
53.960        10
53.980        10
54.000        13
54.020        23
54.040        13
54.060        23
54.080        13
54.100        20
54.120        20
54.140         3
54.160         3
54.180        10
54.200        27
54.220        10
54.240         7
54.260        20
54.280         7
54.300        13
54.320        17
54.340         7
54.360        20
54.380        17
54.400        30
54.420        27
54.440        20
54.460        10
54.480        17
54.500         3
54.520        13
54.540        13
54.560        10
54.580         7
54.600        20
54.620        13
54.640         7
54.660        17
54.680        20
54.700         7
54.720        13
54.740        13
54.760        17
54.780        20
54.800        20
54.820        13
54.840        17
54.860        20
54.880        10
54.900        13
54.920         7
54.940        10
54.960        20
54.980        13
55.000        17
55.020        10
55.040        13
55.060        13
55.080        10
55.100        13
55.120         3
55.140        10
55.160         7
55.180        23
55.200         7
55.220         7
55.240        17
55.260        20
55.280        27
55.300         7
55.320        17
55.340        27
55.360        17
55.380        20
55.400        23
55.420        10
55.440        17
55.460        23
55.480         0
55.500        13
55.520        10
55.540        17
55.560        13
55.580         3
55.600         7
55.620        13
55.640        10
55.660        17
55.680         3
55.700        27
55.720         7
55.740         7
55.760        20
55.780        20
55.800        40
55.820        10
55.840        20
55.860        10
55.880        10
55.900        13
55.920         7
55.940        13
55.960         3
55.980         7
56.000        13
56.020        10
56.040         7
56.060        20
56.080        20
56.100        10
56.120        20
56.140        17
56.160        17
56.180        10
56.200        20
56.220        17
56.240        20
56.260         7
56.280        20
56.300        23
56.320        30
56.340        27
56.360        10
56.380        17
56.400        10
56.420         3
56.440        20
56.460        23
56.480        10
56.500         7
56.520         0
56.540        13
56.560        27
56.580        13
56.600        30
56.620        13
56.640        10
56.660        10
56.680        10
56.700        13
56.720         7
56.740         3
56.760        13
56.780         3
56.800        20
56.820        13
56.840        10
56.860        10
56.880        27
56.900        23
56.920        10
56.940        13
56.960         7
56.980        27
57.000        20
57.020        10
57.040        13
57.060        27
57.080        13
57.100         7
57.120        23
57.140        10
57.160        33
57.180        17
57.200        27
57.220        27
57.240        40
57.260        37
57.280        23
57.300        47
57.320        47
57.340        47
57.360        60
57.380        90
57.400       113
57.420       160
57.440       257
57.460       390
57.480       493
57.500       450
57.520       327
57.540       253
57.560       130
57.580       133
57.600       140
57.620       210
57.640       227
57.660       217
57.680       177
57.700       127
57.720       103
57.740        57
57.760        57
57.780        23
57.800        27
57.820        13
57.840        17
57.860        13
57.880        10
57.900        20
57.920         3
57.940        17
57.960        20
57.980        13
58.000        17
58.020         7
58.040        17
58.060        20
58.080        10
58.100        17
58.120        13
58.140        10
58.160        10
58.180        17
58.200        10
58.220        13
58.240        10
58.260        13
58.280        17
58.300        27
58.320         3
58.340        13
58.360         7
58.380        13
58.400        13
58.420        10
58.440        23
58.460        23
58.480        13
58.500        10
58.520        20
58.540        17
58.560        17
58.580         7
58.600        23
58.620        13
58.640        13
58.660        17
58.680        33
58.700        10
58.720        17
58.740        20
58.760        13
58.780        30
58.800         7
58.820        13
58.840        17
58.860        13
58.880         7
58.900        13
58.920        10
58.940        17
58.960         7
58.980         7
59.000         0
59.020        13
59.040        17
59.060         7
59.080        17
59.100        13
59.120        17
59.140        17
59.160        17
59.180         7
59.200        13
59.220        10
59.240        17
59.260         3
59.280        17
59.300         7
59.320        13
59.340        10
59.360         7
59.380        13
59.400        17
59.420         7
59.440        13
59.460         3
59.480        33
59.500        10
59.520        17
59.540        17
59.560        20
59.580         7
59.600         7
59.620        20
59.640         3
59.660        27
59.680        30
59.700        20
59.720        13
59.740        13
59.760        13
59.780        17
59.800        23
59.820        13
59.840         7
59.860        13
59.880        10
59.900        13
59.920        20
59.940        10
59.960         3
59.980        13
60.000        13
