20.000       493
20.010       493
20.020       880
20.030       793
20.040       780
20.050       893
20.060       806
20.070      1000
20.080       940
20.090       766
20.100       913
20.110       840
20.120       893
20.130       920
20.140       993
20.150       986
20.160       826
20.170       933
20.180       740
20.190       926
20.200       820
20.210       726
20.220       826
20.230       866
20.240       840
20.250       860
20.260       920
20.270       826
20.280       833
20.290       880
20.300       840
20.310       753
20.320       813
20.330       813
20.340       886
20.350       760
20.360       866
20.370       880
20.380       873
20.390      1006
20.400       866
20.410       686
20.420       893
20.430       773
20.440       726
20.450       780
20.460       806
20.470       966
20.480       740
20.490       933
20.500       846
20.510       786
20.520       786
20.530       746
20.540       753
20.550       786
20.560       806
20.570       833
20.580       800
20.590       713
20.600       806
20.610       753
20.620       873
20.630       746
20.640       746
20.650       833
20.660       813
20.670       860
20.680      1000
20.690       686
20.700       813
20.710       866
20.720       780
20.730       773
20.740       793
20.750       826
20.760       926
20.770       753
20.780       686
20.790       786
20.800       773
20.810       840
20.820       666
20.830       840
20.840       886
20.850       653
20.860       806
20.870       760
20.880       820
20.890       746
20.900       746
20.910       800
20.920       700
20.930       633
20.940       666
20.950       793
20.960       633
20.970       806
20.980       620
20.990       873
21.000       860
21.010       826
21.020       840
21.030       673
21.040       653
21.050       853
21.060       673
21.070       633
21.080       620
21.090       773
21.100       720
21.110       686
21.120       753
21.130       706
21.140       746
21.150       813
21.160       686
21.170       786
21.180       786
21.190       580
21.200       780
21.210       773
21.220       800
21.230       640
21.240       780
21.250       680
21.260       713
21.270       846
21.280       666
21.290       766
21.300       666
21.310       666
21.320       733
21.330       720
21.340       706
21.350       686
21.360       673
21.370       760
21.380       720
21.390       740
21.400       653
21.410       706
21.420       573
21.430       806
21.440       833
21.450       646
21.460       820
21.470       720
21.480       653
21.490       673
21.500       800
21.510       620
21.520       686
21.530       626
21.540       640
21.550       700
21.560       760
21.570       733
21.580       606
21.590       826
21.600       660
21.610       633
21.620       586
21.630       686
21.640       500
21.650       666
21.660       686
21.670       580
21.680       593
21.690       633
21.700       586
21.710       733
21.720       726
21.730       580
21.740       526
21.750       673
21.760       580
21.770       566
21.780       613
21.790       640
21.800       720
21.810       526
21.820       653
21.830       686
21.840       613
21.850       640
21.860       620
21.870       566
21.880       726
21.890       620
21.900       620
21.910       580
21.920       706
21.930       640
21.940       686
21.950       660
21.960       613
21.970       493
21.980       553
21.990       653
22.000       593
22.010       673
22.020       600
22.030       513
22.040       493
22.050       600
22.060       573
22.070       553
22.080       520
22.090       700
22.100       620
22.110       566
22.120       666
22.130       580
22.140       546
22.150       606
22.160       646
22.170       633
22.180       613
22.190       560
22.200       573
22.210       633
22.220       600
22.230       600
22.240       480
22.250       560
22.260       560
22.270       407
22.280       513
22.290       586
22.300       626
22.310       526
22.320       593
22.330       466
22.340       573
22.350       566
22.360       566
22.370       533
22.380       580
22.390       540
22.400       493
22.410       466
22.420       620
22.430       506
22.440       480
22.450       446
22.460       540
22.470       606
22.480       526
22.490       593
22.500       526
22.510       560
22.520       553
22.530       553
22.540       600
22.550       680
22.560       566
22.570       553
22.580       566
22.590       526
22.600       673
22.610       560
22.620       460
22.630       573
22.640       533
22.650       486
22.660       633
22.670       520
22.680       473
22.690       620
22.700       606
22.710       533
22.720       500
22.730       553
22.740       606
22.750       553
22.760       493
22.770       620
22.780       666
22.790       580
22.800       560
22.810       546
22.820       573
22.830       553
22.840       566
22.850       460
22.860       600
22.870       613
22.880       580
22.890       586
22.900       546
22.910       686
22.920       573
22.930       466
22.940       573
22.950       633
22.960       520
22.970       506
22.980       486
22.990       486
23.000       466
23.010       380
23.020       453
23.030       526
23.040       633
23.050       566
23.060       620
23.070       486
23.080       460
23.090       533
23.100       586
23.110       640
23.120       540
23.130       573
23.140       520
23.150       466
23.160       593
23.170       453
23.180       393
23.190       426
23.200       446
23.210       413
23.220       473
23.230       520
23.240       433
23.250       506
23.260       466
23.270       480
23.280       506
23.290       513
23.300       526
23.310       486
23.320       540
23.330       500
23.340       493
23.350       593
23.360       500
23.370       546
23.380       433
23.390       373
23.400       460
23.410       473
23.420       460
23.430       546
23.440       420
23.450       613
23.460       546
23.470       560
23.480       466
23.490       546
23.500       573
23.510       500
23.520       780
23.530       666
23.540       753
23.550       586
23.560       893
23.570       753
23.580       713
23.590       753
23.600       706
23.610       553
23.620       533
23.630       566
23.640       486
23.650       440
23.660       520
23.670       526
23.680       580
23.690       506
23.700       500
23.710       453
23.720       407
23.730       533
23.740       566
23.750       460
23.760       526
23.770       360
23.780       420
23.790       453
23.800       526
23.810       486
23.820       500
23.830       620
23.840       440
23.850       466
23.860       513
23.870       493
23.880       500
23.890       446
23.900       473
23.910       460
23.920       400
23.930       407
23.940       446
23.950       460
23.960       440
23.970       580
23.980       560
23.990       473
24.000       533
24.010       540
24.020       446
24.030       513
24.040       407
24.050       393
24.060       500
24.070       573
24.080       373
24.090       426
24.100       446
24.110       553
24.120       473
24.130       440
24.140       393
24.150       520
24.160       367
24.170       413
24.180       466
24.190       367
24.200       373
24.210       546
24.220       433
24.230       480
24.240       413
24.250       500
24.260       413
24.270       393
24.280       433
24.290       526
24.300       407
24.310       440
24.320       433
24.330       426
24.340       360
24.350       446
24.360       373
24.370       446
24.380       373
24.390       480
24.400       387
24.410       380
24.420       320
24.430       460
24.440       486
24.450       393
24.460       460
24.470       400
24.480       393
24.490       433
24.500       400
24.510       420
24.520       440
24.530       387
24.540       347
24.550       446
24.560       373
24.570       426
24.580       380
24.590       460
24.600       307
24.610       400
24.620       387
24.630       353
24.640       340
24.650       453
24.660       380
24.670       320
24.680       407
24.690       353
24.700       400
24.710       400
24.720       433
24.730       453
24.740       400
24.750       480
24.760       426
24.770       400
24.780       347
24.790       393
24.800       380
24.810       367
24.820       413
24.830       287
24.840       466
24.850       433
24.860       440
24.870       453
24.880       320
24.890       413
24.900       453
24.910       413
24.920       393
24.930       313
24.940       393
24.950       453
24.960       420
24.970       373
24.980       327
24.990       340
25.000       380
25.010       413
25.020       380
25.030       347
25.040       373
25.050       380
25.060       446
25.070       300
25.080       387
25.090       353
25.100       413
25.110       380
25.120       453
25.130       360
25.140       353
25.150       360
25.160       307
25.170       413
25.180       307
25.190       440
25.200       307
25.210       347
25.220       267
25.230       380
25.240       347
25.250       307
25.260       300
25.270       293
25.280       307
25.290       273
25.300       320
25.310       333
25.320       347
25.330       347
25.340       373
25.350       367
25.360       280
25.370       253
25.380       360
25.390       287
25.400       347
25.410       320
25.420       253
25.430       280
25.440       307
25.450       313
25.460       353
25.470       307
25.480       400
25.490       293
25.500       320
25.510       300
25.520       393
25.530       347
25.540       313
25.550       347
25.560       293
25.570       247
25.580       253
25.590       387
25.600       267
25.610       220
25.620       360
25.630       327
25.640       240
25.650       267
25.660       273
25.670       227
25.680       207
25.690       260
25.700       273
25.710       260
25.720       207
25.730       207
25.740       233
25.750       200
25.760       247
25.770       233
25.780       207
25.790       153
25.800       227
25.810       273
25.820       253
25.830       193
25.840       240
25.850       167
25.860       180
25.870       227
25.880       247
25.890       240
25.900       173
25.910       187
25.920       233
25.930       193
25.940       147
25.950       200
25.960       220
25.970       300
25.980       200
25.990       267
26.000       273
26.010       187
26.020       227
26.030       293
26.040       140
26.050       200
26.060       173
26.070       153
26.080       233
26.090       213
26.100       147
26.110       180
26.120       213
26.130       180
26.140       240
26.150       160
26.160       187
26.170       193
26.180       120
26.190       240
26.200       153
26.210       187
26.220       173
26.230       200
26.240       213
26.250       200
26.260       187
26.270       187
26.280       267
26.290       213
26.300       180
26.310       227
26.320       240
26.330       220
26.340       180
26.350       273
26.360       167
26.370       160
26.380       167
26.390       200
26.400       153
26.410       187
26.420       233
26.430       180
26.440       193
26.450       160
26.460       120
26.470       207
26.480       173
26.490       140
26.500       147
26.510       173
26.520       220
26.530       160
26.540       233
26.550       187
26.560       287
26.570       160
26.580       200
26.590       140
26.600       167
26.610       153
26.620       147
26.630       187
26.640       160
26.650       200
26.660       180
26.670        93
26.680       167
26.690       160
26.700       187
26.710       267
26.720       173
26.730       173
26.740       193
26.750       147
26.760       200
26.770       187
26.780       147
26.790       160
26.800       180
26.810       160
26.820       187
26.830       107
26.840       167
26.850       167
26.860       133
26.870       167
26.880       187
26.890       173
26.900       147
26.910        93
26.920       133
26.930       160
26.940       247
26.950       127
26.960       120
26.970       153
26.980       160
26.990       167
27.000       167
27.010       207
27.020       187
27.030       213
27.040       147
27.050       160
27.060       127
27.070       147
27.080       120
27.090       213
27.100       173
27.110       173
27.120       147
27.130       127
27.140       267
27.150       153
27.160       173
27.170       113
27.180       140
27.190       160
27.200       120
27.210       120
27.220        73
27.230       120
27.240       180
27.250       100
27.260       147
27.270       133
27.280        93
27.290       113
27.300       167
27.310       107
27.320       147
27.330       147
27.340       160
27.350       193
27.360       160
27.370       180
27.380       227
27.390       160
27.400       113
27.410        87
27.420       207
27.430       100
27.440       127
27.450       127
27.460       127
27.470       107
27.480       147
27.490       147
27.500       100
27.510       140
27.520       167
27.530       167
27.540       100
27.550       120
27.560       200
27.570       100
27.580       113
27.590       120
27.600       127
27.610       167
27.620       173
27.630       173
27.640       100
27.650       127
27.660       140
27.670       120
27.680       120
27.690       153
27.700        93
27.710       140
27.720       120
27.730       153
27.740       173
27.750       100
27.760       120
27.770       127
27.780       120
27.790       113
27.800       173
27.810       173
27.820       140
27.830       120
27.840        93
27.850       133
27.860       100
27.870       107
27.880        87
27.890       113
27.900       160
27.910       140
27.920       127
27.930       147
27.940       120
27.950       127
27.960       133
27.970       220
27.980       120
27.990       133
28.000       127
28.010       140
28.020       140
28.030       147
28.040        80
28.050       213
28.060       153
28.070       140
28.080       147
28.090       113
28.100       153
28.110       113
28.120       133
28.130        87
28.140       133
28.150       133
28.160       127
28.170       140
28.180       113
28.190       173
28.200       140
28.210       153
28.220       127
28.230       107
28.240       173
28.250        80
28.260        80
28.270       113
28.280       127
28.290       127
28.300        87
28.310       100
28.320       127
28.330       133
28.340       100
28.350       107
28.360       113
28.370       187
28.380       127
28.390        53
28.400       127
28.410       100
28.420       120
28.430       127
28.440        73
28.450       127
28.460       167
28.470       133
28.480       107
28.490        73
28.500       140
28.510        87
28.520       107
28.530       113
28.540        87
28.550       127
28.560       180
28.570        53
28.580       193
28.590       107
28.600        93
28.610       127
28.620       140
28.630       127
28.640        60
28.650        87
28.660       127
28.670        80
28.680        80
28.690        73
28.700       127
28.710       133
28.720       153
28.730       120
28.740       113
28.750       107
28.760       133
28.770       100
28.780       107
28.790       120
28.800        67
28.810       140
28.820       160
28.830        87
28.840       120
28.850        67
28.860       147
28.870       160
28.880       120
28.890       160
28.900        67
28.910       133
28.920       127
28.930       133
28.940       133
28.950        87
28.960       127
28.970       140
28.980       107
28.990       127
29.000        93
29.010       120
29.020       213
29.030       120
29.040       133
29.050       100
29.060       133
29.070        80
29.080       160
29.090       133
29.100        93
29.110       133
29.120        87
29.130       100
29.140       153
29.150        93
29.160       140
29.170       120
29.180       107
29.190       113
29.200        80
29.210       160
29.220       147
29.230       200
29.240       120
29.250       147
29.260       100
29.270       127
29.280       153
29.290       153
29.300       140
29.310       227
29.320       167
29.330       187
29.340       100
29.350       260
29.360       153
29.370        93
29.380       193
29.390       133
29.400       160
29.410       180
29.420       147
29.430       153
29.440       207
29.450       247
29.460       187
29.470       200
29.480       167
29.490       160
29.500       120
29.510       160
29.520       167
29.530       253
29.540       240
29.550       233
29.560       233
29.570       180
29.580       293
29.590       313
29.600       227
29.610       287
29.620       180
29.630       207
29.640       247
29.650       253
29.660       180
29.670       213
29.680       127
29.690       127
29.700        53
29.710       140
29.720        60
29.730        87
29.740       120
29.750       107
29.760       113
29.770        87
29.780       107
29.790       113
29.800       127
29.810       120
29.820        53
29.830        87
29.840        80
29.850        87
29.860       113
29.870        93
29.880       120
29.890       100
29.900       153
29.910       113
29.920       120
29.930        60
29.940        67
29.950        80
29.960        93
29.970        93
29.980       113
29.990        80
30.000        87
30.010       120
30.020        93
30.030       133
30.040        80
30.050        47
30.060        87
30.070        93
30.080        93
30.090       173
30.100       120
30.110       147
30.120       133
30.130        33
30.140       100
30.150       107
30.160       113
30.170       127
30.180        80
30.190       100
30.200        60
30.210       100
30.220       147
30.230        80
30.240        67
30.250       107
30.260        80
30.270       133
30.280       120
30.290       100
30.300       100
30.310       113
30.320       107
30.330       107
30.340       113
30.350        93
30.360       120
30.370       113
30.380       107
30.390       107
30.400        33
30.410        73
30.420        80
30.430       120
30.440        60
30.450       133
30.460       127
30.470       100
30.480       147
30.490       127
30.500       107
30.510       120
30.520       100
30.530       113
30.540       120
30.550        80
30.560        73
30.570        80
30.580        87
30.590       100
30.600       127
30.610       120
30.620        73
30.630        73
30.640       133
30.650        87
30.660        73
30.670        53
30.680       107
30.690        47
30.700       133
30.710        93
30.720       100
30.730       140
30.740       113
30.750       100
30.760       107
30.770        93
30.780       113
30.790        80
30.800       107
30.810       100
30.820       120
30.830       133
30.840       100
30.850       107
30.860       113
30.870        87
30.880       120
30.890       100
30.900        87
30.910       107
30.920       127
30.930       113
30.940        93
30.950       127
30.960        73
30.970        47
30.980        80
30.990        87
31.000       133
31.010       100
31.020       133
31.030        40
31.040       107
31.050        87
31.060        80
31.070       100
31.080       120
31.090        93
31.100        73
31.110       127
31.120        87
31.130       107
31.140        73
31.150       107
31.160       120
31.170       133
31.180       120
31.190       100
31.200        87
31.210       120
31.220       167
31.230       100
31.240        87
31.250       133
31.260       140
31.270       107
31.280        80
31.290        80
31.300       120
31.310       153
31.320       113
31.330       100
31.340        67
31.350       193
31.360       153
31.370       113
31.380       153
31.390        93
31.400       107
31.410        73
31.420       133
31.430       100
31.440       160
31.450       127
31.460       120
31.470       120
31.480       160
31.490       127
31.500       153
31.510       127
31.520       147
31.530       147
31.540       120
31.550        87
31.560       147
31.570       127
31.580       153
31.590       173
31.600        93
31.610       100
31.620        80
31.630       187
31.640       167
31.650       153
31.660       133
31.670       120
31.680       120
31.690       180
31.700        93
31.710       127
31.720       200
31.730       120
31.740       147
31.750       173
31.760       133
31.770       207
31.780       167
31.790       147
31.800       200
31.810       187
31.820       253
31.830       267
31.840       240
31.850       260
31.860       227
31.870       327
31.880       313
31.890       247
31.900       253
31.910       273
31.920       360
31.930       267
31.940       360
31.950       353
31.960       267
31.970       373
31.980       347
31.990       400
32.000       327
32.010       513
32.020       420
32.030       546
32.040       633
32.050       906
32.060      1153
32.070      1673
32.080      2392
32.090      3199
32.100      4192
32.110      4605
32.120      4651
32.130      4585
32.140      4218
32.150      3359
32.160      2366
32.170      1873
32.180      1080
32.190       820
32.200       660
32.210       640
32.220       493
32.230       560
32.240       433
32.250       360
32.260       380
32.270       440
32.280       320
32.290       280
32.300       453
32.310       327
32.320       327
32.330       273
32.340       313
32.350       173
32.360       367
32.370       227
32.380       187
32.390       320
32.400       327
32.410       247
32.420       313
32.430       273
32.440       240
32.450       253
32.460       287
32.470       213
32.480       207
32.490       213
32.500       253
32.510       227
32.520       227
32.530       240
32.540       240
32.550       220
32.560       160
32.570       233
32.580       200
32.590       173
32.600       247
32.610       220
32.620       207
32.630       167
32.640       167
32.650       120
32.660       200
32.670       187
32.680       213
32.690       187
32.700       160
32.710       193
32.720       260
32.730       233
32.740       153
32.750       160
32.760       153
32.770       173
32.780       167
32.790       120
32.800       180
32.810       187
32.820       233
32.830       247
32.840       160
32.850       173
32.860       160
32.870       147
32.880       173
32.890       173
32.900       180
32.910       220
32.920       140
32.930       127
32.940       153
32.950       133
32.960       173
32.970       167
32.980       140
32.990       160
33.000       220
33.010       107
33.020       167
33.030       193
33.040       173
33.050       140
33.060       147
33.070       133
33.080       140
33.090       180
33.100       200
33.110       120
33.120       153
33.130       140
33.140       213
33.150        87
33.160       180
33.170       127
33.180       167
33.190       187
33.200       140
33.210       193
33.220       133
33.230       140
33.240       147
33.250       167
33.260       187
33.270       180
33.280       153
33.290       133
33.300       200
33.310       140
33.320       180
33.330       147
33.340       107
33.350       180
33.360       140
33.370       147
33.380       180
33.390       160
33.400       153
33.410       127
33.420       113
33.430       233
33.440       180
33.450       187
33.460       147
33.470       207
33.480       173
33.490       140
33.500       173
33.510       133
33.520       220
33.530       180
33.540       147
33.550       140
33.560       160
33.570       107
33.580       220
33.590       147
33.600       160
33.610       153
33.620       173
33.630       200
33.640       167
33.650       167
33.660        87
33.670       160
33.680       147
33.690       167
33.700       120
33.710       120
33.720       153
33.730       120
33.740       153
33.750        93
33.760       153
33.770       140
33.780       127
33.790       180
33.800       147
33.810       160
33.820       120
33.830       153
33.840       113
33.850       160
33.860       167
33.870       200
33.880       120
33.890       167
33.900       133
33.910       133
33.920       253
33.930       167
33.940        80
33.950       160
33.960       120
33.970       133
33.980       167
33.990       120
34.000       113
34.010       140
34.020       140
34.030       113
34.040       213
34.050       120
34.060       167
34.070       173
34.080       167
34.090       153
34.100       193
34.110       147
34.120       120
34.130       120
34.140       153
34.150       107
34.160        87
34.170       127
34.180       207
34.190       180
34.200       140
34.210       193
34.220       173
34.230       153
34.240       147
34.250       147
34.260       200
34.270       153
34.280       187
34.290       213
34.300       173
34.310       200
34.320       260
34.330       313
34.340       307
34.350       327
34.360       433
34.370       540
34.380       540
34.390       793
34.400       940
34.410       993
34.420      1259
34.430      1466
34.440      1386
34.450      1613
34.460      1559
34.470      1446
34.480      1453
34.490      1666
34.500      1466
34.510      1606
34.520      1606
34.530      1679
34.540      1446
34.550      1433
34.560      1466
34.570      1553
34.580      1526
34.590      1639
34.600      1419
34.610      1359
34.620      1433
34.630      1619
34.640      1653
34.650      1546
34.660      1599
34.670      1439
34.680      1559
34.690      1359
34.700      1433
34.710      1586
34.720      1706
34.730      1679
34.740      1426
34.750      1433
34.760      1813
34.770      1519
34.780      1479
34.790      1459
34.800      1393
34.810      1739
34.820      1459
34.830      1606
34.840      1846
34.850      1646
34.860      1633
34.870      1573
34.880      1526
34.890      1599
34.900      1466
34.910      1493
34.920      1606
34.930      1579
34.940      1593
34.950      1766
34.960      1793
34.970      1593
34.980      1526
34.990      1706
35.000      1606
35.010      1539
35.020      1573
35.030      1659
35.040      1546
35.050      1593
35.060      1486
35.070      1739
35.080      1786
35.090      1926
35.100      1726
35.110      1713
35.120      1733
35.130      1759
35.140      1819
35.150      1706
35.160      1819
35.170      1866
35.180      1893
35.190      1766
35.200      1866
35.210      1946
35.220      1933
35.230      2053
35.240      2013
35.250      2286
35.260      2472
35.270      2039
35.280      2539
35.290      2319
35.300      2699
35.310      2839
35.320      2839
35.330      2886
35.340      3045
35.350      3119
35.360      3519
35.370      3679
35.380      4038
35.390      4598
35.400      5491
35.410      6471
35.420      7770
35.430     10403
35.440     12282
35.450     15027
35.460     16813
35.470     19412
35.480     21898
35.490     23611
35.500     25090
35.510     26543
35.520     27456
35.530     29282
35.540     31574
35.550     35459
35.560     41870
35.570     54092
35.580     75117
35.590    117206
35.600    177402
35.610    233447
35.620    267173
35.630    281621
35.640    286439
35.650    288151
35.660    283060
35.670    273304
35.680    253365
35.690    221991
35.700    202652
35.710    203619
35.720    213874
35.730    217273
35.740    218673
35.750    210236
35.760    198987
35.770    166553
35.780    124084
35.790     78109
35.800     48880
35.810     33253
35.820     25916
35.830     21451
35.840     17700
35.850     15760
35.860     13914
35.870     12868
35.880     10836
35.890      9203
35.900      8363
35.910      7031
35.920      6411
35.930      5758
35.940      4905
35.950      3652
35.960      4118
35.970      3912
35.980      3219
35.990      3159
36.000      3145
36.010      3219
36.020      2972
36.030      3032
36.040      2712
36.050      2632
36.060      2479
36.070      2579
36.080      2359
36.090      2426
36.100      2646
36.110      2552
36.120      2272
36.130      2466
36.140      2172
36.150      2132
36.160      2166
36.170      1893
36.180      2013
36.190      1979
36.200      1853
36.210      2086
36.220      1779
36.230      1813
36.240      1906
36.250      1806
36.260      1833
36.270      1999
36.280      1619
36.290      1746
36.300      1566
36.310      1499
36.320      1559
36.330      1393
36.340      1579
36.350      1659
36.360      1566
36.370      1379
36.380      1499
36.390      1493
36.400      1626
36.410      1619
36.420      1319
36.430      1633
36.440      1326
36.450      1526
36.460      1466
36.470      1213
36.480      1386
36.490      1553
36.500      1273
36.510      1326
36.520      1279
36.530      1186
36.540      1359
36.550      1266
36.560      1226
36.570      1306
36.580      1379
36.590      1259
36.600      1353
36.610      1120
36.620      1206
36.630      1093
36.640      1120
36.650      1286
36.660      1120
36.670      1299
36.680      1126
36.690      1226
36.700      1346
36.710      1093
36.720      1353
36.730      1220
36.740      1193
36.750      1220
36.760      1186
36.770      1173
36.780      1160
36.790      1153
36.800      1140
36.810      1259
36.820      1120
36.830      1006
36.840      1120
36.850      1173
36.860      1220
36.870      1173
36.880      1020
36.890      1113
36.900      1100
36.910      1153
36.920      1080
36.930      1106
36.940      1233
36.950      1120
36.960      1006
36.970      1186
36.980      1120
36.990      1033
37.000      1120
37.010      1040
37.020      1106
37.030      1040
37.040      1020
37.050      1060
37.060       973
37.070      1206
37.080      1113
37.090      1026
37.100       966
37.110       900
37.120       913
37.130      1180
37.140      1073
37.150       920
37.160      1140
37.170       980
37.180       846
37.190      1053
37.200       980
37.210      1040
37.220      1100
37.230       973
37.240      1026
37.250      1053
37.260       933
37.270       946
37.280       966
37.290      1026
37.300       900
37.310       893
37.320      1073
37.330       826
37.340       993
37.350       960
37.360       893
37.370       960
37.380       966
37.390       786
37.400      1073
37.410       886
37.420       966
37.430       920
37.440       913
37.450       926
37.460       953
37.470       953
37.480       986
37.490       706
37.500       906
37.510      1040
37.520      1033
37.530       973
37.540       926
37.550       860
37.560       933
37.570       766
37.580      1013
37.590       760
37.600       846
37.610       933
37.620       853
37.630      1046
37.640       946
37.650       880
37.660       806
37.670       973
37.680       873
37.690       746
37.700       786
37.710       940
37.720       886
37.730      1046
37.740       913
37.750       720
37.760       920
37.770       753
37.780       693
37.790       773
37.800       680
37.810       953
37.820       773
37.830       786
37.840       900
37.850       680
37.860       893
37.870       700
37.880       886
37.890       746
37.900       840
37.910       860
37.920       780
37.930       740
37.940       826
37.950       786
37.960       840
37.970       766
37.980       760
37.990       900
38.000       706
38.010       706
38.020       853
38.030       740
38.040       673
38.050       666
38.060       953
38.070       866
38.080       746
38.090       733
38.100       966
38.110       740
38.120       706
38.130       573
38.140       700
38.150       846
38.160       886
38.170       733
38.180       733
38.190       533
38.200       680
38.210       793
38.220       840
38.230       740
38.240       873
38.250       700
38.260       786
38.270       780
38.280       780
38.290       860
38.300       726
38.310       740
38.320       640
38.330       686
38.340       646
38.350       753
38.360       860
38.370       606
38.380       680
38.390       780
38.400       666
38.410       840
38.420       880
38.430       706
38.440       786
38.450       833
38.460       806
38.470       633
38.480       660
38.490       800
38.500       700
38.510       680
38.520       633
38.530       800
38.540       740
38.550       706
38.560       720
38.570       560
38.580       566
38.590       640
38.600       800
38.610       766
38.620       760
38.630       613
38.640       720
38.650       726
38.660       633
38.670       680
38.680       720
38.690       580
38.700       713
38.710       706
38.720       586
38.730       746
38.740       613
38.750       653
38.760       673
38.770       726
38.780       633
38.790       693
38.800       760
38.810       673
38.820       720
38.830       553
38.840       686
38.850       706
38.860       746
38.870       766
38.880       613
38.890       673
38.900       720
38.910       726
38.920       580
38.930       686
38.940       633
38.950       546
38.960       806
38.970       680
38.980       560
38.990       686
39.000       740
39.010       600
39.020       586
39.030       640
39.040       700
39.050       706
39.060       680
39.070       633
39.080       526
39.090       660
39.100       726
39.110       660
39.120       640
39.130       653
39.140       573
39.150       613
39.160       606
39.170       513
39.180       620
39.190       513
39.200       653
39.210       466
39.220       546
39.230       626
39.240       673
39.250       613
39.260       613
39.270       606
39.280       613
39.290       533
39.300       573
39.310       626
39.320       740
39.330       506
39.340       586
39.350       553
39.360       660
39.370       620
39.380       686
39.390       706
39.400       620
39.410       773
39.420       620
39.430       546
39.440       520
39.450       613
39.460       626
39.470       620
39.480       446
39.490       693
39.500       506
39.510       646
39.520       700
39.530       506
39.540       606
39.550       613
39.560       500
39.570       540
39.580       553
39.590       640
39.600       520
39.610       506
39.620       600
39.630       793
39.640       580
39.650       573
39.660       606
39.670       593
39.680       553
39.690       540
39.700       573
39.710       593
39.720       626
39.730       466
39.740       586
39.750       586
39.760       540
39.770       553
39.780       486
39.790       600
39.800       533
39.810       733
39.820       593
39.830       613
39.840       613
39.850       480
39.860       526
39.870       533
39.880       533
39.890       520
39.900       533
39.910       533
39.920       480
39.930       393
39.940       526
39.950       433
39.960       526
39.970       513
39.980       506
39.990       593
40.000       600
40.010       593
40.020       540
40.030       540
40.040       586
40.050       486
40.060       526
40.070       566
40.080       633
40.090       473
40.100       426
40.110       573
40.120       520
40.130       460
40.140       593
40.150       393
40.160       613
40.170       500
40.180       500
40.190       526
40.200       373
40.210       466
40.220       553
40.230       480
40.240       486
40.250       413
40.260       466
40.270       553
40.280       393
40.290       513
40.300       380
40.310       393
40.320       446
40.330       513
40.340       533
40.350       506
40.360       360
40.370       533
40.380       453
40.390       407
40.400       473
40.410       446
40.420       520
40.430       440
40.440       513
40.450       440
40.460       407
40.470       500
40.480       500
40.490       500
40.500       446
40.510       460
40.520       440
40.530       446
40.540       460
40.550       606
40.560       480
40.570       526
40.580       486
40.590       493
40.600       540
40.610       440
40.620       413
40.630       513
40.640       433
40.650       533
40.660       580
40.670       433
40.680       486
40.690       446
40.700       426
40.710       500
40.720       466
40.730       466
40.740       486
40.750       480
40.760       426
40.770       426
40.780       480
40.790       440
40.800       506
40.810       486
40.820       493
40.830       373
40.840       413
40.850       506
40.860       506
40.870       573
40.880       400
40.890       526
40.900       426
40.910       440
40.920       453
40.930       466
40.940       400
40.950       446
40.960       420
40.970       387
40.980       413
40.990       400
41.000       513
41.010       540
41.020       553
41.030       573
41.040       506
41.050       493
41.060       453
41.070       486
41.080       473
41.090       480
41.100       420
41.110       486
41.120       440
41.130       393
41.140       453
41.150       466
41.160       380
41.170       460
41.180       446
41.190       393
41.200       460
41.210       360
41.220       420
41.230       493
41.240       407
41.250       640
41.260       466
41.270       387
41.280       526
41.290       513
41.300       433
41.310       413
41.320       513
41.330       453
41.340       440
41.350       473
41.360       493
41.370       393
41.380       453
41.390       413
41.400       426
41.410       400
41.420       353
41.430       420
41.440       320
41.450       520
41.460       400
41.470       506
41.480       460
41.490       393
41.500       513
41.510       353
41.520       360
41.530       367
41.540       267
41.550       400
41.560       373
41.570       327
41.580       453
41.590       486
41.600       480
41.610       433
41.620       520
41.630       446
41.640       426
41.650       500
41.660       333
41.670       426
41.680       353
41.690       426
41.700       393
41.710       327
41.720       340
41.730       360
41.740       413
41.750       446
41.760       407
41.770       473
41.780       380
41.790       400
41.800       426
41.810       440
41.820       586
41.830       433
41.840       500
41.850       420
41.860       453
41.870       360
41.880       340
41.890       333
41.900       400
41.910       400
41.920       320
41.930       480
41.940       380
41.950       407
41.960       473
41.970       347
41.980       420
41.990       420
42.000       446
42.010       373
42.020       327
42.030       440
42.040       413
42.050       373
42.060       360
42.070       380
42.080       367
42.090       380
42.100       407
42.110       407
42.120       327
42.130       353
42.140       327
42.150       506
42.160       360
42.170       453
42.180       353
42.190       360
42.200       373
42.210       413
42.220       347
42.230       440
42.240       347
42.250       353
42.260       387
42.270       313
42.280       327
42.290       340
42.300       373
42.310       413
42.320       393
42.330       353
42.340       360
42.350       380
42.360       340
42.370       387
42.380       333
42.390       360
42.400       360
42.410       333
42.420       300
42.430       413
42.440       393
42.450       293
42.460       327
42.470       367
42.480       433
42.490       407
42.500       393
42.510       360
42.520       426
42.530       440
42.540       333
42.550       420
42.560       320
42.570       340
42.580       307
42.590       340
42.600       380
42.610       333
42.620       300
42.630       367
42.640       227
42.650       387
42.660       393
42.670       313
42.680       340
42.690       253
42.700       307
42.710       327
42.720       327
42.730       367
42.740       327
42.750       353
42.760       393
42.770       373
42.780       320
42.790       347
42.800       260
42.810       426
42.820       240
42.830       347
42.840       327
42.850       260
42.860       340
42.870       347
42.880       367
42.890       347
42.900       340
42.910       307
42.920       300
42.930       347
42.940       287
42.950       287
42.960       307
42.970       300
42.980       340
42.990       260
43.000       340
43.010       307
43.020       360
43.030       393
43.040       393
43.050       373
43.060       327
43.070       387
43.080       407
43.090       327
43.100       307
43.110       407
43.120       340
43.130       307
43.140       380
43.150       353
43.160       300
43.170       333
43.180       387
43.190       313
43.200       313
43.210       307
43.220       253
43.230       307
43.240       260
43.250       320
43.260       327
43.270       373
43.280       347
43.290       340
43.300       240
43.310       393
43.320       327
43.330       293
43.340       260
43.350       307
43.360       267
43.370       300
43.380       300
43.390       313
43.400       267
43.410       253
43.420       273
43.430       267
43.440       347
43.450       307
43.460       313
43.470       293
43.480       327
43.490       280
43.500       280
43.510       267
43.520       347
43.530       253
43.540       327
43.550       240
43.560       267
43.570       273
43.580       260
43.590       300
43.600       280
43.610       340
43.620       260
43.630       300
43.640       313
43.650       273
43.660       233
43.670       407
43.680       267
43.690       340
43.700       347
43.710       260
43.720       240
43.730       253
43.740       287
43.750       307
43.760       253
43.770       307
43.780       247
43.790       313
43.800       307
43.810       227
43.820       220
43.830       247
43.840       213
43.850       267
43.860       253
43.870       160
43.880       180
43.890       340
43.900       240
43.910       260
43.920       273
43.930       240
43.940       280
43.950       227
43.960       273
43.970       320
43.980       293
43.990       260
44.000       213
44.010       293
44.020       320
44.030       287
44.040       260
44.050       260
44.060       240
44.070       240
44.080       260
44.090       313
44.100       293
44.110       273
44.120       253
44.130       273
44.140       200
44.150       153
44.160       260
44.170       267
44.180       287
44.190       293
44.200       247
44.210       287
44.220       247
44.230       180
44.240       260
44.250       227
44.260       280
44.270       247
44.280       247
44.290       153
44.300       233
44.310       333
44.320       180
44.330       300
44.340       300
44.350       307
44.360       240
44.370       260
44.380       260
44.390       327
44.400       267
44.410       220
44.420       233
44.430       260
44.440       280
44.450       200
44.460       253
44.470       247
44.480       253
44.490       313
44.500       213
44.510       267
44.520       200
44.530       227
44.540       227
44.550       213
44.560       240
44.570       227
44.580       260
44.590       260
44.600       240
44.610       280
44.620       247
44.630       233
44.640       187
44.650       207
44.660       160
44.670       280
44.680       293
44.690       260
44.700       200
44.710       293
44.720       287
44.730       213
44.740       233
44.750       213
44.760       233
44.770       220
44.780       207
44.790       227
44.800       267
44.810       240
44.820       193
44.830       253
44.840       240
44.850       260
44.860       213
44.870       207
44.880       260
44.890       287
44.900       280
44.910       293
44.920       213
44.930       147
44.940       193
44.950       153
44.960       207
44.970       273
44.980       233
44.990       220
45.000       193
45.010       247
45.020       247
45.030       233
45.040       253
45.050       260
45.060       207
45.070       187
45.080       247
45.090       140
45.100       287
45.110       253
45.120       260
45.130       160
45.140       293
45.150       313
45.160       247
45.170       240
45.180       193
45.190       240
45.200       260
45.210       200
45.220       287
45.230       267
45.240       307
45.250       213
45.260       187
45.270       293
45.280       213
45.290       253
45.300       260
45.310       247
45.320       207
45.330       193
45.340       180
45.350       220
45.360       193
45.370       180
45.380       233
45.390       240
45.400       207
45.410       233
45.420       247
45.430       193
45.440       227
45.450       267
45.460       233
45.470       260
45.480       200
45.490       200
45.500       273
45.510       233
45.520       220
45.530       233
45.540       227
45.550       133
45.560       227
45.570       147
45.580       207
45.590       200
45.600       187
45.610       193
45.620       300
45.630       193
45.640       127
45.650       240
45.660       180
45.670       233
45.680       227
45.690       167
45.700       293
45.710       207
45.720       173
45.730       200
45.740       240
45.750       207
45.760       287
45.770       160
45.780       240
45.790       247
45.800       193
45.810       227
45.820       180
45.830       253
45.840       200
45.850       233
45.860       213
45.870       213
45.880       173
45.890       260
45.900       247
45.910       227
45.920       247
45.930       213
45.940       253
45.950       280
45.960       207
45.970       260
45.980       213
45.990       240
46.000       313
46.010       273
46.020       327
46.030       300
46.040       213
46.050       240
46.060       253
46.070       293
46.080       180
46.090       200
46.100       320
46.110       200
46.120       213
46.130       307
46.140       300
46.150       260
46.160       307
46.170       300
46.180       307
46.190       320
46.200       347
46.210       380
46.220       300
46.230       360
46.240       353
46.250       426
46.260       400
46.270       413
46.280       433
46.290       407
46.300       546
46.310       466
46.320       526
46.330       540
46.340       640
46.350       520
46.360       533
46.370       580
46.380       553
46.390       566
46.400       693
46.410       653
46.420       573
46.430       560
46.440       653
46.450       626
46.460       686
46.470       633
46.480       580
46.490       546
46.500       606
46.510       526
46.520       586
46.530       500
46.540       666
46.550       586
46.560       526
46.570       506
46.580       560
46.590       426
46.600       440
46.610       426
46.620       493
46.630       393
46.640       400
46.650       367
46.660       367
46.670       387
46.680       413
46.690       280
46.700       333
46.710       373
46.720       313
46.730       307
46.740       340
46.750       253
46.760       273
46.770       313
46.780       307
46.790       253
46.800       233
46.810       280
46.820       253
46.830       220
46.840       147
46.850       240
46.860       240
46.870       200
46.880       233
46.890       280
46.900       207
46.910       267
46.920       233
46.930       173
46.940       227
46.950       207
46.960       193
46.970       213
46.980       227
46.990       247
47.000       220
47.010       227
47.020       227
47.030       167
47.040       227
47.050       260
47.060       220
47.070       200
47.080       267
47.090       180
47.100       200
47.110       193
47.120       233
47.130       133
47.140       240
47.150       187
47.160       167
47.170       220
47.180       167
47.190       167
47.200       227
47.210       167
47.220       180
47.230       180
47.240       233
47.250       120
47.260       133
47.270       180
47.280       153
47.290       173
47.300       180
47.310       193
47.320       233
47.330       100
47.340       193
47.350       133
47.360       140
47.370       147
47.380       173
47.390       167
47.400       180
47.410       180
47.420       200
47.430       233
47.440       233
47.450       213
47.460       233
47.470       227
47.480       247
47.490       180
47.500       147
47.510       200
47.520       220
47.530       200
47.540       193
47.550       133
47.560       113
47.570       180
47.580       153
47.590       227
47.600       200
47.610       227
47.620       180
47.630       173
47.640       193
47.650       147
47.660       200
47.670       133
47.680       147
47.690       227
47.700       153
47.710       167
47.720       147
47.730       213
47.740       173
47.750       173
47.760       167
47.770       193
47.780       140
47.790       167
47.800       153
47.810       160
47.820       133
47.830       133
47.840       167
47.850       200
47.860       153
47.870       147
47.880       153
47.890       147
47.900       167
47.910       180
47.920       173
47.930       160
47.940       167
47.950       193
47.960       127
47.970       207
47.980       133
47.990       153
48.000       133
48.010       153
48.020       147
48.030       127
48.040       167
48.050       267
48.060       233
48.070       140
48.080       160
48.090       220
48.100       247
48.110       307
48.120       327
48.130       373
48.140       413
48.150       433
48.160       453
48.170       360
48.180       320
48.190       187
48.200       253
48.210       287
48.220       147
48.230       233
48.240       233
48.250       233
48.260       293
48.270       313
48.280       293
48.290       280
48.300       220
48.310       193
48.320       153
48.330       187
48.340       127
48.350       233
48.360       160
48.370       167
48.380       120
48.390       207
48.400       160
48.410       153
48.420       127
48.430       173
48.440       153
48.450       153
48.460       153
48.470       213
48.480       140
48.490       187
48.500       167
48.510       147
48.520       120
48.530       200
48.540       160
48.550       173
48.560       193
48.570       160
48.580       140
48.590       133
48.600       120
48.610        67
48.620       107
48.630       140
48.640       147
48.650       147
48.660        53
48.670       127
48.680       153
48.690       113
48.700       193
48.710       160
48.720       193
48.730       107
48.740        93
48.750       120
48.760       133
48.770       120
48.780       120
48.790       133
48.800       107
48.810       220
48.820       120
48.830       160
48.840       147
48.850       167
48.860        93
48.870       133
48.880       160
48.890       147
48.900       100
48.910       127
48.920       127
48.930       120
48.940       113
48.950       100
48.960       133
48.970       127
48.980        87
48.990       127
49.000       140
49.010       160
49.020       120
49.030       147
49.040        67
49.050       173
49.060       100
49.070       147
49.080       113
49.090        80
49.100       153
49.110       180
49.120       107
49.130        87
49.140       160
49.150       127
49.160       133
49.170       100
49.180       180
49.190       167
49.200       127
49.210       127
49.220       127
49.230       120
49.240       140
49.250       127
49.260       147
49.270       140
49.280        93
49.290        87
49.300       127
49.310        93
49.320       133
49.330       127
49.340       147
49.350       113
49.360        93
49.370       147
49.380       127
49.390       120
49.400       140
49.410       147
49.420       113
49.430       120
49.440       127
49.450       147
49.460       180
49.470        87
49.480       127
49.490       113
49.500       147
49.510       160
49.520       100
49.530        87
49.540        80
49.550       167
49.560       127
49.570       127
49.580       107
49.590        80
49.600       107
49.610       127
49.620       133
49.630       107
49.640       147
49.650       147
49.660       120
49.670       153
49.680       120
49.690       107
49.700        73
49.710       187
49.720       140
49.730       100
49.740       127
49.750       180
49.760        80
49.770       120
49.780       113
49.790        93
49.800       133
49.810       100
49.820       120
49.830       133
49.840        80
49.850       107
49.860       127
49.870       153
49.880        80
49.890       127
49.900        87
49.910       107
49.920       127
49.930       147
49.940       180
49.950       120
49.960       100
49.970       153
49.980        67
49.990       127
50.000       120
50.010        87
50.020       107
50.030       113
50.040       127
50.050       100
50.060       120
50.070        67
50.080        93
50.090       207
50.100       133
50.110        60
50.120       100
50.130       107
50.140        93
50.150        87
50.160       100
50.170       113
50.180        87
50.190       120
50.200       140
50.210       127
50.220       173
50.230        93
50.240        53
50.250        80
50.260        73
50.270       147
50.280       147
50.290        73
50.300       140
50.310       100
50.320        73
50.330       113
50.340       100
50.350        93
50.360       107
50.370       107
50.380        73
50.390        93
50.400       127
50.410        73
50.420       120
50.430       140
50.440       100
50.450       120
50.460       107
50.470       120
50.480       100
50.490        80
50.500       113
50.510        80
50.520       107
50.530       113
50.540        80
50.550       100
50.560        93
50.570        60
50.580       127
50.590       107
50.600        87
50.610        73
50.620       113
50.630        67
50.640        93
50.650       120
50.660       113
50.670        73
50.680       127
50.690       127
50.700       120
50.710       153
50.720        80
50.730        80
50.740       140
50.750        60
50.760       140
50.770       113
50.780       113
50.790       107
50.800        67
50.810        67
50.820       107
50.830       107
50.840       107
50.850       173
50.860       113
50.870       153
50.880       127
50.890       113
50.900       100
50.910       133
50.920        80
50.930       107
50.940       120
50.950       107
50.960       100
50.970        87
50.980        93
50.990       120
51.000       120
51.010       113
51.020       113
51.030        73
51.040       113
51.050       113
51.060       133
51.070       153
51.080       140
51.090        80
51.100       113
51.110        80
51.120        93
51.130        80
51.140       133
51.150        53
51.160       100
51.170       187
51.180        87
51.190       140
51.200       127
51.210        67
51.220       113
51.230       147
51.240       113
51.250       113
51.260       113
51.270       107
51.280        87
51.290        87
51.300        87
51.310       127
51.320       113
51.330        80
51.340       153
51.350       100
51.360        73
51.370        47
51.380       107
51.390       107
51.400       107
51.410       113
51.420       100
51.430        93
51.440        93
51.450       140
51.460       100
51.470       107
51.480        73
51.490        87
51.500       140
51.510        80
51.520       127
51.530       127
51.540       100
51.550       113
51.560        60
51.570       100
51.580        73
51.590        80
51.600        53
51.610       120
51.620       147
51.630        67
51.640       120
51.650       100
51.660       167
51.670       100
51.680       133
51.690       107
51.700        93
51.710       107
51.720       127
51.730        80
51.740       120
51.750        40
51.760        80
51.770        67
51.780        80
51.790       120
51.800        87
51.810        73
51.820        53
51.830        67
51.840       127
51.850        53
51.860        73
51.870        67
51.880       107
51.890        67
51.900       100
51.910        80
51.920       113
51.930       133
51.940       127
51.950        93
51.960        67
51.970        87
51.980        93
51.990        93
52.000        67
52.010       100
52.020       100
52.030        87
52.040       147
52.050        73
52.060        53
52.070        93
52.080        80
52.090       120
52.100        87
52.110        87
52.120        47
52.130        73
52.140       107
52.150        67
52.160        93
52.170       100
52.180        47
52.190       100
52.200       100
52.210        87
52.220        67
52.230        80
52.240        80
52.250        87
52.260        87
52.270       100
52.280        80
52.290        47
52.300        87
52.310        67
52.320        87
52.330        60
52.340        87
52.350       160
52.360       107
52.370        93
52.380       127
52.390        60
52.400        93
52.410        87
52.420        87
52.430        60
52.440        93
52.450       120
52.460       120
52.470       100
52.480        60
52.490        47
52.500        87
52.510        80
52.520       120
52.530       147
52.540        67
52.550        53
52.560       120
52.570       100
52.580        87
52.590        87
52.600        67
52.610       113
52.620        80
52.630       140
52.640        87
52.650        67
52.660        67
52.670       100
52.680        87
52.690       127
52.700        40
52.710        67
52.720        67
52.730       127
52.740        73
52.750        87
52.760       120
52.770        73
52.780        80
52.790        67
52.800        93
52.810       107
52.820       140
52.830        73
52.840        93
52.850        40
52.860       140
52.870        73
52.880        73
52.890       107
52.900        73
52.910       107
52.920        73
52.930        67
52.940        53
52.950        73
52.960        60
52.970        67
52.980        73
52.990        93
53.000       100
53.010        27
53.020       107
53.030       113
53.040        80
53.050        87
53.060        40
53.070        47
53.080       107
53.090        93
53.100        87
53.110        87
53.120        87
53.130        73
53.140        73
53.150       113
53.160        80
53.170       120
53.180        73
53.190        60
53.200        47
53.210        60
53.220        60
53.230        93
53.240       100
53.250        80
53.260        67
53.270        87
53.280        80
53.290       100
53.300        67
53.310        73
53.320        73
53.330        73
53.340        87
53.350        87
53.360        87
53.370        67
53.380        53
53.390        87
53.400        87
53.410        67
53.420        73
53.430        60
53.440       107
53.450       147
53.460        20
53.470        93
53.480        80
53.490       133
53.500       107
53.510       107
53.520        80
53.530        40
53.540       113
53.550        87
53.560        53
53.570        93
53.580        87
53.590       120
53.600        60
53.610        73
53.620        93
53.630        67
53.640        33
53.650        80
53.660       100
53.670        93
53.680        93
53.690        67
53.700        53
53.710        67
53.720        87
53.730        60
53.740        80
53.750       107
53.760       107
53.770        80
53.780       120
53.790        93
53.800        87
53.810        67
53.820        93
53.830        73
53.840        53
53.850        73
53.860        87
53.870        87
53.880        60
53.890        80
53.900       113
53.910        93
53.920        67
53.930       100
53.940        73
53.950        53
53.960        87
53.970        73
53.980        93
53.990        67
54.000       120
54.010        67
54.020       100
54.030        47
54.040        53
54.050       100
54.060        53
54.070       100
54.080       113
54.090        67
54.100        67
54.110        60
54.120        67
54.130        67
54.140        73
54.150        47
54.160        67
54.170        67
54.180        73
54.190        80
54.200        73
54.210        73
54.220       107
54.230       127
54.240        60
54.250        73
54.260        47
54.270        67
54.280       113
54.290       100
54.300        60
54.310        47
54.320        93
54.330        73
54.340       127
54.350       113
54.360        60
54.370        53
54.380        87
54.390        40
54.400        67
54.410        87
54.420       113
54.430        67
54.440       100
54.450        47
54.460       147
54.470        93
54.480       107
54.490       120
54.500        67
54.510       100
54.520        80
54.530       113
54.540        73
54.550        73
54.560       140
54.570        80
54.580        73
54.590       133
54.600       100
54.610       107
54.620       120
54.630       173
54.640       147
54.650        93
54.660       167
54.670       147
54.680       107
54.690        80
54.700        93
54.710        93
54.720        47
54.730        53
54.740        73
54.750       140
54.760       107
54.770       113
54.780       120
54.790       107
54.800       133
54.810        93
54.820       127
54.830       107
54.840       107
54.850        80
54.860        67
54.870        53
54.880        87
54.890        80
54.900        60
54.910        80
54.920        47
54.930        93
54.940        53
54.950        73
54.960       107
54.970        73
54.980       107
54.990        67
55.000        67
55.010        67
55.020        60
55.030       100
55.040        80
55.050        60
55.060        40
55.070       113
55.080        67
55.090        93
55.100        93
55.110        40
55.120       107
55.130       127
55.140        73
55.150        67
55.160        53
55.170        93
55.180        87
55.190        67
55.200        73
55.210        73
55.220       100
55.230        80
55.240        87
55.250        47
55.260       120
55.270        47
55.280        47
55.290        33
55.300        73
55.310        80
55.320        80
55.330        60
55.340        80
55.350        87
55.360       113
55.370       107
55.380        80
55.390        87
55.400        93
55.410        67
55.420        73
55.430        53
55.440        47
55.450        67
55.460        80
55.470        53
55.480        73
55.490        60
55.500        53
55.510        33
55.520        80
55.530        60
55.540       120
55.550        47
55.560        93
55.570        80
55.580       113
55.590        40
55.600        73
55.610        60
55.620        73
55.630        60
55.640        73
55.650        53
55.660        60
55.670        40
55.680        60
55.690        67
55.700        80
55.710        67
55.720        73
55.730       107
55.740        53
55.750        67
55.760        53
55.770        53
55.780        73
55.790        87
55.800        80
55.810        33
55.820        73
55.830        80
55.840        93
55.850        53
55.860        60
55.870        87
55.880       113
55.890        53
55.900        67
55.910        80
55.920        67
55.930        33
55.940        93
55.950        60
55.960        53
55.970        67
55.980       107
55.990        73
56.000        60
56.010        80
56.020        87
56.030        73
56.040       100
56.050        53
56.060       127
56.070        53
56.080        67
56.090        67
56.100        87
56.110        40
56.120       107
56.130        67
56.140        47
56.150        67
56.160        47
56.170        87
56.180       100
56.190        73
56.200        80
56.210        67
56.220        40
56.230       120
56.240        80
56.250        73
56.260        67
56.270        73
56.280       100
56.290        67
56.300       107
56.310        73
56.320        93
56.330        93
56.340       113
56.350        80
56.360        87
56.370        53
56.380        67
56.390       120
56.400        67
56.410       167
56.420        73
56.430       100
56.440       107
56.450        53
56.460        60
56.470        67
56.480        73
56.490        53
56.500        53
56.510        93
56.520        40
56.530        60
56.540        60
56.550       107
56.560        60
56.570        47
56.580        73
56.590        60
56.600        80
56.610        93
56.620        87
56.630        87
56.640        73
56.650        40
56.660        67
56.670       140
56.680        80
56.690        73
56.700        80
56.710        80
56.720        80
56.730        53
56.740        80
56.750        87
56.760        60
56.770       120
56.780        60
56.790        73
56.800        53
56.810        93
56.820        60
56.830        73
56.840        73
56.850        67
56.860        60
56.870        53
56.880        73
56.890        87
56.900        53
56.910        73
56.920        40
56.930        33
56.940        73
56.950        53
56.960        67
56.970        67
56.980        80
56.990        20
57.000        67
57.010        53
57.020       113
57.030        40
57.040        53
57.050        93
57.060        93
57.070        80
57.080        53
57.090        80
57.100       100
57.110        53
57.120        80
57.130        67
57.140       107
57.150        60
57.160        67
57.170        40
57.180        80
57.190        67
57.200        73
57.210        80
57.220        60
57.230        73
57.240       107
57.250        60
57.260        80
57.270        53
57.280        80
57.290        67
57.300       100
57.310        93
57.320        60
57.330        47
57.340        60
57.350        73
57.360        73
57.370       127
57.380        93
57.390        60
57.400        67
57.410        93
57.420       100
57.430        47
57.440        67
57.450        73
57.460       100
57.470        87
57.480        80
57.490        73
57.500        67
57.510        73
57.520       120
57.530        60
57.540        80
57.550        87
57.560        87
57.570        80
57.580        67
57.590        73
57.600        73
57.610        47
57.620        53
57.630        60
57.640        80
57.650        27
57.660        67
57.670        73
57.680        87
57.690        40
57.700        40
57.710        87
57.720        20
57.730        40
57.740        53
57.750        73
57.760        53
57.770       120
57.780        80
57.790        67
57.800        67
57.810       120
57.820        73
57.830        53
57.840       100
57.850        87
57.860        80
57.870        67
57.880        47
57.890        93
57.900        60
57.910       100
57.920        33
57.930        67
57.940        60
57.950        73
57.960        53
57.970        60
57.980        60
57.990        67
58.000       100
58.010        20
58.020        87
58.030        60
58.040        53
58.050       100
58.060        87
58.070        40
58.080        60
58.090        80
58.100        73
58.110        67
58.120        53
58.130        53
58.140        60
58.150        73
58.160        73
58.170        47
58.180        87
58.190        73
58.200        80
58.210        47
58.220        47
58.230        53
58.240        47
58.250        40
58.260        60
58.270        80
58.280        47
58.290       100
58.300        53
58.310        87
58.320        67
58.330        93
58.340        53
58.350        80
58.360        93
58.370        60
58.380        67
58.390        60
58.400        53
58.410        60
58.420        93
58.430        33
58.440        53
58.450        33
58.460        93
58.470        87
58.480        87
58.490        53
58.500        93
58.510        47
58.520        47
58.530        60
58.540        47
58.550        87
58.560        60
58.570       107
58.580        33
58.590        67
58.600        73
58.610        67
58.620        40
58.630        47
58.640        53
58.650       100
58.660        87
58.670        93
58.680       113
58.690        67
58.700       100
58.710        33
58.720        40
58.730        47
58.740        40
58.750        80
58.760        60
58.770        53
58.780        53
58.790        60
58.800        93
58.810        33
58.820        67
58.830        80
58.840        67
58.850        73
58.860        60
58.870        80
58.880        47
58.890       100
58.900        47
58.910        27
58.920        53
58.930       100
58.940        33
58.950        93
58.960        87
58.970        80
58.980        73
58.990        67
59.000        73
59.010        87
59.020        60
59.030        73
59.040       120
59.050        33
59.060        67
59.070        80
59.080        60
59.090        47
59.100        87
59.110        47
59.120        47
59.130        53
59.140        33
59.150        53
59.160        33
59.170        73
59.180        33
59.190        53
59.200        73
59.210        87
59.220        93
59.230        53
59.240        40
59.250        80
59.260        40
59.270        47
59.280        93
59.290        73
59.300        93
59.310        20
59.320        67
59.330        80
59.340       133
59.350        87
59.360        47
59.370        47
59.380        67
59.390        67
59.400        60
59.410        47
59.420        67
59.430        80
59.440        47
59.450        33
59.460        53
59.470        60
59.480        20
59.490        40
59.500        47
59.510        67
59.520        47
59.530        53
59.540        73
59.550        53
59.560        67
59.570        53
59.580        53
59.590       107
59.600        73
59.610        53
59.620        73
59.630        47
59.640        87
59.650        33
59.660       100
59.670        67
59.680        67
59.690        27
59.700        93
59.710        47
59.720        93
59.730        60
59.740        73
59.750        47
59.760        73
59.770        33
59.780        40
59.790        33
59.800        47
59.810        73
59.820        60
59.830        40
59.840       100
59.850        33
59.860        53
59.870        40
59.880        67
59.890        87
59.900        47
59.910        80
59.920        73
59.930       107
59.940        87
59.950       120
59.960        40
59.970        60
59.980        60
59.990        13
60.000        53
