20.000        87
20.020        43
20.040        37
20.060        57
20.080        37
20.100        40
20.120        30
20.140        57
20.160        70
20.180        37
20.200        37
20.220        33
20.240        27
20.260        30
20.280        50
20.300        27
20.320        47
20.340        20
20.360        50
20.380        47
20.400        40
20.420        47
20.440        50
20.460        70
20.480        40
20.500        47
20.520        30
20.540        63
20.560        40
20.580        43
20.600        53
20.620        40
20.640        47
20.660        43
20.680        80
20.700        50
20.720        43
20.740        50
20.760        53
20.780        63
20.800        57
20.820        47
20.840        37
20.860        50
20.880        37
20.900        47
20.920        33
20.940        43
20.960        37
20.980        40
21.000        43
21.020        33
21.040        53
21.060        33
21.080        67
21.100        47
21.120        37
21.140        37
21.160        50
21.180        47
21.200        27
21.220        37
21.240        37
21.260        57
21.280        40
21.300        23
21.320        50
21.340        40
21.360        57
21.380        27
21.400        43
21.420        40
21.440        43
21.460        60
21.480        53
21.500        43
21.520        43
21.540        67
21.560        37
21.580        37
21.600        33
21.620        67
21.640        30
21.660        53
21.680        50
21.700        40
21.720        37
21.740        50
21.760        47
21.780        50
21.800        43
21.820        67
21.840        53
21.860        47
21.880        27
21.900        57
21.920        37
21.940        33
21.960        37
21.980        50
22.000        63
22.020        30
22.040        50
22.060        77
22.080        63
22.100        43
22.120        57
22.140        27
22.160        37
22.180        57
22.200        83
22.220        67
22.240        97
22.260        77
22.280        80
22.300       123
22.320        80
22.340        97
22.360       117
22.380        70
22.400        93
22.420       107
22.440       113
22.460       157
22.480       173
22.500       140
22.520       207
22.540       147
22.560       150
22.580       170
22.600       200
22.620       190
22.640       193
22.660       170
22.680       180
22.700       163
22.720       147
22.740       160
22.760       177
22.780       170
22.800       103
22.820       113
22.840       127
22.860        93
22.880        50
22.900        90
22.920        93
22.940       130
22.960        93
22.980        80
23.000        83
23.020       103
23.040        60
23.060        60
23.080        67
23.100        37
23.120        73
23.140        93
23.160        57
23.180        43
23.200        53
23.220        67
23.240        53
23.260        77
23.280        37
23.300        47
23.320        57
23.340        27
23.360        67
23.380        40
23.400        33
23.420        60
23.440        67
23.460        60
23.480        37
23.500        37
23.520        37
23.540        43
23.560        63
23.580        30
23.600        33
23.620        37
23.640        47
23.660        50
23.680        37
23.700        40
23.720        37
23.740        43
23.760        47
23.780        30
23.800        50
23.820        70
23.840        60
23.860        40
23.880        47
23.900        43
23.920        50
23.940        40
23.960        37
23.980        43
24.000        33
24.020        53
24.040        43
24.060        37
24.080        47
24.100        37
24.120        40
24.140        57
24.160        47
24.180        37
24.200        23
24.220        50
24.240        60
24.260        47
24.280        33
24.300        40
24.320        30
24.340        30
24.360        37
24.380        50
24.400        30
24.420        30
24.440        60
24.460        47
24.480        30
24.500        43
24.520        47
24.540        30
24.560        50
24.580        57
24.600        23
24.620        33
24.640        53
24.660        53
24.680        37
24.700        47
24.720        43
24.740        47
24.760        50
24.780        40
24.800        53
24.820        30
24.840        37
24.860        27
24.880        53
24.900        13
24.920        47
24.940        27
24.960        43
24.980        37
25.000        33
25.020        40
25.040        40
25.060        37
25.080        23
25.100        27
25.120        60
25.140        40
25.160        23
25.180        47
25.200        20
25.220        40
25.240        40
25.260        30
25.280        30
25.300        30
25.320        30
25.340        40
25.360        27
25.380        40
25.400        30
25.420        23
25.440        37
25.460        77
25.480        87
25.500        77
25.520        80
25.540        97
25.560       107
25.580        77
25.600        80
25.620        43
25.640        13
25.660        50
25.680        43
25.700        50
25.720        40
25.740        23
25.760        50
25.780        57
25.800        53
25.820        27
25.840        47
25.860        57
25.880        40
25.900        23
25.920        37
25.940        33
25.960        57
25.980        27
26.000        30
26.020        30
26.040        33
26.060        53
26.080        40
26.100        50
26.120        33
26.140        33
26.160        50
26.180        30
26.200        37
26.220        33
26.240        33
26.260        30
26.280        23
26.300        23
26.320        43
26.340        30
26.360        30
26.380        30
26.400        30
26.420        43
26.440        33
26.460        20
26.480        33
26.500        30
26.520        23
26.540        23
26.560        37
26.580        40
26.600        27
26.620        30
26.640        53
26.660        30
26.680        20
26.700        43
26.720        20
26.740        47
26.760        33
26.780        33
26.800        33
26.820        37
26.840        27
26.860        43
26.880        33
26.900        30
26.920        37
26.940        33
26.960        43
26.980        37
27.000        33
27.020        50
27.040        40
27.060        27
27.080        30
27.100        40
27.120        20
27.140        30
27.160        40
27.180        40
27.200        63
27.220        33
27.240        43
27.260        23
27.280        27
27.300        20
27.320        30
27.340        33
27.360        27
27.380        33
27.400        27
27.420        37
27.440        20
27.460        50
27.480        37
27.500        47
27.520        40
27.540        20
27.560        30
27.580        17
27.600        37
27.620        27
27.640        23
27.660        33
27.680        60
27.700        23
27.720        30
27.740        23
27.760        30
27.780        33
27.800        20
27.820        40
27.840        37
27.860        27
27.880        33
27.900        23
27.920        20
27.940        50
27.960        40
27.980        43
28.000        37
28.020        43
28.040        13
28.060        27
28.080        23
28.100        40
28.120        40
28.140        23
28.160        33
28.180        37
28.200        20
28.220        37
28.240        23
28.260        33
28.280        57
28.300        37
28.320        27
28.340        30
28.360        33
28.380        20
28.400        33
28.420        40
28.440        17
28.460        23
28.480        17
28.500        27
28.520        37
28.540        43
28.560        27
28.580        40
28.600        43
28.620        27
28.640        37
28.660        20
28.680        40
28.700        53
28.720        50
28.740        30
28.760        47
28.780        20
28.800        43
28.820        60
28.840        33
28.860        40
28.880        43
28.900        30
28.920        57
28.940        47
28.960        40
28.980        17
29.000        30
29.020        40
29.040        17
29.060        33
29.080        33
29.100        30
29.120        33
29.140        30
29.160        50
29.180        10
29.200        17
29.220        27
29.240        53
29.260        13
29.280        17
29.300        40
29.320        33
29.340        13
29.360        33
29.380        27
29.400        33
29.420        23
29.440        37
29.460        33
29.480        33
29.500        33
29.520        27
29.540        23
29.560        40
29.580        27
29.600        47
29.620        27
29.640        27
29.660        27
29.680        43
29.700        37
29.720        37
29.740        33
29.760        17
29.780        33
29.800        27
29.820        40
29.840        30
29.860        23
29.880        13
29.900        17
29.920        40
29.940        23
29.960        27
29.980        23
30.000        40
30.020        33
30.040        17
30.060        47
30.080        27
30.100        23
30.120        17
30.140        27
30.160        23
30.180        23
30.200        37
30.220        30
30.240        30
30.260        23
30.280        20
30.300        33
30.320        10
30.340        17
30.360        13
30.380        17
30.400        23
30.420        23
30.440        27
30.460        27
30.480        10
30.500        20
30.520        20
30.540        30
30.560        43
30.580        37
30.600        23
30.620        27
30.640        17
30.660        30
30.680        40
30.700        20
30.720        27
30.740        53
30.760        43
30.780        40
30.800        20
30.820        20
30.840        20
30.860        30
30.880        17
30.900        47
30.920        10
30.940        20
30.960        33
30.980        27
31.000        30
31.020        33
31.040        20
31.060        43
31.080        27
31.100        17
31.120        30
31.140        30
31.160        27
31.180        37
31.200        27
31.220        23
31.240         7
31.260        37
31.280        43
31.300        50
31.320        27
31.340        27
31.360        37
31.380        27
31.400        43
31.420        23
31.440        23
31.460        23
31.480        17
31.500        30
31.520        30
31.540        17
31.560        57
31.580        33
31.600        40
31.620        30
31.640        33
31.660        37
31.680        43
31.700        23
31.720        27
31.740        20
31.760        23
31.780        40
31.800        23
31.820        27
31.840        33
31.860        43
31.880        43
31.900        30
31.920        40
31.940        47
31.960        43
31.980        47
32.000        50
32.020        57
32.040        53
32.060        67
32.080        63
32.100        63
32.120        73
32.140       127
32.160       110
32.180       120
32.200       133
32.220       110
32.240       117
32.260       100
32.280       147
32.300       140
32.320       123
32.340       137
32.360       130
32.380       137
32.400        93
32.420       120
32.440       120
32.460        93
32.480        87
32.500       107
32.520        87
32.540        57
32.560        63
32.580        57
32.600        30
32.620        57
32.640        47
32.660        53
32.680        37
32.700        50
32.720        47
32.740        27
32.760        27
32.780        33
32.800        40
32.820        37
32.840        20
32.860        30
32.880        20
32.900        40
32.920        27
32.940        30
32.960        27
32.980        40
33.000        23
33.020        50
33.040        17
33.060        23
33.080        40
33.100        23
33.120        30
33.140        27
33.160        27
33.180        43
33.200        33
33.220        17
33.240        23
33.260        27
33.280        53
33.300        33
33.320        33
33.340        33
33.360        17
33.380        33
33.400        30
33.420        10
33.440        37
33.460        40
33.480        40
33.500        27
33.520        33
33.540        23
33.560        37
33.580        30
33.600        37
33.620        33
33.640        33
33.660        23
33.680        33
33.700        17
33.720        33
33.740        30
33.760        30
33.780        10
33.800        17
33.820        23
33.840        33
33.860        20
33.880        23
33.900        27
33.920        30
33.940        23
33.960        37
33.980        37
34.000        27
34.020        17
34.040        27
34.060        47
34.080        10
34.100        20
34.120        33
34.140        40
34.160        27
34.180        47
34.200        27
34.220        27
34.240        33
34.260        17
34.280        40
34.300        33
34.320        37
34.340        27
34.360        37
34.380         7
34.400        23
34.420        20
34.440        27
34.460        30
34.480        13
34.500        20
34.520        37
34.540        27
34.560        17
34.580        27
34.600        33
34.620        23
34.640        23
34.660        43
34.680        17
34.700        23
34.720        30
34.740        20
34.760        17
34.780         7
34.800        33
34.820        23
34.840        30
34.860        10
34.880        30
34.900        37
34.920        20
34.940        53
34.960        37
34.980        73
35.000        77
35.020       120
35.040       117
35.060       127
35.080       117
35.100       127
35.120       207
35.140       330
35.160       383
35.180       290
35.200       160
35.220       167
35.240       203
35.260       200
35.280       117
35.300        63
35.320        37
35.340        30
35.360        30
35.380        13
35.400        43
35.420        27
35.440        20
35.460        20
35.480        37
35.500        17
35.520        23
35.540        50
35.560        27
35.580        17
35.600        23
35.620        20
35.640        27
35.660        20
35.680        10
35.700        27
35.720        23
35.740        30
35.760        10
35.780        33
35.800        17
35.820        17
35.840        40
35.860        37
35.880        23
35.900        27
35.920        40
35.940        27
35.960        17
35.980        23
36.000        37
36.020        10
36.040        30
36.060        17
36.080        13
36.100        20
36.120        13
36.140        17
36.160        17
36.180        30
36.200        17
36.220        20
36.240        27
36.260        30
36.280        20
36.300        10
36.320        13
36.340        27
36.360        30
36.380        20
36.400        43
36.420        27
36.440        27
36.460        20
36.480        23
36.500        23
36.520        30
36.540        17
36.560        27
36.580        20
36.600        27
36.620        17
36.640        33
36.660        27
36.680        13
36.700        10
36.720        23
36.740        27
36.760        17
36.780        40
36.800        20
36.820        37
36.840        40
36.860        17
36.880        33
36.900        43
36.920        40
36.940        30
36.960        17
36.980        27
37.000        33
37.020        33
37.040        27
37.060         7
37.080        20
37.100        10
37.120        30
37.140        23
37.160        10
37.180        20
37.200         7
37.220        30
37.240        33
37.260        27
37.280        20
37.300        17
37.320        37
37.340        20
37.360        17
37.380        13
37.400        10
37.420        37
37.440        20
37.460        67
37.480        33
37.500        43
37.520        20
37.540        30
37.560        17
37.580        27
37.600        13
37.620        30
37.640        37
37.660        30
37.680        30
37.700        37
37.720        33
37.740        63
37.760        97
37.780       110
37.800       163
37.820       160
37.840        87
37.860        53
37.880        93
37.900        87
37.920       133
37.940        93
37.960        23
37.980        23
38.000        30
38.020        33
38.040        10
38.060        23
38.080        20
38.100        10
38.120        30
38.140        20
38.160        37
38.180        30
38.200        10
38.220        13
38.240        23
38.260        17
38.280        17
38.300        30
38.320        27
38.340        20
38.360        30
38.380        30
38.400        20
38.420        20
38.440        27
38.460        20
38.480        33
38.500        40
38.520        30
38.540        23
38.560        20
38.580        10
38.600        47
38.620        23
38.640        20
38.660        13
38.680        20
38.700        23
38.720        27
38.740        20
38.760        23
38.780        37
38.800        33
38.820        23
38.840        33
38.860        27
38.880        17
38.900         3
38.920        20
38.940        17
38.960        47
38.980        27
39.000        30
39.020        30
39.040        20
39.060        37
39.080        23
39.100        30
39.120        20
39.140        20
39.160        33
39.180        20
39.200        33
39.220        17
39.240        40
39.260        27
39.280        30
39.300        10
39.320        13
39.340        33
39.360        37
39.380        17
39.400        23
39.420        37
39.440        27
39.460        20
39.480        53
39.500        37
39.520        40
39.540        47
39.560        37
39.580        47
39.600        20
39.620        47
39.640        27
39.660        53
39.680        47
39.700        53
39.720        77
39.740        60
39.760        93
39.780        50
39.800        83
39.820        57
39.840        87
39.860        93
39.880        73
39.900        93
39.920       113
39.940       107
39.960       100
39.980       117
40.000       113
40.020        97
40.040       103
40.060        93
40.080        80
40.100        57
40.120        67
40.140        70
40.160        60
40.180        63
40.200        83
40.220        40
40.240        63
40.260        30
40.280        43
40.300        43
40.320        27
40.340        43
40.360        23
40.380        40
40.400        33
40.420        53
40.440        33
40.460        30
40.480        43
40.500        23
40.520        10
40.540        30
40.560        27
40.580        20
40.600        20
40.620        20
40.640        40
40.660        37
40.680        30
40.700        40
40.720        13
40.740        20
40.760        27
40.780        20
40.800        23
40.820        23
40.840        30
40.860        13
40.880        23
40.900        30
40.920        13
40.940        13
40.960        17
40.980        30
41.000        40
41.020        27
41.040        37
41.060        17
41.080        37
41.100        20
41.120        30
41.140        17
41.160        40
41.180        13
41.200        30
41.220        27
41.240        30
41.260        23
41.280        43
41.300        20
41.320        33
41.340        20
41.360        17
41.380        40
41.400        57
41.420        37
41.440        13
41.460        27
41.480        43
41.500        33
41.520        37
41.540        40
41.560        40
41.580        60
41.600        60
41.620        87
41.640       153
41.660       147
41.680       207
41.700       223
41.720       130
41.740       120
41.760       117
41.780       117
41.800        97
41.820       130
41.840        80
41.860        33
41.880        37
41.900        47
41.920        23
41.940        30
41.960        13
41.980        23
42.000        37
42.020        30
42.040        30
42.060        20
42.080        23
42.100        20
42.120        33
42.140        27
42.160        23
42.180        23
42.200        23
42.220        33
42.240        33
42.260        23
42.280        27
42.300        17
42.320        20
42.340        17
42.360        23
42.380        13
42.400        13
42.420        20
42.440        27
42.460        23
42.480        27
42.500        20
42.520        27
42.540        37
42.560        27
42.580        20
42.600        43
42.620        20
42.640        27
42.660        40
42.680        27
42.700        47
42.720        17
42.740        30
42.760        23
42.780        30
42.800        13
42.820        30
42.840        20
42.860        23
42.880        30
42.900        33
42.920        23
42.940        30
42.960        27
42.980        33
43.000        30
43.020        13
43.040        23
43.060        40
43.080        27
43.100        37
43.120        20
43.140        47
43.160        60
43.180        77
43.200        63
43.220        73
43.240        60
43.260       120
43.280       130
43.300       137
43.320       113
43.340       150
43.360       210
43.380       257
43.400       267
43.420       180
43.440       123
43.460        97
43.480       167
43.500       147
43.520       117
43.540        77
43.560        23
43.580        23
43.600        40
43.620        23
43.640        27
43.660        33
43.680        17
43.700        37
43.720        23
43.740        27
43.760        57
43.780        27
43.800        23
43.820        13
43.840        33
43.860        47
43.880        13
43.900        53
43.920        27
43.940        33
43.960        27
43.980        37
44.000        33
44.020        30
44.040        30
44.060        30
44.080        17
44.100        27
44.120        33
44.140        30
44.160        33
44.180        40
44.200        37
44.220        47
44.240        40
44.260        33
44.280        30
44.300        43
44.320        27
44.340        27
44.360        57
44.380        47
44.400        67
44.420        33
44.440        47
44.460        40
44.480        57
44.500        50
44.520        47
44.540        70
44.560        50
44.580        53
44.600        53
44.620        37
44.640        63
44.660        63
44.680        53
44.700        80
44.720        67
44.740        43
44.760        57
44.780        70
44.800        77
44.820        50
44.840        63
44.860        80
44.880        90
44.900        87
44.920        77
44.940        90
44.960       113
44.980        70
45.000        93
45.020        77
45.040       100
45.060       120
45.080       117
45.100        83
45.120       117
45.140       120
45.160        90
45.180       127
45.200       123
45.220       123
45.240       143
45.260       160
45.280       153
45.300       137
45.320       207
45.340       147
45.360       180
45.380       190
45.400       197
45.420       200
45.440       267
45.460       253
45.480       310
45.500       243
45.520       317
45.540       340
45.560       367
45.580       433
45.600       426
45.620       466
45.640       446
45.660       523
45.680       480
45.700       613
45.720       693
45.740       616
45.760       613
45.780       860
45.800       866
45.820       723
45.840       833
45.860       920
45.880      1110
45.900      1010
45.920       950
45.940      1093
45.960      1176
45.980      1083
46.000      1216
46.020      1206
46.040      1259
46.060      1293
46.080      1216
46.100      1316
46.120      1446
46.140      1506
46.160      1383
46.180      1283
46.200      1326
46.220      1296
46.240      1313
46.260      1316
46.280      1343
46.300      1259
46.320      1246
46.340      1356
46.360      1113
46.380      1110
46.400      1086
46.420      1020
46.440       950
46.460      1026
46.480       956
46.500       833
46.520       806
46.540       693
46.560       743
46.580       723
46.600       676
46.620       623
46.640       553
46.660       500
46.680       480
46.700       453
46.720       433
46.740       430
46.760       357
46.780       370
46.800       393
46.820       330
46.840       263
46.860       317
46.880       253
46.900       233
46.920       257
46.940       217
46.960       210
46.980       227
47.000       163
47.020       170
47.040       200
47.060       157
47.080       140
47.100       130
47.120       107
47.140       140
47.160       140
47.180        93
47.200       107
47.220       100
47.240       133
47.260       107
47.280       103
47.300        93
47.320        77
47.340       107
47.360       100
47.380       100
47.400        63
47.420        63
47.440        57
47.460        77
47.480        73
47.500        83
47.520        87
47.540        47
47.560        63
47.580        80
47.600        70
47.620        50
47.640        60
47.660        63
47.680        33
47.700        43
47.720        47
47.740        60
47.760        73
47.780        50
47.800        50
47.820        67
47.840        57
47.860        67
47.880        50
47.900        37
47.920        53
47.940        40
47.960        37
47.980        37
48.000        33
48.020        47
48.040        50
48.060        27
48.080        37
48.100        53
48.120        53
48.140        30
48.160        33
48.180        53
48.200        43
48.220        53
48.240        37
48.260        53
48.280        50
48.300        33
48.320        67
48.340        30
48.360        40
48.380        17
48.400        30
48.420        43
48.440        83
48.460        50
48.480        23
48.500        57
48.520        30
48.540        23
48.560        20
48.580        57
48.600        37
48.620        23
48.640        57
48.660        47
48.680        27
48.700        43
48.720        40
48.740        33
48.760        33
48.780        20
48.800        40
48.820        27
48.840        20
48.860        27
48.880        20
48.900        50
48.920        43
48.940        50
48.960        37
48.980        23
49.000        33
49.020        20
49.040        30
49.060        27
49.080        23
49.100        53
49.120        30
49.140        37
49.160        30
49.180        23
49.200        37
49.220        40
49.240        27
49.260        37
49.280        37
49.300        30
49.320        30
49.340        47
49.360        37
49.380        30
49.400        17
49.420        33
49.440        27
49.460        37
49.480        23
49.500        27
49.520        30
49.540        27
49.560        17
49.580        37
49.600        10
49.620        30
49.640        30
49.660        10
49.680        23
49.700        17
49.720        33
49.740        30
49.760        30
49.780        33
49.800        10
49.820        27
49.840        23
49.860        27
49.880        33
49.900        30
49.920        27
49.940        30
49.960        30
49.980        23
50.000        33
50.020        40
50.040        20
50.060        17
50.080        43
50.100        17
50.120        17
50.140        37
50.160        27
50.180        33
50.200        20
50.220        23
50.240        20
50.260        40
50.280        30
50.300        20
50.320        37
50.340        37
50.360        23
50.380        27
50.400        20
50.420        30
50.440         3
50.460        20
50.480        30
50.500        20
50.520        20
50.540        30
50.560        27
50.580        10
50.600        13
50.620        33
50.640        33
50.660        20
50.680        37
50.700        13
50.720        13
50.740        27
50.760        33
50.780        17
50.800        37
50.820        23
50.840        27
50.860        30
50.880        30
50.900        37
50.920        20
50.940        13
50.960        27
50.980        20
51.000         7
51.020        40
51.040        10
51.060        23
51.080        17
51.100        37
51.120        20
51.140        27
51.160        30
51.180        40
51.200        30
51.220        33
51.240        47
51.260        20
51.280        13
51.300        20
51.320         7
51.340        10
51.360        20
51.380        17
51.400        33
51.420        40
51.440        30
51.460        43
51.480        27
51.500        13
51.520         7
51.540        17
51.560        30
51.580        17
51.600        33
51.620        23
51.640        20
51.660        23
51.680        13
51.700        20
51.720        30
51.740        17
51.760        27
51.780        33
51.800        30
51.820        17
51.840         3
51.860        13
51.880        33
51.900        17
51.920        37
51.940        17
51.960        23
51.980        20
52.000        43
52.020        10
52.040        13
52.060        10
52.080        17
52.100        27
52.120        33
52.140        23
52.160        20
52.180        17
52.200        20
52.220        27
52.240        23
52.260        17
52.280        20
52.300        47
52.320        27
52.340        20
52.360        20
52.380        20
52.400        30
52.420        23
52.440        17
52.460        70
52.480        67
52.500        80
52.520        93
52.540       203
52.560       210
52.580       163
52.600       117
52.620        67
52.640       120
52.660        83
52.680       120
52.700       127
52.720        77
52.740        63
52.760        47
52.780        40
52.800        50
52.820        17
52.840        27
52.860        13
52.880        37
52.900        27
52.920        10
52.940        27
52.960        23
52.980        37
53.000        10
53.020        20
53.040        27
53.060        17
53.080        23
53.100        13
53.120        17
53.140        23
53.160        10
53.180        17
53.200        17
53.220        17
53.240        20
53.260        10
53.280        27
53.300        23
53.320         7
53.340        10
53.360        20
53.380        47
53.400        10
53.420        30
53.440        17
53.460        10
53.480        37
53.500        20
53.520        20
53.540        20
53.560        27
53.580        13
53.600        13
53.620        40
53.640        30
53.660        13
53.680        10
53.700        20
53.720        20
53.740         3
53.760        20
53.780        17
53.800        37
53.820        10
53.840        20
53.860        27
53.880        17
53.900        17
53.920        23
53.940        13
53.960        13
53.980        27
54.000        27
54.020        10
54.040        17
54.060        17
54.080        20
54.100        13
54.120        27
54.140        13
54.160        20
54.180        43
54.200        20
54.220        17
54.240        30
54.260        17
54.280        13
54.300        37
54.320        33
54.340        30
54.360        10
54.380        20
54.400        20
54.420        17
54.440        10
54.460        20
54.480        27
54.500        13
54.520        10
54.540        30
54.560        17
54.580        10
54.600        13
54.620        13
54.640        27
54.660        13
54.680        13
54.700        17
54.720        13
54.740         7
54.760         7
54.780        23
54.800        13
54.820        20
54.840        20
54.860        13
54.880        37
54.900        23
54.920        10
54.940        10
54.960        17
54.980         7
55.000        13
55.020        20
55.040        37
55.060        20
55.080        13
55.100        13
55.120         3
55.140        10
55.160        23
55.180        10
55.200         0
55.220        13
55.240        17
55.260        17
55.280        17
55.300        17
55.320        23
55.340        17
55.360         3
55.380        13
55.400        17
55.420        13
55.440         7
55.460        17
55.480        20
55.500        17
55.520        17
55.540        17
55.560        27
55.580        10
55.600        20
55.620        27
55.640        17
55.660        10
55.680        10
55.700        20
55.720        10
55.740        23
55.760        30
55.780        20
55.800        37
55.820        13
55.840        23
55.860        33
55.880        17
55.900        10
55.920        27
55.940        23
55.960        20
55.980        30
56.000        23
56.020        17
56.040        23
56.060        13
56.080        13
56.100        13
56.120        13
56.140         7
56.160        23
56.180        20
56.200        30
56.220        10
56.240        23
56.260        10
56.280        17
56.300        20
56.320         7
56.340        20
56.360        17
56.380         7
56.400        13
56.420        20
56.440         3
56.460         7
56.480        27
56.500        13
56.520        17
56.540        13
56.560        40
56.580        37
56.600        23
56.620        20
56.640         7
56.660        23
56.680         3
56.700        13
56.720        20
56.740        23
56.760        13
56.780        23
56.800        17
56.820        27
56.840        13
56.860        17
56.880         7
56.900        10
56.920        23
56.940        23
56.960        10
56.980        27
57.000        10
57.020        10
57.040         7
57.060        30
57.080        17
57.100        23
57.120        10
57.140        17
57.160        23
57.180        30
57.200        30
57.220         7
57.240        23
57.260        17
57.280        30
57.300        27
57.320        17
57.340        50
57.360        50
57.380        40
57.400        80
57.420        73
57.440        57
57.460        70
57.480       103
57.500       133
57.520       143
57.540        97
57.560        83
57.580        60
57.600        40
57.620        30
57.640        73
57.660       127
57.680        67
57.700       117
57.720        57
57.740        53
57.760        47
57.780        40
57.800        43
57.820        27
57.840        27
57.860        27
57.880        27
57.900        17
57.920        27
57.940        20
57.960        13
57.980        23
58.000        17
58.020        23
58.040        17
58.060         7
58.080        13
58.100        20
58.120        20
58.140        37
58.160        23
58.180        37
58.200        20
58.220        27
58.240        13
58.260        10
58.280        37
58.300        20
58.320        17
58.340        40
58.360        23
58.380        10
58.400        20
58.420        23
58.440        17
58.460        23
58.480        20
58.500        27
58.520        23
58.540         3
58.560        17
58.580        17
58.600         7
58.620        30
58.640        27
58.660         0
58.680        23
58.700        13
58.720        20
58.740        10
58.760        20
58.780        13
58.800        20
58.820         7
58.840        17
58.860        10
58.880        10
58.900         7
58.920        17
58.940        20
58.960        27
58.980        20
59.000        23
59.020        20
59.040        27
59.060        20
59.080         7
59.100        23
59.120        10
59.140        20
59.160        17
59.180        13
59.200        20
59.220        23
59.240        20
59.260        23
59.280        23
59.300        23
59.320        20
59.340        17
59.360        17
59.380        27
59.400        20
59.420         7
59.440        17
59.460        27
59.480        33
59.500        30
59.520        20
59.540        20
59.560        10
59.580        27
59.600        30
59.620        20
59.640        30
59.660        10
59.680        33
59.700        30
59.720        17
59.740        37
59.760        50
59.780        33
59.800        50
59.820        43
59.840        23
59.860        20
59.880        27
59.900        37
59.920        17
59.940        30
59.960        33
59.980        37
60.000        37
