20.000        50
20.020        37
20.040        40
20.060        43
20.080        33
20.100        33
20.120        67
20.140        27
20.160        53
20.180        47
20.200        53
20.220        50
20.240        33
20.260        57
20.280        17
20.300        27
20.320        63
20.340        20
20.360        53
20.380        67
20.400        20
20.420        20
20.440        63
20.460        27
20.480        50
20.500        53
20.520        63
20.540        63
20.560        33
20.580        50
20.600        33
20.620        70
20.640        43
20.660        40
20.680        53
20.700        33
20.720        47
20.740        43
20.760        30
20.780        43
20.800        47
20.820        70
20.840        17
20.860        33
20.880        40
20.900        30
20.920        43
20.940        47
20.960        73
20.980        57
21.000        43
21.020        33
21.040        43
21.060        37
21.080        43
21.100        60
21.120        37
21.140        50
21.160        43
21.180        60
21.200        43
21.220        43
21.240        33
21.260        40
21.280        53
21.300        20
21.320        63
21.340        43
21.360        37
21.380        50
21.400        40
21.420        37
21.440        50
21.460        47
21.480        20
21.500        30
21.520        30
21.540        47
21.560        33
21.580        43
21.600        37
21.620        53
21.640        53
21.660        47
21.680        57
21.700        37
21.720        57
21.740        40
21.760        43
21.780        47
21.800        40
21.820        53
21.840        57
21.860        47
21.880        33
21.900        57
21.920        43
21.940        43
21.960        30
21.980        43
22.000        53
22.020        30
22.040        47
22.060        37
22.080        50
22.100        43
22.120        63
22.140        53
22.160        50
22.180        63
22.200        27
22.220        53
22.240        73
22.260        53
22.280        73
22.300        70
22.320        80
22.340       103
22.360       113
22.380        70
22.400        80
22.420        63
22.440        90
22.460       123
22.480        73
22.500       110
22.520        70
22.540       113
22.560       100
22.580        80
22.600        87
22.620        90
22.640        83
22.660        90
22.680        97
22.700        87
22.720        90
22.740        73
22.760        60
22.780        83
22.800       107
22.820        77
22.840        80
22.860        77
22.880        83
22.900        80
22.920        43
22.940        47
22.960        60
22.980        47
23.000        80
23.020        53
23.040        53
23.060        47
23.080        57
23.100        67
23.120        37
23.140        60
23.160        47
23.180        53
23.200        87
23.220        63
23.240        27
23.260        60
23.280        37
23.300        33
23.320        57
23.340        20
23.360        53
23.380        47
23.400        67
23.420        47
23.440        40
23.460        27
23.480        63
23.500        53
23.520        47
23.540        50
23.560        50
23.580        53
23.600        47
23.620        33
23.640        27
23.660        33
23.680        33
23.700        37
23.720        37
23.740        40
23.760        27
23.780        37
23.800        50
23.820        43
23.840        33
23.860        37
23.880        40
23.900        73
23.920        50
23.940        37
23.960        23
23.980        47
24.000        30
24.020        47
24.040        30
24.060        47
24.080        40
24.100        67
24.120        23
24.140        37
24.160        43
24.180        30
24.200        37
24.220        40
24.240        43
24.260        27
24.280        53
24.300        37
24.320        53
24.340        27
24.360        40
24.380        47
24.400        33
24.420        17
24.440        57
24.460        30
24.480        37
24.500        20
24.520        33
24.540        23
24.560        43
24.580        37
24.600        47
24.620        33
24.640        53
24.660        57
24.680        27
24.700        40
24.720        33
24.740        60
24.760        33
24.780        20
24.800        33
24.820        40
24.840        23
24.860        20
24.880        57
24.900        43
24.920        40
24.940        27
24.960        37
24.980        13
25.000        40
25.020        47
25.040        27
25.060        60
25.080        30
25.100        33
25.120        40
25.140        30
25.160        17
25.180        30
25.200        33
25.220        27
25.240        33
25.260        43
25.280        30
25.300        43
25.320        33
25.340        20
25.360        30
25.380        50
25.400        30
25.420        43
25.440        33
25.460        20
25.480        40
25.500        33
25.520        43
25.540        40
25.560        57
25.580        63
25.600        53
25.620        70
25.640        53
25.660        47
25.680        53
25.700        37
25.720        67
25.740        43
25.760        23
25.780        37
25.800        33
25.820        47
25.840        20
25.860        33
25.880        33
25.900        57
25.920        17
25.940        33
25.960        23
25.980        13
26.000        33
26.020        43
26.040        37
26.060        30
26.080        30
26.100        40
26.120        37
26.140        50
26.160        47
26.180        17
26.200        23
26.220        50
26.240        23
26.260        27
26.280        47
26.300        30
26.320        20
26.340        37
26.360        37
26.380        30
26.400        17
26.420        37
26.440        47
26.460        23
26.480        40
26.500        23
26.520        23
26.540        17
26.560        17
26.580        27
26.600        43
26.620        33
26.640        50
26.660        40
26.680        23
26.700        27
26.720        37
26.740        47
26.760        23
26.780        37
26.800        37
26.820        27
26.840        33
26.860        37
26.880        23
26.900        40
26.920        27
26.940        17
26.960        37
26.980        30
27.000        33
27.020        40
27.040        23
27.060        23
27.080        23
27.100        37
27.120        37
27.140        30
27.160        33
27.180        27
27.200        43
27.220        20
27.240        33
27.260        27
27.280        33
27.300        30
27.320        27
27.340        40
27.360        37
27.380        23
27.400        30
27.420        23
27.440        10
27.460        10
27.480        37
27.500        30
27.520        27
27.540        27
27.560        33
27.580        30
27.600        23
27.620        20
27.640        13
27.660        17
27.680        43
27.700        37
27.720        23
27.740        27
27.760        37
27.780        47
27.800        33
27.820        30
27.840        23
27.860        23
27.880        47
27.900        37
27.920        23
27.940        20
27.960        20
27.980        30
28.000        33
28.020        20
28.040        37
28.060        30
28.080        17
28.100        37
28.120        57
28.140        33
28.160        30
28.180        53
28.200        20
28.220        17
28.240        33
28.260        33
28.280        27
28.300        43
28.320        13
28.340        23
28.360        33
28.380        37
28.400        17
28.420        20
28.440        13
28.460        27
28.480        33
28.500        20
28.520        17
28.540        30
28.560        17
28.580        37
28.600        33
28.620        27
28.640        23
28.660        50
28.680        17
28.700        23
28.720        40
28.740        20
28.760        40
28.780        40
28.800        43
28.820        33
28.840        33
28.860        37
28.880        30
28.900        37
28.920        43
28.940        10
28.960        30
28.980        33
29.000        43
29.020        20
29.040        13
29.060        43
29.080        47
29.100        40
29.120        47
29.140        37
29.160         3
29.180        37
29.200        37
29.220        40
29.240        43
29.260        27
29.280        33
29.300        17
29.320        30
29.340        30
29.360        30
29.380        40
29.400        20
29.420        17
29.440        27
29.460        40
29.480        17
29.500        17
29.520        23
29.540        27
29.560        13
29.580        23
29.600        33
29.620        53
29.640        27
29.660        20
29.680        13
29.700        17
29.720        27
29.740        20
29.760        20
29.780        23
29.800        13
29.820        33
29.840        37
29.860         7
29.880        30
29.900        27
29.920        10
29.940        17
29.960         7
29.980        17
30.000        27
30.020        23
30.040         7
30.060        17
30.080        23
30.100        13
30.120        20
30.140        23
30.160         3
30.180        37
30.200        23
30.220        27
30.240        20
30.260        33
30.280        23
30.300        43
30.320        13
30.340        17
30.360        30
30.380        23
30.400        23
30.420        37
30.440        37
30.460        17
30.480        17
30.500        27
30.520        23
30.540        30
30.560        13
30.580        17
30.600        17
30.620        37
30.640        37
30.660        27
30.680        23
30.700        23
30.720        30
30.740        27
30.760        27
30.780        30
30.800        17
30.820        13
30.840        57
30.860        23
30.880        13
30.900        17
30.920         3
30.940        30
30.960        37
30.980        33
31.000        33
31.020        23
31.040        17
31.060        20
31.080        27
31.100        17
31.120        33
31.140        40
31.160        17
31.180        23
31.200        23
31.220        47
31.240        30
31.260        27
31.280        33
31.300        23
31.320        23
31.340        13
31.360        20
31.380        40
31.400        33
31.420        23
31.440        50
31.460        43
31.480        53
31.500        50
31.520        33
31.540        37
31.560        30
31.580        43
31.600        43
31.620        50
31.640        30
31.660        30
31.680        37
31.700        27
31.720        50
31.740        70
31.760        80
31.780        43
31.800        47
31.820        57
31.840        83
31.860        60
31.880        93
31.900        80
31.920        90
31.940       107
31.960        90
31.980       113
32.000       163
32.020       140
32.040       140
32.060       157
32.080       157
32.100       207
32.120       183
32.140       157
32.160       197
32.180       170
32.200       213
32.220       173
32.240       223
32.260       193
32.280       223
32.300       197
32.320       223
32.340       190
32.360       160
32.380       203
32.400       183
32.420       180
32.440       147
32.460       137
32.480       160
32.500       133
32.520       120
32.540        97
32.560        93
32.580        97
32.600        70
32.620        57
32.640        87
32.660        47
32.680        83
32.700        70
32.720        67
32.740        50
32.760        63
32.780        57
32.800        33
32.820        97
32.840        33
32.860        53
32.880        40
32.900        77
32.920        50
32.940        33
32.960        30
32.980        43
33.000        40
33.020        40
33.040        27
33.060        17
33.080        20
33.100        37
33.120        10
33.140        30
33.160        37
33.180        33
33.200        33
33.220        33
33.240        47
33.260        40
33.280        47
33.300        27
33.320        10
33.340        37
33.360        10
33.380        17
33.400        33
33.420        30
33.440        27
33.460        17
33.480        13
33.500        23
33.520        20
33.540        10
33.560        20
33.580        20
33.600        33
33.620        30
33.640        37
33.660        43
33.680        30
33.700        27
33.720        27
33.740        27
33.760        27
33.780         7
33.800        30
33.820        37
33.840        20
33.860        13
33.880        37
33.900        10
33.920        27
33.940        17
33.960        20
33.980        10
34.000        27
34.020         7
34.040        20
34.060        37
34.080        27
34.100        17
34.120         7
34.140        27
34.160        33
34.180        20
34.200        33
34.220        20
34.240        27
34.260        20
34.280        33
34.300        10
34.320        23
34.340        33
34.360        13
34.380        20
34.400        17
34.420        30
34.440        30
34.460        33
34.480        30
34.500        13
34.520        10
34.540        17
34.560        30
34.580        30
34.600        17
34.620        20
34.640        27
34.660        13
34.680        17
34.700        30
34.720        30
34.740        27
34.760        43
34.780        17
34.800        10
34.820         3
34.840        20
34.860        20
34.880        10
34.900        40
34.920        20
34.940        23
34.960        17
34.980        13
35.000        30
35.020        27
35.040        23
35.060        20
35.080        33
35.100        27
35.120        27
35.140        27
35.160        17
35.180        17
35.200        27
35.220        17
35.240        20
35.260        23
35.280        20
35.300        10
35.320        20
35.340        13
35.360        17
35.380        37
35.400        13
35.420        10
35.440        20
35.460        17
35.480        20
35.500        20
35.520        13
35.540        13
35.560        20
35.580        13
35.600        37
35.620        17
35.640        17
35.660        30
35.680         7
35.700        37
35.720        17
35.740        27
35.760        17
35.780        17
35.800        20
35.820        17
35.840        17
35.860        23
35.880        23
35.900        30
35.920        17
35.940        37
35.960        40
35.980        20
36.000        10
36.020        17
36.040        23
36.060        20
36.080        17
36.100        17
36.120         7
36.140        27
36.160        20
36.180        13
36.200        40
36.220        17
36.240        27
36.260        27
36.280        33
36.300        17
36.320        27
36.340        27
36.360        23
36.380        20
36.400        23
36.420        17
36.440        13
36.460        20
36.480        20
36.500        30
36.520        10
36.540        20
36.560        13
36.580        33
36.600         3
36.620        13
36.640        23
36.660         7
36.680        13
36.700        30
36.720        17
36.740        20
36.760        17
36.780        20
36.800        20
36.820        10
36.840        23
36.860        20
36.880        23
36.900        10
36.920        27
36.940        17
36.960        20
36.980         3
37.000        20
37.020        13
37.040         7
37.060        20
37.080        23
37.100         7
37.120        17
37.140        23
37.160        10
37.180        23
37.200        17
37.220        17
37.240        33
37.260        27
37.280        30
37.300        27
37.320        20
37.340        13
37.360        17
37.380        17
37.400        10
37.420        27
37.440        37
37.460        27
37.480        13
37.500        10
37.520        13
37.540        10
37.560        10
37.580        13
37.600        13
37.620        17
37.640         3
37.660        10
37.680        27
37.700        10
37.720        10
37.740        13
37.760        10
37.780         7
37.800        17
37.820        23
37.840        23
37.860        20
37.880        30
37.900        27
37.920        17
37.940        23
37.960        23
37.980        37
38.000        20
38.020        17
38.040        23
38.060        23
38.080        23
38.100        27
38.120        20
38.140        27
38.160        17
38.180        27
38.200        17
38.220        13
38.240        27
38.260         7
38.280        33
38.300        10
38.320        17
38.340        13
38.360        33
38.380        23
38.400        20
38.420        20
38.440        33
38.460        27
38.480        27
38.500        20
38.520        20
38.540        20
38.560        17
38.580        30
38.600        23
38.620        23
38.640        20
38.660        17
38.680        20
38.700        17
38.720        17
38.740        10
38.760        30
38.780        27
38.800        27
38.820        13
38.840        33
38.860         3
38.880        17
38.900        10
38.920        23
38.940        23
38.960        17
38.980        20
39.000        23
39.020        20
39.040        17
39.060        17
39.080        20
39.100        23
39.120        13
39.140        20
39.160        33
39.180        40
39.200         3
39.220        37
39.240        23
39.260        13
39.280        23
39.300        20
39.320        23
39.340        20
39.360        17
39.380        23
39.400        10
39.420        13
39.440         7
39.460        30
39.480        20
39.500        10
39.520        13
39.540        13
39.560        23
39.580        10
39.600         7
39.620        23
39.640        17
39.660        13
39.680        17
39.700        20
39.720        17
39.740        33
39.760        27
39.780        17
39.800        13
39.820        17
39.840        33
39.860        27
39.880        23
39.900        27
39.920        33
39.940        23
39.960        23
39.980        37
40.000        13
40.020        27
40.040        20
40.060        30
40.080         7
40.100        17
40.120        30
40.140        30
40.160        17
40.180        37
40.200        17
40.220         7
40.240        23
40.260        13
40.280        17
40.300        20
40.320        27
40.340        37
40.360        27
40.380        27
40.400        10
40.420        13
40.440        20
40.460        20
40.480        20
40.500        13
40.520        13
40.540        27
40.560        10
40.580        33
40.600        13
40.620        20
40.640        20
40.660        23
40.680        20
40.700        23
40.720        17
40.740        20
40.760        23
40.780        33
40.800        13
40.820        13
40.840        27
40.860        17
40.880         7
40.900        30
40.920        23
40.940        27
40.960        20
40.980        23
41.000        23
41.020        20
41.040        20
41.060        27
41.080        30
41.100        20
41.120        30
41.140        40
41.160        23
41.180        20
41.200        23
41.220        27
41.240        17
41.260        13
41.280        10
41.300        17
41.320        33
41.340        13
41.360        13
41.380        40
41.400        30
41.420        23
41.440        23
41.460        33
41.480        13
41.500        27
41.520        27
41.540        20
41.560        23
41.580        30
41.600        13
41.620        37
41.640        10
41.660        10
41.680        20
41.700        13
41.720        10
41.740        20
41.760        17
41.780        17
41.800        20
41.820        30
41.840        10
41.860         7
41.880        20
41.900         7
41.920        17
41.940        17
41.960        20
41.980        17
42.000        17
42.020        20
42.040        17
42.060        13
42.080        23
42.100        23
42.120        40
42.140        27
42.160        23
42.180        20
42.200        43
42.220        17
42.240         7
42.260        23
42.280        20
42.300        13
42.320        13
42.340        13
42.360        37
42.380        10
42.400        20
42.420        17
42.440        33
42.460        27
42.480        13
42.500        17
42.520        20
42.540        23
42.560        13
42.580        30
42.600        13
42.620        40
42.640        20
42.660        27
42.680        27
42.700         0
42.720        10
42.740        20
42.760        20
42.780        23
42.800        20
42.820        27
42.840        33
42.860        13
42.880        43
42.900        23
42.920         7
42.940        37
42.960        30
42.980        27
43.000        23
43.020        23
43.040        20
43.060        40
43.080        13
43.100        50
43.120        23
43.140        20
43.160        43
43.180        23
43.200        40
43.220        17
43.240        17
43.260        20
43.280        23
43.300        20
43.320        27
43.340        23
43.360        27
43.380         3
43.400        27
43.420        47
43.440        27
43.460        27
43.480        33
43.500        17
43.520        10
43.540        17
43.560        40
43.580        17
43.600        30
43.620        23
43.640        37
43.660        23
43.680        23
43.700        13
43.720        17
43.740        33
43.760        27
43.780        37
43.800        30
43.820        27
43.840        40
43.860        23
43.880        30
43.900        17
43.920        33
43.940        20
43.960        13
43.980        50
44.000        27
44.020        37
44.040        33
44.060        23
44.080        37
44.100        37
44.120        37
44.140        40
44.160        27
44.180        30
44.200        33
44.220        47
44.240        30
44.260        37
44.280        50
44.300        57
44.320        43
44.340        43
44.360        17
44.380        37
44.400        53
44.420        47
44.440        43
44.460        57
44.480        20
44.500        43
44.520        43
44.540        33
44.560        20
44.580        70
44.600        37
44.620        37
44.640        47
44.660        53
44.680        47
44.700        70
44.720        57
44.740        83
44.760        73
44.780        67
44.800        70
44.820        83
44.840        87
44.860        90
44.880        93
44.900        57
44.920        97
44.940        80
44.960        87
44.980        90
45.000        83
45.020       113
45.040        93
45.060       127
45.080        87
45.100       113
45.120       113
45.140       167
45.160       157
45.180       133
45.200       137
45.220       207
45.240       160
45.260       180
45.280       207
45.300       200
45.320       183
45.340       260
45.360       207
45.380       300
45.400       300
45.420       297
45.440       273
45.460       260
45.480       350
45.500       403
45.520       383
45.540       500
45.560       433
45.580       473
45.600       523
45.620       426
45.640       486
45.660       563
45.680       546
45.700       610
45.720       673
45.740       703
45.760       663
45.780       760
45.800       733
45.820       766
45.840       713
45.860       686
45.880       810
45.900       806
45.920       793
45.940       730
45.960       740
45.980       763
46.000       763
46.020       713
46.040       726
46.060       733
46.080       683
46.100       720
46.120       673
46.140       686
46.160       600
46.180       616
46.200       656
46.220       566
46.240       603
46.260       570
46.280       556
46.300       553
46.320       523
46.340       526
46.360       450
46.380       540
46.400       530
46.420       373
46.440       340
46.460       413
46.480       340
46.500       373
46.520       290
46.540       373
46.560       327
46.580       277
46.600       273
46.620       273
46.640       220
46.660       213
46.680       223
46.700       247
46.720       163
46.740       193
46.760       183
46.780       187
46.800       160
46.820       187
46.840       137
46.860       140
46.880       167
46.900       147
46.920       113
46.940        87
46.960       160
46.980       177
47.000       120
47.020       117
47.040       127
47.060       153
47.080        97
47.100       113
47.120        80
47.140       107
47.160       130
47.180        80
47.200       110
47.220       117
47.240        70
47.260        80
47.280        90
47.300        60
47.320        87
47.340        73
47.360        83
47.380        50
47.400        87
47.420        60
47.440        87
47.460        53
47.480        83
47.500        63
47.520        57
47.540        77
47.560        40
47.580        77
47.600        70
47.620        57
47.640        63
47.660        37
47.680        60
47.700        33
47.720        53
47.740        53
47.760        60
47.780        47
47.800        57
47.820        70
47.840        50
47.860        67
47.880        37
47.900        43
47.920        43
47.940        33
47.960        57
47.980        27
48.000        27
48.020        67
48.040        37
48.060        50
48.080        50
48.100        50
48.120        40
48.140        53
48.160        23
48.180        50
48.200        40
48.220        50
48.240        57
48.260        43
48.280        23
48.300        50
48.320        53
48.340        37
48.360        27
48.380        40
48.400        50
48.420        30
48.440        47
48.460        30
48.480        47
48.500        27
48.520        40
48.540        33
48.560        33
48.580        33
48.600        37
48.620        27
48.640        33
48.660        47
48.680        20
48.700        40
48.720        30
48.740        20
48.760        30
48.780        47
48.800        20
48.820        50
48.840        33
48.860        53
48.880        40
48.900        27
48.920        27
48.940        37
48.960        57
48.980        53
49.000        17
49.020        37
49.040        27
49.060        47
49.080        33
49.100        10
49.120        33
49.140        27
49.160        20
49.180        40
49.200        27
49.220        37
49.240        40
49.260        13
49.280        13
49.300        27
49.320        43
49.340        27
49.360        17
49.380        37
49.400        30
49.420        20
49.440        20
49.460        23
49.480        13
49.500        40
49.520        33
49.540        30
49.560        30
49.580        27
49.600        43
49.620        13
49.640        20
49.660        20
49.680        10
49.700        23
49.720        20
49.740        30
49.760        27
49.780        33
49.800        30
49.820        40
49.840        50
49.860        13
49.880        27
49.900        27
49.920        27
49.940        33
49.960        30
49.980        20
50.000        27
50.020        30
50.040        43
50.060        27
50.080        27
50.100        20
50.120        17
50.140         7
50.160        23
50.180        47
50.200        17
50.220        30
50.240        23
50.260        30
50.280        30
50.300        20
50.320        17
50.340         7
50.360         7
50.380        33
50.400        30
50.420        30
50.440        10
50.460        17
50.480        10
50.500        20
50.520        20
50.540        27
50.560        20
50.580        20
50.600        13
50.620        30
50.640        30
50.660        27
50.680        30
50.700        33
50.720        13
50.740        23
50.760        37
50.780        30
50.800        43
50.820        10
50.840        27
50.860        30
50.880        40
50.900        33
50.920        10
50.940        40
50.960        23
50.980        30
51.000        23
51.020        33
51.040        20
51.060        37
51.080        27
51.100        13
51.120        30
51.140        33
51.160        23
51.180        30
51.200        20
51.220        27
51.240        20
51.260        30
51.280        30
51.300        33
51.320        17
51.340        23
51.360        37
51.380        37
51.400        30
51.420        27
51.440        33
51.460        37
51.480        23
51.500        40
51.520        13
51.540        37
51.560        40
51.580        37
51.600        40
51.620        27
51.640        40
51.660        23
51.680        30
51.700        33
51.720        33
51.740        13
51.760        27
51.780        23
51.800        37
51.820        23
51.840        43
51.860        43
51.880        40
51.900        33
51.920        30
51.940        57
51.960        37
51.980        33
52.000        47
52.020        37
52.040        37
52.060        47
52.080        43
52.100        60
52.120        27
52.140        57
52.160        50
52.180        33
52.200        53
52.220        33
52.240        57
52.260        57
52.280        53
52.300        43
52.320        53
52.340        67
52.360        70
52.380        43
52.400        63
52.420        67
52.440        97
52.460        90
52.480       150
52.500       120
52.520       170
52.540       183
52.560       203
52.580       220
52.600       197
52.620       160
52.640       170
52.660       153
52.680       200
52.700       150
52.720       130
52.740       130
52.760       100
52.780        97
52.800        80
52.820        97
52.840        53
52.860        60
52.880        80
52.900        67
52.920        63
52.940        40
52.960        40
52.980        47
53.000        40
53.020        80
53.040        37
53.060        33
53.080        37
53.100        50
53.120        63
53.140        27
53.160        40
53.180        27
53.200        30
53.220        27
53.240        30
53.260        33
53.280        30
53.300        27
53.320        43
53.340        43
53.360        30
53.380        37
53.400        23
53.420        30
53.440        30
53.460        30
53.480        30
53.500        33
53.520        30
53.540        53
53.560        23
53.580        37
53.600        30
53.620        27
53.640        17
53.660        40
53.680        23
53.700        27
53.720        40
53.740        10
53.760        27
53.780        17
53.800        27
53.820        13
53.840        10
53.860        37
53.880        47
53.900        17
53.920        33
53.940        20
53.960        40
53.980        23
54.000        20
54.020        40
54.040        37
54.060        60
54.080        30
54.100        23
54.120        20
54.140        13
54.160        33
54.180        13
54.200        23
54.220        23
54.240        17
54.260        17
54.280        20
54.300        23
54.320        17
54.340        27
54.360        23
54.380         7
54.400        27
54.420        40
54.440        30
54.460        13
54.480        23
54.500        27
54.520        23
54.540        33
54.560        30
54.580        13
54.600        30
54.620        33
54.640        17
54.660        20
54.680        23
54.700        43
54.720        23
54.740        17
54.760        20
54.780        23
54.800        10
54.820        20
54.840         3
54.860        20
54.880        27
54.900        33
54.920        23
54.940        20
54.960        27
54.980        13
55.000        13
55.020        23
55.040         7
55.060        23
55.080        23
55.100        17
55.120        30
55.140        13
55.160        20
55.180        33
55.200        17
55.220        30
55.240        23
55.260        30
55.280        13
55.300        33
55.320        30
55.340        20
55.360         7
55.380        20
55.400        13
55.420        30
55.440        23
55.460        10
55.480        10
55.500        20
55.520         7
55.540        33
55.560        17
55.580        23
55.600         3
55.620        10
55.640        13
55.660        40
55.680        17
55.700        23
55.720        17
55.740        13
55.760        10
55.780        33
55.800        23
55.820        17
55.840        20
55.860        27
55.880        23
55.900        23
55.920        20
55.940        10
55.960        20
55.980        13
56.000        37
56.020        10
56.040        30
56.060        20
56.080        33
56.100        20
56.120        20
56.140        27
56.160        13
56.180        33
56.200        23
56.220        17
56.240        33
56.260        17
56.280        30
56.300        27
56.320        13
56.340         7
56.360        20
56.380         7
56.400        20
56.420        10
56.440        20
56.460        30
56.480        27
56.500        10
56.520        20
56.540        13
56.560        27
56.580        23
56.600        17
56.620        27
56.640        10
56.660        10
56.680        30
56.700        20
56.720        23
56.740        17
56.760        13
56.780        23
56.800        13
56.820        13
56.840        33
56.860        17
56.880         7
56.900        37
56.920        17
56.940        17
56.960        20
56.980         7
57.000        10
57.020        20
57.040        23
57.060        23
57.080        33
57.100        27
57.120        17
57.140        30
57.160        27
57.180        33
57.200        43
57.220        23
57.240        23
57.260        40
57.280         7
57.300        30
57.320        27
57.340        27
57.360        37
57.380        20
57.400        23
57.420        20
57.440        17
57.460        30
57.480        43
57.500        27
57.520        27
57.540        27
57.560        33
57.580        23
57.600        23
57.620         7
57.640        37
57.660        23
57.680        23
57.700        37
57.720        27
57.740        13
57.760        27
57.780        33
57.800        20
57.820        20
57.840        30
57.860        17
57.880        27
57.900        27
57.920        27
57.940        13
57.960        23
57.980        27
58.000        27
58.020        23
58.040        23
58.060        33
58.080        20
58.100        10
58.120        20
58.140        13
58.160        20
58.180        13
58.200        53
58.220        37
58.240        13
58.260        27
58.280        30
58.300        40
58.320        37
58.340        17
58.360        30
58.380        17
58.400        27
58.420        37
58.440        10
58.460        27
58.480        27
58.500        27
58.520        23
58.540        43
58.560        23
58.580        33
58.600        27
58.620        37
58.640        33
58.660        30
58.680        27
58.700        50
58.720        37
58.740        30
58.760        63
58.780        43
58.800        40
58.820        43
58.840        60
58.860        30
58.880        50
58.900        50
58.920        33
58.940        30
58.960        50
58.980        43
59.000        47
59.020        67
59.040        50
59.060        57
59.080        50
59.100        63
59.120        47
59.140        57
59.160        43
59.180        90
59.200        80
59.220        57
59.240        77
59.260        53
59.280        50
59.300        97
59.320        63
59.340        77
59.360       110
59.380        67
59.400        70
59.420        80
59.440        67
59.460        73
59.480        97
59.500        87
59.520        67
59.540        80
59.560        70
59.580        87
59.600        80
59.620        80
59.640        67
59.660        93
59.680        73
59.700        90
59.720        67
59.740       103
59.760        77
59.780        90
59.800        83
59.820        90
59.840       107
59.860        90
59.880       103
59.900       100
59.920        67
59.940        90
59.960       103
59.980        90
60.000        90
