20.000        47
20.020        37
20.040        40
20.060        50
20.080        63
20.100        37
20.120        27
20.140        63
20.160        53
20.180        27
20.200        43
20.220        40
20.240        83
20.260        57
20.280        50
20.300        77
20.320        60
20.340        43
20.360        50
20.380        77
20.400        67
20.420        60
20.440        60
20.460        53
20.480        43
20.500        60
20.520        53
20.540        57
20.560        43
20.580        67
20.600        57
20.620        57
20.640        53
20.660        60
20.680        57
20.700        57
20.720        57
20.740        13
20.760        67
20.780        47
20.800        40
20.820        53
20.840        40
20.860        47
20.880        70
20.900        50
20.920        37
20.940        43
20.960        40
20.980        83
21.000        60
21.020        47
21.040        43
21.060        57
21.080        53
21.100        33
21.120        47
21.140        57
21.160        50
21.180        50
21.200        53
21.220        53
21.240        50
21.260        50
21.280        57
21.300        50
21.320        47
21.340        33
21.360        43
21.380        43
21.400        53
21.420        37
21.440        50
21.460        30
21.480        27
21.500        37
21.520        53
21.540        30
21.560        53
21.580        43
21.600        73
21.620        47
21.640        33
21.660        50
21.680        27
21.700        57
21.720        37
21.740        43
21.760        60
21.780        73
21.800        57
21.820        37
21.840        30
21.860        63
21.880        33
21.900        47
21.920        50
21.940        57
21.960        43
21.980        57
22.000        57
22.020        47
22.040        47
22.060        37
22.080        73
22.100        40
22.120        50
22.140        60
22.160        50
22.180        60
22.200        43
22.220        70
22.240        73
22.260        40
22.280        37
22.300        47
22.320        43
22.340        60
22.360        53
22.380        23
22.400        67
22.420        43
22.440        67
22.460        33
22.480        63
22.500        47
22.520        67
22.540        43
22.560        50
22.580        63
22.600        50
22.620        77
22.640        50
22.660        83
22.680        37
22.700        47
22.720        30
22.740        37
22.760        40
22.780        43
22.800        47
22.820        67
22.840        63
22.860        47
22.880        53
22.900        47
22.920        37
22.940        40
22.960        47
22.980        20
23.000        33
23.020        60
23.040        23
23.060        50
23.080        47
23.100        37
23.120        50
23.140        30
23.160        20
23.180        50
23.200        37
23.220        30
23.240        43
23.260        43
23.280        50
23.300        20
23.320        30
23.340        20
23.360        43
23.380        33
23.400        57
23.420        53
23.440        40
23.460        23
23.480        43
23.500        47
23.520        37
23.540        40
23.560        43
23.580        57
23.600        40
23.620        50
23.640        33
23.660        40
23.680        37
23.700        67
23.720        23
23.740        33
23.760        53
23.780        30
23.800        30
23.820        33
23.840        27
23.860        37
23.880        27
23.900        50
23.920        60
23.940        33
23.960        40
23.980        40
24.000        40
24.020        33
24.040        27
24.060        20
24.080        30
24.100        50
24.120        33
24.140        40
24.160        30
24.180        30
24.200        40
24.220        27
24.240        40
24.260        43
24.280        37
24.300        43
24.320        23
24.340        37
24.360        33
24.380        47
24.400        27
24.420        43
24.440        37
24.460        50
24.480        17
24.500        40
24.520        27
24.540        47
24.560        40
24.580        60
24.600        23
24.620        27
24.640        53
24.660        47
24.680        40
24.700        40
24.720        50
24.740        57
24.760        40
24.780        27
24.800        33
24.820        37
24.840        17
24.860        17
24.880        30
24.900        27
24.920        30
24.940        37
24.960        37
24.980        43
25.000        40
25.020        23
25.040        33
25.060        40
25.080        43
25.100        40
25.120        40
25.140        33
25.160        30
25.180        43
25.200        23
25.220        47
25.240        27
25.260        47
25.280        23
25.300        20
25.320        50
25.340        23
25.360        20
25.380        47
25.400        33
25.420        47
25.440        33
25.460        43
25.480        17
25.500        37
25.520        13
25.540        33
25.560        17
25.580        27
25.600        33
25.620        27
25.640        30
25.660        30
25.680        27
25.700        37
25.720        30
25.740        23
25.760        43
25.780        43
25.800        47
25.820        33
25.840        30
25.860        47
25.880        33
25.900        37
25.920        47
25.940        40
25.960        27
25.980        33
26.000        27
26.020        47
26.040        17
26.060        30
26.080        40
26.100        30
26.120        40
26.140        40
26.160        27
26.180        20
26.200        37
26.220        33
26.240        40
26.260        40
26.280        23
26.300        50
26.320        47
26.340        37
26.360        43
26.380        30
26.400        20
26.420        17
26.440        43
26.460        47
26.480        23
26.500        20
26.520        33
26.540        47
26.560        37
26.580        40
26.600        43
26.620        23
26.640        33
26.660        20
26.680        33
26.700        47
26.720        27
26.740        30
26.760        30
26.780        23
26.800        30
26.820        43
26.840        33
26.860        37
26.880        20
26.900        33
26.920        40
26.940        17
26.960        33
26.980        37
27.000        47
27.020        23
27.040        20
27.060        17
27.080        23
27.100        33
27.120        13
27.140        40
27.160        33
27.180        47
27.200        40
27.220        43
27.240        30
27.260        47
27.280        40
27.300        43
27.320        43
27.340        33
27.360        40
27.380        33
27.400        17
27.420        23
27.440        20
27.460        20
27.480        40
27.500        40
27.520        33
27.540        33
27.560        20
27.580        23
27.600        23
27.620        20
27.640        53
27.660        40
27.680        20
27.700        30
27.720        43
27.740        30
27.760        23
27.780        23
27.800        20
27.820        43
27.840        23
27.860        37
27.880        30
27.900        40
27.920        30
27.940        40
27.960        40
27.980        40
28.000        23
28.020        17
28.040        47
28.060        23
28.080        57
28.100        13
28.120        13
28.140        17
28.160        37
28.180        23
28.200        23
28.220        60
28.240        20
28.260        30
28.280        17
28.300        40
28.320        47
28.340        33
28.360        30
28.380        33
28.400        27
28.420        33
28.440        23
28.460        33
28.480        37
28.500        30
28.520        43
28.540        33
28.560        47
28.580        43
28.600        43
28.620        37
28.640        33
28.660        37
28.680        33
28.700        33
28.720        27
28.740        30
28.760        43
28.780        40
28.800        43
28.820        43
28.840        37
28.860        50
28.880        37
28.900        60
28.920        53
28.940        23
28.960        67
28.980        50
29.000        33
29.020        50
29.040        67
29.060        43
29.080        70
29.100        50
29.120        50
29.140        43
29.160        87
29.180        80
29.200        77
29.220        83
29.240        47
29.260        70
29.280        57
29.300        53
29.320        53
29.340        23
29.360        67
29.380        50
29.400        47
29.420        40
29.440        37
29.460        50
29.480        83
29.500       110
29.520       117
29.540        80
29.560        90
29.580       110
29.600        90
29.620        57
29.640        60
29.660        57
29.680        57
29.700        67
29.720        87
29.740        57
29.760        30
29.780        53
29.800        57
29.820        47
29.840        50
29.860        70
29.880        50
29.900        33
29.920        37
29.940        50
29.960        50
29.980        63
30.000        43
30.020        57
30.040        70
30.060        67
30.080        43
30.100        33
30.120        53
30.140        70
30.160        67
30.180        47
30.200        53
30.220        53
30.240        67
30.260        57
30.280        37
30.300        47
30.320        80
30.340        50
30.360        67
30.380        47
30.400        47
30.420        60
30.440        70
30.460        57
30.480        77
30.500        83
30.520        70
30.540        87
30.560        67
30.580        63
30.600        90
30.620       100
30.640        50
30.660        80
30.680        73
30.700        70
30.720        57
30.740        83
30.760        83
30.780        63
30.800       100
30.820        83
30.840        77
30.860        77
30.880        70
30.900        73
30.920        70
30.940        57
30.960        77
30.980       110
31.000       107
31.020        77
31.040        90
31.060        87
31.080        93
31.100       100
31.120       100
31.140        57
31.160        80
31.180        97
31.200        60
31.220        83
31.240       103
31.260       110
31.280       113
31.300        80
31.320       117
31.340       120
31.360       123
31.380       137
31.400       113
31.420       137
31.440       107
31.460       143
31.480       140
31.500       157
31.520       173
31.540       133
31.560       207
31.580       170
31.600       140
31.620       193
31.640       240
31.660       217
31.680       273
31.700       177
31.720       303
31.740       287
31.760       343
31.780       343
31.800       373
31.820       367
31.840       420
31.860       443
31.880       463
31.900       476
31.920       466
31.940       506
31.960       560
31.980       556
32.000       620
32.020       590
32.040       736
32.060      1276
32.080      1709
32.100      1563
32.120      1126
32.140       910
32.160       586
32.180       473
32.200       446
32.220       407
32.240       367
32.260       367
32.280       327
32.300       313
32.320       290
32.340       280
32.360       340
32.380       250
32.400       220
32.420       227
32.440       230
32.460       227
32.480       207
32.500       163
32.520       180
32.540       177
32.560       140
32.580       157
32.600       200
32.620       160
32.640       197
32.660       157
32.680       163
32.700       213
32.720       147
32.740       177
32.760       153
32.780       177
32.800       177
32.820       120
32.840       153
32.860       227
32.880       163
32.900       193
32.920       170
32.940       163
32.960       120
32.980       140
33.000       183
33.020       163
33.040       130
33.060       150
33.080       167
33.100       153
33.120       103
33.140       173
33.160       190
33.180       147
33.200       120
33.220       140
33.240       183
33.260       157
33.280       140
33.300       163
33.320       150
33.340       143
33.360       153
33.380       137
33.400       163
33.420       127
33.440       113
33.460       123
33.480       153
33.500       147
33.520       130
33.540       110
33.560       120
33.580       133
33.600       177
33.620       147
33.640       117
33.660       120
33.680       150
33.700       180
33.720       170
33.740       120
33.760       113
33.780       110
33.800       157
33.820       147
33.840       133
33.860       123
33.880       120
33.900       143
33.920       160
33.940       127
33.960       143
33.980       123
34.000       157
34.020       160
34.040       133
34.060       147
34.080       100
34.100       170
34.120       140
34.140       133
34.160       110
34.180       133
34.200       130
34.220       170
34.240       133
34.260       130
34.280       163
34.300       223
34.320       160
34.340       223
34.360       313
34.380       390
34.400       596
34.420       563
34.440       660
34.460       570
34.480       613
34.500       640
34.520       596
34.540       590
34.560       593
34.580       620
34.600       696
34.620       680
34.640       650
34.660       670
34.680       683
34.700       616
34.720       650
34.740       713
34.760       660
34.780       716
34.800       653
34.820       806
34.840       710
34.860       733
34.880       653
34.900       730
34.920       583
34.940       673
34.960       703
34.980       790
35.000       726
35.020       756
35.040       616
35.060       716
35.080       960
35.100       783
35.120       953
35.140       813
35.160       806
35.180       850
35.200       906
35.220      1000
35.240       916
35.260       976
35.280      1083
35.300      1093
35.320      1206
35.340      1423
35.360      1556
35.380      1856
35.400      2356
35.420      3372
35.440      4488
35.460      5528
35.480      6481
35.500      7634
35.520      9953
35.540     14418
35.560     26549
35.580     78782
35.600    166020
35.620    193559
35.640    185832
35.660    139661
35.680    102626
35.700    118962
35.720    122828
35.740    104761
35.760     62082
35.780     25583
35.800     14637
35.820     10043
35.840      8390
35.860      6797
35.880      5121
35.900      3395
35.920      2142
35.940      1653
35.960      1656
35.980      1423
36.000      1449
36.020      1243
36.040      1263
36.060      1113
36.080      1173
36.100      1183
36.120       976
36.140       920
36.160       870
36.180       950
36.200       920
36.220       850
36.240       853
36.260       806
36.280       826
36.300       710
36.320       756
36.340       720
36.360       710
36.380       680
36.400       733
36.420       706
36.440       706
36.460       573
36.480       643
36.500       653
36.520       600
36.540       590
36.560       620
36.580       603
36.600       556
36.620       623
36.640       573
36.660       523
36.680       630
36.700       556
36.720       653
36.740       560
36.760       623
36.780       640
36.800       663
36.820       620
36.840       553
36.860       473
36.880       520
36.900       566
36.920       466
36.940       420
36.960       566
36.980       490
37.000       483
37.020       533
37.040       536
37.060       586
37.080       417
37.100       533
37.120       446
37.140       436
37.160       506
37.180       530
37.200       500
37.220       516
37.240       433
37.260       496
37.280       426
37.300       506
37.320       407
37.340       483
37.360       503
37.380       510
37.400       417
37.420       496
37.440       536
37.460       533
37.480       490
37.500       513
37.520       480
37.540       450
37.560       480
37.580       426
37.600       420
37.620       440
37.640       480
37.660       397
37.680       433
37.700       410
37.720       443
37.740       470
37.760       436
37.780       426
37.800       460
37.820       513
37.840       357
37.860       433
37.880       383
37.900       436
37.920       410
37.940       446
37.960       400
37.980       456
38.000       397
38.020       426
38.040       440
38.060       373
38.080       400
38.100       397
38.120       443
38.140       327
38.160       377
38.180       393
38.200       450
38.220       380
38.240       393
38.260       450
38.280       357
38.300       383
38.320       363
38.340       340
38.360       370
38.380       363
38.400       350
38.420       387
38.440       360
38.460       350
38.480       383
38.500       380
38.520       397
38.540       370
38.560       367
38.580       463
38.600       353
38.620       307
38.640       347
38.660       373
38.680       407
38.700       327
38.720       417
38.740       293
38.760       363
38.780       323
38.800       343
38.820       310
38.840       380
38.860       300
38.880       347
38.900       343
38.920       323
38.940       330
38.960       367
38.980       327
39.000       367
39.020       323
39.040       267
39.060       363
39.080       340
39.100       323
39.120       283
39.140       310
39.160       327
39.180       333
39.200       333
39.220       350
39.240       330
39.260       307
39.280       377
39.300       377
39.320       283
39.340       267
39.360       317
39.380       327
39.400       353
39.420       317
39.440       323
39.460       267
39.480       257
39.500       297
39.520       297
39.540       280
39.560       300
39.580       243
39.600       257
39.620       320
39.640       280
39.660       297
39.680       330
39.700       283
39.720       297
39.740       337
39.760       293
39.780       293
39.800       283
39.820       323
39.840       320
39.860       250
39.880       330
39.900       283
39.920       350
39.940       303
39.960       290
39.980       277
40.000       290
40.020       300
40.040       290
40.060       280
40.080       237
40.100       237
40.120       267
40.140       253
40.160       247
40.180       247
40.200       243
40.220       293
40.240       230
40.260       323
40.280       253
40.300       270
40.320       283
40.340       277
40.360       277
40.380       280
40.400       307
40.420       270
40.440       253
40.460       337
40.480       270
40.500       200
40.520       230
40.540       250
40.560       303
40.580       290
40.600       247
40.620       233
40.640       260
40.660       257
40.680       267
40.700       253
40.720       250
40.740       233
40.760       257
40.780       263
40.800       333
40.820       250
40.840       227
40.860       217
40.880       220
40.900       230
40.920       227
40.940       247
40.960       220
40.980       273
41.000       267
41.020       277
41.040       210
41.060       227
41.080       220
41.100       280
41.120       233
41.140       203
41.160       190
41.180       227
41.200       270
41.220       310
41.240       197
41.260       250
41.280       270
41.300       260
41.320       200
41.340       207
41.360       260
41.380       250
41.400       253
41.420       230
41.440       250
41.460       237
41.480       243
41.500       263
41.520       223
41.540       253
41.560       210
41.580       233
41.600       213
41.620       173
41.640       170
41.660       190
41.680       203
41.700       230
41.720       210
41.740       173
41.760       207
41.780       180
41.800       227
41.820       210
41.840       227
41.860       227
41.880       213
41.900       237
41.920       190
41.940       187
41.960       243
41.980       207
42.000       210
42.020       180
42.040       180
42.060       220
42.080       223
42.100       217
42.120       207
42.140       207
42.160       213
42.180       263
42.200       170
42.220       160
42.240       193
42.260       197
42.280       210
42.300       200
42.320       190
42.340       170
42.360       183
42.380       233
42.400       157
42.420       197
42.440       207
42.460       167
42.480       163
42.500       243
42.520       233
42.540       213
42.560       173
42.580       203
42.600       127
42.620       197
42.640       190
42.660       223
42.680       190
42.700       177
42.720       183
42.740       163
42.760       167
42.780       200
42.800       173
42.820       167
42.840       180
42.860       150
42.880       170
42.900       170
42.920       170
42.940       180
42.960       157
42.980       157
43.000       180
43.020       163
43.040       200
43.060       177
43.080       213
43.100       200
43.120       177
43.140       163
43.160       173
43.180       150
43.200       160
43.220       153
43.240       197
43.260       180
43.280       150
43.300       160
43.320       200
43.340       167
43.360       170
43.380       220
43.400       133
43.420       177
43.440       160
43.460       180
43.480       133
43.500       160
43.520       183
43.540       157
43.560       183
43.580       193
43.600       173
43.620       153
43.640       140
43.660       163
43.680       153
43.700       163
43.720       157
43.740       140
43.760       210
43.780       180
43.800       180
43.820       170
43.840       130
43.860       163
43.880       173
43.900       120
43.920       163
43.940       137
43.960       167
43.980       147
44.000       153
44.020       163
44.040       127
44.060       110
44.080       167
44.100       130
44.120       133
44.140       200
44.160       143
44.180       180
44.200       193
44.220       117
44.240       130
44.260       150
44.280       170
44.300       133
44.320       133
44.340       153
44.360       140
44.380       143
44.400       133
44.420       157
44.440       137
44.460       187
44.480       113
44.500       133
44.520       157
44.540       190
44.560       137
44.580       103
44.600       130
44.620       140
44.640       160
44.660       153
44.680       150
44.700       137
44.720       133
44.740       140
44.760       163
44.780       147
44.800       130
44.820       120
44.840       137
44.860       130
44.880       137
44.900       130
44.920       113
44.940       107
44.960       133
44.980       190
45.000       147
45.020       127
45.040       143
45.060       127
45.080       147
45.100       163
45.120       137
45.140       187
45.160       197
45.180       153
45.200       193
45.220       177
45.240       190
45.260       143
45.280       160
45.300       160
45.320       140
45.340       153
45.360       203
45.380       190
45.400       160
45.420       190
45.440       197
45.460       177
45.480       203
45.500       210
45.520       227
45.540       147
45.560       203
45.580       187
45.600       177
45.620       187
45.640       167
45.660       143
45.680       187
45.700       153
45.720       187
45.740       170
45.760       180
45.780       213
45.800       213
45.820       190
45.840       163
45.860       203
45.880       207
45.900       190
45.920       190
45.940       210
45.960       193
45.980       173
46.000       197
46.020       210
46.040       170
46.060       153
46.080       160
46.100       203
46.120       207
46.140       180
46.160       223
46.180       190
46.200       170
46.220       217
46.240       173
46.260       187
46.280       213
46.300        90
46.320       193
46.340       123
46.360       107
46.380       123
46.400       130
46.420       137
46.440       133
46.460       143
46.480       147
46.500       153
46.520       140
46.540       120
46.560       160
46.580       107
46.600       140
46.620       157
46.640       127
46.660       150
46.680       150
46.700       160
46.720       130
46.740       120
46.760       160
46.780       120
46.800       130
46.820       133
46.840        97
46.860       113
46.880       147
46.900       117
46.920        63
46.940       113
46.960        93
46.980       110
47.000       107
47.020       120
47.040       123
47.060       103
47.080        93
47.100       103
47.120       110
47.140        60
47.160       127
47.180       103
47.200       120
47.220        87
47.240       130
47.260       113
47.280       117
47.300       157
47.320       130
47.340       117
47.360       127
47.380       130
47.400        97
47.420       100
47.440        97
47.460       113
47.480       107
47.500        73
47.520        87
47.540       103
47.560       117
47.580        90
47.600       123
47.620       103
47.640        97
47.660        87
47.680        80
47.700        93
47.720       117
47.740        97
47.760        93
47.780        80
47.800        90
47.820       110
47.840        70
47.860        97
47.880        90
47.900        73
47.920        57
47.940       110
47.960        63
47.980        90
48.000        67
48.020        93
48.040        83
48.060        77
48.080        87
48.100       180
48.120       147
48.140       203
48.160       147
48.180       113
48.200        93
48.220        90
48.240       100
48.260       110
48.280       120
48.300       107
48.320        90
48.340        87
48.360        87
48.380        97
48.400       100
48.420        80
48.440       123
48.460        97
48.480       117
48.500        97
48.520       117
48.540       137
48.560        73
48.580        67
48.600        73
48.620        67
48.640        83
48.660        83
48.680        87
48.700        80
48.720        67
48.740       120
48.760        80
48.780        67
48.800        93
48.820        80
48.840        77
48.860        93
48.880        80
48.900        73
48.920        83
48.940        93
48.960        83
48.980        77
49.000        77
49.020        90
49.040        70
49.060        73
49.080        70
49.100        97
49.120        50
49.140        70
49.160        83
49.180        63
49.200        77
49.220        73
49.240        80
49.260        87
49.280       110
49.300        83
49.320        87
49.340        53
49.360        97
49.380        93
49.400        83
49.420       103
49.440        77
49.460        77
49.480        63
49.500        57
49.520        57
49.540        43
49.560        73
49.580        83
49.600        70
49.620        67
49.640        87
49.660        67
49.680        70
49.700        97
49.720        60
49.740        87
49.760        53
49.780        93
49.800        73
49.820        77
49.840        50
49.860        67
49.880        97
49.900        60
49.920        53
49.940        57
49.960        80
49.980        43
50.000        73
50.020        90
50.040       103
50.060        47
50.080        63
50.100        93
50.120       100
50.140        60
50.160        77
50.180        87
50.200        67
50.220        80
50.240        87
50.260        57
50.280        70
50.300        97
50.320        77
50.340        63
50.360        77
50.380        50
50.400        53
50.420        70
50.440        53
50.460        57
50.480        50
50.500        67
50.520        87
50.540        57
50.560        77
50.580        80
50.600        77
50.620        60
50.640        60
50.660        77
50.680        60
50.700        87
50.720        60
50.740        67
50.760        83
50.780        70
50.800        70
50.820        50
50.840        60
50.860        67
50.880       103
50.900        80
50.920        67
50.940        50
50.960        60
50.980        73
51.000        50
51.020        50
51.040        40
51.060        80
51.080        67
51.100        67
51.120        40
51.140        73
51.160        63
51.180        53
51.200        57
51.220        50
51.240        67
51.260        57
51.280        70
51.300        77
51.320        60
51.340        40
51.360        57
51.380        67
51.400        63
51.420        30
51.440        67
51.460        90
51.480        73
51.500        60
51.520        73
51.540        57
51.560        53
51.580        60
51.600        43
51.620        53
51.640        53
51.660        63
51.680        70
51.700        37
51.720        57
51.740        63
51.760        63
51.780        73
51.800        60
51.820        63
51.840        87
51.860        73
51.880       103
51.900        50
51.920        83
51.940        67
51.960        47
51.980        57
52.000        73
52.020        63
52.040        67
52.060        20
52.080        93
52.100        47
52.120        67
52.140        43
52.160        40
52.180        80
52.200        80
52.220        50
52.240        50
52.260        63
52.280        60
52.300        47
52.320        67
52.340        47
52.360        40
52.380        80
52.400        70
52.420        30
52.440        47
52.460        47
52.480        50
52.500        70
52.520        60
52.540        37
52.560        43
52.580        43
52.600        67
52.620        63
52.640        43
52.660        27
52.680        47
52.700        63
52.720        53
52.740       107
52.760        53
52.780        57
52.800        63
52.820        60
52.840        60
52.860        47
52.880        53
52.900        67
52.920        87
52.940        70
52.960        60
52.980        43
53.000        50
53.020        43
53.040        50
53.060        40
53.080        67
53.100        50
53.120        40
53.140        50
53.160        30
53.180        77
53.200        53
53.220        33
53.240        77
53.260        63
53.280        63
53.300        60
53.320        60
53.340        37
53.360        57
53.380        40
53.400        67
53.420        80
53.440        50
53.460        37
53.480        67
53.500        53
53.520        40
53.540        37
53.560        30
53.580        50
53.600        67
53.620        73
53.640        40
53.660        40
53.680        27
53.700        53
53.720        47
53.740        70
53.760        30
53.780        30
53.800        63
53.820        43
53.840       103
53.860        60
53.880       100
53.900        67
53.920        23
53.940        63
53.960        37
53.980        63
54.000        50
54.020        43
54.040        63
54.060        50
54.080        57
54.100        67
54.120        63
54.140        47
54.160        43
54.180        37
54.200        47
54.220        33
54.240        47
54.260        57
54.280        23
54.300        47
54.320        67
54.340        67
54.360        20
54.380        60
54.400        50
54.420        37
54.440        47
54.460        60
54.480        23
54.500        50
54.520        87
54.540        53
54.560        80
54.580        70
54.600        47
54.620        67
54.640        60
54.660        67
54.680        63
54.700        53
54.720        47
54.740        47
54.760        87
54.780        50
54.800        53
54.820        63
54.840        63
54.860        53
54.880        63
54.900        37
54.920        33
54.940        70
54.960        37
54.980        53
55.000        50
55.020        37
55.040        50
55.060        47
55.080        37
55.100        43
55.120        37
55.140        43
55.160        47
55.180        23
55.200        27
55.220        33
55.240        53
55.260        77
55.280        53
55.300        33
55.320        53
55.340        50
55.360        43
55.380        47
55.400        50
55.420        43
55.440        60
55.460        47
55.480        27
55.500        50
55.520        40
55.540        67
55.560        33
55.580        63
55.600        47
55.620        53
55.640        67
55.660        43
55.680        60
55.700        53
55.720        67
55.740        33
55.760        37
55.780        47
55.800        63
55.820        53
55.840        50
55.860        53
55.880        50
55.900        47
55.920        33
55.940        40
55.960        33
55.980        73
56.000        60
56.020        50
56.040        63
56.060        17
56.080        70
56.100        47
56.120        57
56.140        47
56.160        63
56.180        53
56.200        40
56.220        63
56.240        47
56.260        73
56.280        40
56.300        63
56.320        57
56.340        43
56.360        33
56.380        63
56.400        33
56.420        43
56.440        73
56.460        47
56.480        30
56.500        57
56.520        53
56.540        53
56.560        40
56.580        50
56.600        60
56.620        30
56.640        47
56.660        33
56.680        23
56.700        77
56.720        43
56.740        43
56.760        37
56.780        53
56.800        60
56.820        60
56.840        53
56.860        27
56.880        30
56.900        43
56.920        47
56.940        53
56.960        53
56.980        57
57.000        50
57.020        40
57.040        40
57.060        43
57.080        50
57.100        37
57.120        40
57.140        40
57.160        53
57.180        50
57.200        47
57.220        50
57.240        33
57.260        43
57.280        37
57.300        53
57.320        33
57.340        73
57.360        63
57.380        57
57.400        37
57.420        40
57.440        30
57.460        37
57.480        40
57.500        60
57.520        60
57.540        23
57.560        70
57.580        30
57.600        47
57.620        73
57.640        30
57.660        13
57.680        57
57.700        47
57.720        47
57.740        70
57.760        70
57.780        40
57.800        50
57.820        53
57.840        67
57.860        37
57.880        60
57.900        47
57.920        40
57.940        43
57.960        63
57.980        47
58.000        37
58.020        37
58.040        67
58.060        33
58.080        47
58.100        50
58.120        43
58.140        40
58.160        30
58.180        50
58.200        57
58.220        40
58.240        57
58.260        50
58.280        37
58.300        23
58.320        60
58.340        43
58.360        37
58.380        57
58.400        33
58.420        37
58.440        13
58.460        53
58.480        53
58.500        37
58.520        43
58.540        30
58.560        47
58.580        60
58.600        43
58.620        47
58.640        53
58.660        47
58.680        43
58.700        37
58.720        50
58.740        43
58.760        33
58.780        40
58.800        43
58.820        50
58.840        47
58.860        37
58.880        47
58.900        53
58.920        30
58.940        43
58.960        50
58.980        33
59.000        37
59.020        30
59.040        37
59.060        50
59.080        47
59.100        37
59.120        60
59.140        40
59.160        33
59.180        33
59.200        43
59.220        37
59.240        43
59.260        33
59.280        73
59.300        30
59.320        57
59.340        23
59.360        60
59.380        43
59.400        60
59.420        40
59.440        53
59.460        37
59.480        57
59.500        23
59.520        33
59.540        50
59.560        27
59.580        13
59.600        33
59.620        50
59.640        43
59.660        47
59.680        70
59.700        43
59.720        47
59.740        23
59.760        23
59.780        27
59.800        30
59.820        63
59.840        47
59.860        53
59.880        57
59.900        53
59.920        43
59.940        40
59.960        33
59.980        33
60.000        33
