20.000         0
20.010         0
20.020        67
20.030        13
20.040       107
20.050        40
20.060        40
20.070        80
20.080        53
20.090        80
20.100        40
20.110        27
20.120        40
20.130        53
20.140        53
20.150        67
20.160        13
20.170        80
20.180        53
20.190        53
20.200        53
20.210        53
20.220        27
20.230        40
20.240        27
20.250        80
20.260        53
20.270        13
20.280        13
20.290        53
20.300        53
20.310        27
20.320        53
20.330        40
20.340        40
20.350         0
20.360        40
20.370        53
20.380        13
20.390        53
20.400        53
20.410        53
20.420        53
20.430        53
20.440         0
20.450        27
20.460       107
20.470        53
20.480        27
20.490        40
20.500        40
20.510        40
20.520        13
20.530        40
20.540        40
20.550        93
20.560        93
20.570        53
20.580        53
20.590        13
20.600        40
20.610        53
20.620        40
20.630        27
20.640        53
20.650        93
20.660        40
20.670        27
20.680        27
20.690        40
20.700        27
20.710        13
20.720        27
20.730        40
20.740        67
20.750        93
20.760        27
20.770        67
20.780        53
20.790        40
20.800        53
20.810        27
20.820        53
20.830        67
20.840        27
20.850        40
20.860        27
20.870        40
20.880        27
20.890        40
20.900        80
20.910        53
20.920        53
20.930        67
20.940        40
20.950        13
20.960        67
20.970        40
20.980        53
20.990        40
21.000        40
21.010        67
21.020        27
21.030       107
21.040        40
21.050        80
21.060        40
21.070        40
21.080        40
21.090        40
21.100        40
21.110        53
21.120        27
21.130        40
21.140        67
21.150        67
21.160         0
21.170        13
21.180        40
21.190        67
21.200        40
21.210        40
21.220        80
21.230        13
21.240        53
21.250        27
21.260        27
21.270        53
21.280         0
21.290        40
21.300        27
21.310        53
21.320        13
21.330        40
21.340        53
21.350        13
21.360        40
21.370        53
21.380        13
21.390        53
21.400        13
21.410        40
21.420        53
21.430        93
21.440        67
21.450        67
21.460       107
21.470       120
21.480        27
21.490        40
21.500        40
21.510        80
21.520        53
21.530        13
21.540        40
21.550        13
21.560        80
21.570        40
21.580        80
21.590        27
21.600        13
21.610        53
21.620        67
21.630        27
21.640        40
21.650        67
21.660        13
21.670        80
21.680         0
21.690        27
21.700        80
21.710        27
21.720        67
21.730        53
21.740        53
21.750        67
21.760        13
21.770         0
21.780        40
21.790        53
21.800        13
21.810        67
21.820        13
21.830       107
21.840        13
21.850        13
21.860        40
21.870        67
21.880        40
21.890        67
21.900        80
21.910        53
21.920        40
21.930        80
21.940        27
21.950        67
21.960        80
21.970        40
21.980        53
21.990        67
22.000        67
22.010        53
22.020        53
22.030        53
22.040        27
22.050        80
22.060        27
22.070        53
22.080        67
22.090        27
22.100        80
22.110        27
22.120        80
22.130        80
22.140        67
22.150        27
22.160        27
22.170        40
22.180        27
22.190        27
22.200        40
22.210        40
22.220        27
22.230        40
22.240        27
22.250        40
22.260        13
22.270        53
22.280        67
22.290        67
22.300        67
22.310        27
22.320       107
22.330         0
22.340        27
22.350        40
22.360        13
22.370        40
22.380        67
22.390        67
22.400        53
22.410        80
22.420        67
22.430        80
22.440        53
22.450        53
22.460        40
22.470        27
22.480        67
22.490        53
22.500        80
22.510        53
22.520        40
22.530        53
22.540        67
22.550        67
22.560        80
22.570        53
22.580        53
22.590       107
22.600        80
22.610        80
22.620        93
22.630       173
22.640        53
22.650        93
22.660       147
22.670       107
22.680        80
22.690       133
22.700       107
22.710        80
22.720        93
22.730       133
22.740        67
22.750       120
22.760        53
22.770        67
22.780        93
22.790        93
22.800       133
22.810       133
22.820       160
22.830        13
22.840       107
22.850        67
22.860       133
22.870        53
22.880        80
22.890       120
22.900        67
22.910        13
22.920       147
22.930        80
22.940       160
22.950        67
22.960        67
22.970        40
22.980        67
22.990       107
23.000        93
23.010        67
23.020        93
23.030        27
23.040        80
23.050        67
23.060        53
23.070       107
23.080        27
23.090        40
23.100        80
23.110        67
23.120        40
23.130        40
23.140        27
23.150         0
23.160        40
23.170        40
23.180         0
23.190        67
23.200        13
23.210        40
23.220        67
23.230        40
23.240        27
23.250        13
23.260        40
23.270        13
23.280        93
23.290        53
23.300        27
23.310        27
23.320        53
23.330        67
23.340        53
23.350        67
23.360        93
23.370        27
23.380        67
23.390        27
23.400        53
23.410        53
23.420        40
23.430        40
23.440        13
23.450        13
23.460        13
23.470        40
23.480        13
23.490        53
23.500        53
23.510        40
23.520        40
23.530        40
23.540        40
23.550        67
23.560        40
23.570        40
23.580         0
23.590        67
23.600        40
23.610        53
23.620        13
23.630        53
23.640        40
23.650        40
23.660        40
23.670        27
23.680        27
23.690        80
23.700        13
23.710         0
23.720        67
23.730        27
23.740        67
23.750        13
23.760        53
23.770        27
23.780        93
23.790        93
23.800        13
23.810        40
23.820        40
23.830        40
23.840        13
23.850        27
23.860        53
23.870        40
23.880        40
23.890        27
23.900        53
23.910        40
23.920        67
23.930        13
23.940        53
23.950        40
23.960        27
23.970        27
23.980         0
23.990        53
24.000        13
24.010        40
24.020        40
24.030        40
24.040        13
24.050        53
24.060        40
24.070        53
24.080        40
24.090        53
24.100        80
24.110        13
24.120        13
24.130         0
24.140        67
24.150        40
24.160        27
24.170         0
24.180        40
24.190        40
24.200        27
24.210        13
24.220        53
24.230        93
24.240        80
24.250        27
24.260        53
24.270        80
24.280        27
24.290        13
24.300        27
24.310        67
24.320        53
24.330        40
24.340        67
24.350        53
24.360        27
24.370         0
24.380         0
24.390        53
24.400        53
24.410        40
24.420        80
24.430        40
24.440        40
24.450        53
24.460        40
24.470         0
24.480        40
24.490        40
24.500        53
24.510        53
24.520        27
24.530        13
24.540        53
24.550        27
24.560        53
24.570        13
24.580        67
24.590        53
24.600        53
24.610         0
24.620        53
24.630        67
24.640        80
24.650        27
24.660        27
24.670        53
24.680        67
24.690        13
24.700        13
24.710        53
24.720        67
24.730        80
24.740        40
24.750        53
24.760       107
24.770        40
24.780       133
24.790        40
24.800        27
24.810        80
24.820        40
24.830       107
24.840        67
24.850        67
24.860        27
24.870        40
24.880        67
24.890        53
24.900        80
24.910        80
24.920        40
24.930        27
24.940        27
24.950        53
24.960        67
24.970        40
24.980        27
24.990        80
25.000        67
25.010        53
25.020        53
25.030        40
25.040        13
25.050        67
25.060        80
25.070        53
25.080        27
25.090        27
25.100        40
25.110        13
25.120        13
25.130        53
25.140        53
25.150        27
25.160        80
25.170         0
25.180        40
25.190        40
25.200        40
25.210        40
25.220        27
25.230        53
25.240        53
25.250        67
25.260        40
25.270        40
25.280        40
25.290        40
25.300        40
25.310        13
25.320        67
25.330        27
25.340        27
25.350        53
25.360        53
25.370        27
25.380        13
25.390        40
25.400        27
25.410        53
25.420        40
25.430        53
25.440        40
25.450        40
25.460        80
25.470        40
25.480        93
25.490       120
25.500        53
25.510        53
25.520        67
25.530        93
25.540       147
25.550       107
25.560        80
25.570        80
25.580       147
25.590       213
25.600       307
25.610       187
25.620       307
25.630       227
25.640       173
25.650       267
25.660       267
25.670       227
25.680       173
25.690       187
25.700       120
25.710       120
25.720        40
25.730        93
25.740        27
25.750        27
25.760        27
25.770        40
25.780        93
25.790        27
25.800        27
25.810        40
25.820        27
25.830        13
25.840        13
25.850        40
25.860        40
25.870        13
25.880        27
25.890        53
25.900        27
25.910        80
25.920        40
25.930        13
25.940         0
25.950        67
25.960        13
25.970        40
25.980        80
25.990        80
26.000        93
26.010        40
26.020        13
26.030        13
26.040        13
26.050        53
26.060        13
26.070        27
26.080        27
26.090        13
26.100        40
26.110        40
26.120        40
26.130        27
26.140        27
26.150        40
26.160         0
26.170        40
26.180         0
26.190        67
26.200        27
26.210        53
26.220        80
26.230        40
26.240        27
26.250        40
26.260        13
26.270        93
26.280        27
26.290        40
26.300        27
26.310        40
26.320        13
26.330        93
26.340        53
26.350        13
26.360        40
26.370        80
26.380        27
26.390        40
26.400        53
26.410        13
26.420        40
26.430        13
26.440        27
26.450        27
26.460        53
26.470        67
26.480        13
26.490        67
26.500        53
26.510        53
26.520        27
26.530        40
26.540        13
26.550        40
26.560        67
26.570        53
26.580         0
26.590        40
26.600        53
26.610        27
26.620        67
26.630        13
26.640        40
26.650        40
26.660        40
26.670        27
26.680        27
26.690        40
26.700        53
26.710        13
26.720        53
26.730        67
26.740        67
26.750        27
26.760        13
26.770        27
26.780        53
26.790        13
26.800        27
26.810        40
26.820        40
26.830        13
26.840        27
26.850        13
26.860        27
26.870        67
26.880         0
26.890        40
26.900        13
26.910        13
26.920        67
26.930        80
26.940        93
26.950        27
26.960        40
26.970        53
26.980        67
26.990        27
27.000        27
27.010        53
27.020        67
27.030        27
27.040        53
27.050         0
27.060         0
27.070        80
27.080        40
27.090        27
27.100        13
27.110         0
27.120        13
27.130        13
27.140        27
27.150        27
27.160        53
27.170        53
27.180        27
27.190         0
27.200        40
27.210        27
27.220        27
27.230        80
27.240        27
27.250         0
27.260         0
27.270        67
27.280        13
27.290        27
27.300        13
27.310        27
27.320        40
27.330        13
27.340        27
27.350        53
27.360        40
27.370         0
27.380        40
27.390        13
27.400        40
27.410        27
27.420        27
27.430        27
27.440        27
27.450        13
27.460         0
27.470        27
27.480        13
27.490        53
27.500        27
27.510         0
27.520        53
27.530        40
27.540        13
27.550         0
27.560        40
27.570        80
27.580        27
27.590        13
27.600        27
27.610        53
27.620        27
27.630        13
27.640        27
27.650        40
27.660        27
27.670        53
27.680        67
27.690        13
27.700        40
27.710        13
27.720        67
27.730         0
27.740        40
27.750         0
27.760        53
27.770        27
27.780        40
27.790        40
27.800        27
27.810        67
27.820        27
27.830        40
27.840        27
27.850        40
27.860        13
27.870        80
27.880        40
27.890        13
27.900        53
27.910        40
27.920         0
27.930        27
27.940        27
27.950        53
27.960        40
27.970        13
27.980        40
27.990        13
28.000        40
28.010        40
28.020        27
28.030        27
28.040        53
28.050        27
28.060        13
28.070        53
28.080        27
28.090        13
28.100        13
28.110        13
28.120        27
28.130        13
28.140        53
28.150        67
28.160        27
28.170        53
28.180        27
28.190        53
28.200        13
28.210         0
28.220        13
28.230        27
28.240        53
28.250        27
28.260        27
28.270        53
28.280        13
28.290         0
28.300        27
28.310        40
28.320        13
28.330        27
28.340        53
28.350        27
28.360        40
28.370        67
28.380        27
28.390        40
28.400        53
28.410        27
28.420         0
28.430        13
28.440        40
28.450        13
28.460        13
28.470        40
28.480         0
28.490        13
28.500        40
28.510        40
28.520        13
28.530        27
28.540        40
28.550        40
28.560        53
28.570        53
28.580        27
28.590         0
28.600        13
28.610        13
28.620        13
28.630        13
28.640        13
28.650        13
28.660        40
28.670        27
28.680         0
28.690        40
28.700        40
28.710        27
28.720         0
28.730        13
28.740        13
28.750        53
28.760        13
28.770         0
28.780        27
28.790        27
28.800        40
28.810         0
28.820        40
28.830        67
28.840        40
28.850        40
28.860         0
28.870         0
28.880        27
28.890        80
28.900        67
28.910        13
28.920        40
28.930        27
28.940        13
28.950         0
28.960        13
28.970        53
28.980        53
28.990         0
29.000        67
29.010         0
29.020        53
29.030        67
29.040        53
29.050        53
29.060        27
29.070        40
29.080        53
29.090        27
29.100        27
29.110         0
29.120        27
29.130        13
29.140        67
29.150        67
29.160        13
29.170        67
29.180        27
29.190        40
29.200        27
29.210        13
29.220        93
29.230        53
29.240        40
29.250        67
29.260        27
29.270        27
29.280        40
29.290        67
29.300        40
29.310        27
29.320        27
29.330        13
29.340        93
29.350        80
29.360       107
29.370        40
29.380        67
29.390       133
29.400        80
29.410       107
29.420       147
29.430        53
29.440        80
29.450        40
29.460        53
29.470       120
29.480        80
29.490        27
29.500        13
29.510        13
29.520        13
29.530        27
29.540        27
29.550        27
29.560        53
29.570        13
29.580        40
29.590        53
29.600        27
29.610        13
29.620         0
29.630        27
29.640        40
29.650        53
29.660        27
29.670        27
29.680        53
29.690        27
29.700        13
29.710        13
29.720        27
29.730        40
29.740        27
29.750        27
29.760        13
29.770        13
29.780        53
29.790        40
29.800        27
29.810        53
29.820        13
29.830        40
29.840        53
29.850        13
29.860        80
29.870        53
29.880        27
29.890         0
29.900        13
29.910        27
29.920        53
29.930        27
29.940        40
29.950         0
29.960        13
29.970        27
29.980         0
29.990         0
30.000        40
30.010        27
30.020        13
30.030        67
30.040        13
30.050        13
30.060        13
30.070         0
30.080        40
30.090        27
30.100        13
30.110        13
30.120        27
30.130        13
30.140        13
30.150        40
30.160        27
30.170        53
30.180        27
30.190        27
30.200        53
30.210        27
30.220        67
30.230         0
30.240        13
30.250         0
30.260        27
30.270        27
30.280        53
30.290        13
30.300         0
30.310        27
30.320        40
30.330        80
30.340        40
30.350        13
30.360        53
30.370        40
30.380        40
30.390        13
30.400        40
30.410        27
30.420        13
30.430        40
30.440        27
30.450        27
30.460        27
30.470        13
30.480        67
30.490        53
30.500        40
30.510        53
30.520        40
30.530        27
30.540        40
30.550        13
30.560        13
30.570        67
30.580        40
30.590        13
30.600        53
30.610        53
30.620         0
30.630        40
30.640        27
30.650         0
30.660        13
30.670        27
30.680        27
30.690        40
30.700        67
30.710        40
30.720        53
30.730        13
30.740        13
30.750        40
30.760        27
30.770         0
30.780        40
30.790        40
30.800        53
30.810        80
30.820        40
30.830        53
30.840         0
30.850        93
30.860        80
30.870        27
30.880        67
30.890         0
30.900        13
30.910        27
30.920        40
30.930        53
30.940        27
30.950         0
30.960        53
30.970        67
30.980        67
30.990        53
31.000        27
31.010        27
31.020        40
31.030        13
31.040        53
31.050        53
31.060        40
31.070        13
31.080        40
31.090        53
31.100        27
31.110         0
31.120        27
31.130        40
31.140        40
31.150        27
31.160        53
31.170        40
31.180        27
31.190        27
31.200        27
31.210        27
31.220        27
31.230        13
31.240        53
31.250        53
31.260        40
31.270        13
31.280        27
31.290        40
31.300         0
31.310        13
31.320        27
31.330        67
31.340        40
31.350        80
31.360        27
31.370        27
31.380        27
31.390         0
31.400        93
31.410        27
31.420        40
31.430        40
31.440        67
31.450        13
31.460        80
31.470        53
31.480        27
31.490        13
31.500        27
31.510         0
31.520        40
31.530        53
31.540        13
31.550        40
31.560        40
31.570        53
31.580        13
31.590        13
31.600        53
31.610        13
31.620        40
31.630        27
31.640        27
31.650         0
31.660        93
31.670        40
31.680        27
31.690        27
31.700        40
31.710        40
31.720        40
31.730        53
31.740        40
31.750        40
31.760        53
31.770        13
31.780        67
31.790        13
31.800        67
31.810        53
31.820        93
31.830        67
31.840        40
31.850       120
31.860        40
31.870        53
31.880       107
31.890        40
31.900        27
31.910        40
31.920        27
31.930       107
31.940        27
31.950        53
31.960       107
31.970        40
31.980        53
31.990        80
32.000       120
32.010        80
32.020        53
32.030        67
32.040       147
32.050        93
32.060       133
32.070        67
32.080       213
32.090       240
32.100       120
32.110        27
32.120       253
32.130       240
32.140       173
32.150       200
32.160       293
32.170       187
32.180       320
32.190       240
32.200       200
32.210       227
32.220       307
32.230       320
32.240       453
32.250       480
32.260       506
32.270       573
32.280       440
32.290       626
32.300       573
32.310       573
32.320       826
32.330       653
32.340       693
32.350       720
32.360       786
32.370       866
32.380       880
32.390       720
32.400       826
32.410       786
32.420       706
32.430       786
32.440       853
32.450       746
32.460       720
32.470       666
32.480       693
32.490       560
32.500       720
32.510       480
32.520       480
32.530       373
32.540       413
32.550       666
32.560       293
32.570       347
32.580       466
32.590       387
32.600       227
32.610       320
32.620       187
32.630       267
32.640       253
32.650       320
32.660       173
32.670       200
32.680       173
32.690        67
32.700       187
32.710        80
32.720        93
32.730        67
32.740        93
32.750       173
32.760       133
32.770       107
32.780        80
32.790        80
32.800        27
32.810        67
32.820        40
32.830        67
32.840        53
32.850        93
32.860        27
32.870        67
32.880        80
32.890        80
32.900        67
32.910        40
32.920        67
32.930        93
32.940        67
32.950        53
32.960         0
32.970        67
32.980        40
32.990         0
33.000        53
33.010        40
33.020        53
33.030        40
33.040        53
33.050       133
33.060        13
33.070        40
33.080        13
33.090        13
33.100        13
33.110        27
33.120        53
33.130        40
33.140        40
33.150        40
33.160        80
33.170        40
33.180        67
33.190        67
33.200        27
33.210        67
33.220        27
33.230        80
33.240        40
33.250        27
33.260        13
33.270        67
33.280        80
33.290        40
33.300        80
33.310        53
33.320        53
33.330        53
33.340        53
33.350        13
33.360        27
33.370        80
33.380        13
33.390        13
33.400         0
33.410        13
33.420        53
33.430        53
33.440        27
33.450         0
33.460        40
33.470        27
33.480        40
33.490        27
33.500        40
33.510         0
33.520        40
33.530        27
33.540        53
33.550         0
33.560        40
33.570        27
33.580        67
33.590        13
33.600        40
33.610        53
33.620         0
33.630        13
33.640        67
33.650         0
33.660        27
33.670        13
33.680         0
33.690        27
33.700        53
33.710        27
33.720        27
33.730        13
33.740        40
33.750         0
33.760        27
33.770        40
33.780        13
33.790        27
33.800        27
33.810        40
33.820        13
33.830        40
33.840        27
33.850        53
33.860        13
33.870        13
33.880        27
33.890        27
33.900        53
33.910        53
33.920        40
33.930        27
33.940        53
33.950        13
33.960        13
33.970        27
33.980        27
33.990        13
34.000        13
34.010        40
34.020        40
34.030        40
34.040        13
34.050        27
34.060        40
34.070        13
34.080        27
34.090        13
34.100        40
34.110         0
34.120        13
34.130         0
34.140        40
34.150        53
34.160        27
34.170        27
34.180        40
34.190        27
34.200        13
34.210        13
34.220        27
34.230        40
34.240         0
34.250        40
34.260        40
34.270        40
34.280        40
34.290        53
34.300        13
34.310        13
34.320        27
34.330        40
34.340        40
34.350         0
34.360        40
34.370        67
34.380        67
34.390        27
34.400        27
34.410        40
34.420        27
34.430        80
34.440        40
34.450        13
34.460         0
34.470        40
34.480        27
34.490        53
34.500         0
34.510        40
34.520        13
34.530         0
34.540        27
34.550        27
34.560        27
34.570        27
34.580         0
34.590        27
34.600        53
34.610         0
34.620        53
34.630        27
34.640        27
34.650        27
34.660        27
34.670        40
34.680        27
34.690        13
34.700        67
34.710         0
34.720        13
34.730        40
34.740        13
34.750        27
34.760        40
34.770        13
34.780        27
34.790        40
34.800        27
34.810         0
34.820        13
34.830         0
34.840         0
34.850        13
34.860        67
34.870        67
34.880         0
34.890        40
34.900        27
34.910        40
34.920        27
34.930        67
34.940        13
34.950        27
34.960        40
34.970        67
34.980       107
34.990        27
35.000        27
35.010        53
35.020        53
35.030        40
35.040        53
35.050        13
35.060        67
35.070       133
35.080       120
35.090        53
35.100       120
35.110        40
35.120        80
35.130       133
35.140       120
35.150       147
35.160       187
35.170       293
35.180       307
35.190       360
35.200       267
35.210       253
35.220       373
35.230       307
35.240       227
35.250       293
35.260       293
35.270       240
35.280       120
35.290       147
35.300       213
35.310       173
35.320       187
35.330       133
35.340       173
35.350        93
35.360        93
35.370       120
35.380        13
35.390        93
35.400        53
35.410        27
35.420        40
35.430         0
35.440        40
35.450        13
35.460        27
35.470        53
35.480        13
35.490        40
35.500       120
35.510        13
35.520        53
35.530        13
35.540        13
35.550        67
35.560        13
35.570        80
35.580        40
35.590        27
35.600        13
35.610        13
35.620        27
35.630        13
35.640        53
35.650        13
35.660         0
35.670        13
35.680        80
35.690        27
35.700         0
35.710        13
35.720         0
35.730        13
35.740         0
35.750        27
35.760        13
35.770        27
35.780        13
35.790       107
35.800        40
35.810        27
35.820        40
35.830        53
35.840        40
35.850        53
35.860        13
35.870        13
35.880        53
35.890        80
35.900        40
35.910        40
35.920        40
35.930        53
35.940        27
35.950        53
35.960        13
35.970        67
35.980        13
35.990        27
36.000        27
36.010        40
36.020        67
36.030        27
36.040        40
36.050        53
36.060        13
36.070        27
36.080        80
36.090        40
36.100        67
36.110        40
36.120         0
36.130        40
36.140        27
36.150        40
36.160        53
36.170        13
36.180         0
36.190         0
36.200        27
36.210        13
36.220        40
36.230        27
36.240        13
36.250        40
36.260        53
36.270         0
36.280        13
36.290        40
36.300        13
36.310        27
36.320        40
36.330        13
36.340        27
36.350        27
36.360        40
36.370        27
36.380        53
36.390        40
36.400        13
36.410        27
36.420        27
36.430        40
36.440        13
36.450        27
36.460        53
36.470         0
36.480        27
36.490        27
36.500        13
36.510        13
36.520        13
36.530        27
36.540        67
36.550        13
36.560        40
36.570        27
36.580         0
36.590        40
36.600        53
36.610         0
36.620        27
36.630        27
36.640        13
36.650        27
36.660        27
36.670        13
36.680        13
36.690        67
36.700        27
36.710         0
36.720        40
36.730        27
36.740        67
36.750        27
36.760        40
36.770        40
36.780        13
36.790         0
36.800         0
36.810        13
36.820        40
36.830        13
36.840        40
36.850        27
36.860         0
36.870        13
36.880        27
36.890        27
36.900         0
36.910        27
36.920        13
36.930         0
36.940        13
36.950        13
36.960        27
36.970        13
36.980        53
36.990         0
37.000        27
37.010        13
37.020        27
37.030        40
37.040        67
37.050        13
37.060        27
37.070        13
37.080        13
37.090        27
37.100        53
37.110        27
37.120         0
37.130        40
37.140        27
37.150        13
37.160        67
37.170        13
37.180        27
37.190        13
37.200        40
37.210         0
37.220        40
37.230        13
37.240        13
37.250        40
37.260        27
37.270         0
37.280        13
37.290        13
37.300        27
37.310        67
37.320        13
37.330        13
37.340         0
37.350         0
37.360         0
37.370        40
37.380         0
37.390        40
37.400         0
37.410        27
37.420        13
37.430        27
37.440        27
37.450        13
37.460        27
37.470         0
37.480        53
37.490         0
37.500        27
37.510        40
37.520        13
37.530        13
37.540        13
37.550        13
37.560        13
37.570        27
37.580        13
37.590        27
37.600        13
37.610        67
37.620        13
37.630        27
37.640        53
37.650        27
37.660        27
37.670         0
37.680         0
37.690        27
37.700        40
37.710        40
37.720        53
37.730        67
37.740         0
37.750        13
37.760        53
37.770        67
37.780        27
37.790        80
37.800        67
37.810        67
37.820        53
37.830        13
37.840        13
37.850       133
37.860        40
37.870        27
37.880        40
37.890        13
37.900        40
37.910        40
37.920       107
37.930        27
37.940        13
37.950        40
37.960        27
37.970        40
37.980        13
37.990        40
38.000        53
38.010        27
38.020         0
38.030         0
38.040        40
38.050        27
38.060         0
38.070        27
38.080         0
38.090         0
38.100        27
38.110        13
38.120        13
38.130        40
38.140        13
38.150        13
38.160        13
38.170        27
38.180        27
38.190        67
38.200        27
38.210        13
38.220        27
38.230        40
38.240        13
38.250        40
38.260        27
38.270         0
38.280        27
38.290        40
38.300        27
38.310        40
38.320        40
38.330        13
38.340        13
38.350        53
38.360        53
38.370         0
38.380        13
38.390        67
38.400        27
38.410         0
38.420        13
38.430        13
38.440        13
38.450        53
38.460        13
38.470        27
38.480        53
38.490        13
38.500         0
38.510        40
38.520         0
38.530        13
38.540        53
38.550        13
38.560        40
38.570        53
38.580        13
38.590        13
38.600        13
38.610        27
38.620        27
38.630        27
38.640        80
38.650        27
38.660        27
38.670        53
38.680        13
38.690         0
38.700        13
38.710        53
38.720        67
38.730        27
38.740        27
38.750        27
38.760         0
38.770        13
38.780        13
38.790        13
38.800        67
38.810        13
38.820         0
38.830        53
38.840        27
38.850        40
38.860        27
38.870         0
38.880        13
38.890         0
38.900        13
38.910         0
38.920        13
38.930        27
38.940        27
38.950        40
38.960        13
38.970         0
38.980        67
38.990        27
39.000        40
39.010        13
39.020         0
39.030        13
39.040        40
39.050        27
39.060        40
39.070        40
39.080        13
39.090        27
39.100         0
39.110        27
39.120        40
39.130        27
39.140        40
39.150        40
39.160        40
39.170        40
39.180        53
39.190        13
39.200        40
39.210        13
39.220        13
39.230        40
39.240         0
39.250        13
39.260        13
39.270        13
39.280        13
39.290        13
39.300        27
39.310        13
39.320        27
39.330        13
39.340        67
39.350        27
39.360         0
39.370        40
39.380        13
39.390        27
39.400        13
39.410         0
39.420        40
39.430        27
39.440        27
39.450        27
39.460        27
39.470        53
39.480        40
39.490        27
39.500         0
39.510        13
39.520         0
39.530        40
39.540        27
39.550        13
39.560        40
39.570        40
39.580        53
39.590        40
39.600         0
39.610        27
39.620         0
39.630        13
39.640        27
39.650        13
39.660        27
39.670        40
39.680        40
39.690        27
39.700        13
39.710         0
39.720         0
39.730        13
39.740        13
39.750         0
39.760        27
39.770        27
39.780        27
39.790        27
39.800         0
39.810        27
39.820        40
39.830        13
39.840        53
39.850        27
39.860        13
39.870        67
39.880        40
39.890        53
39.900        27
39.910        13
39.920        53
39.930        53
39.940        27
39.950        27
39.960        27
39.970        53
39.980        67
39.990        40
40.000        27
40.010        27
40.020        13
40.030        40
40.040        13
40.050        13
40.060        53
40.070        27
40.080        40
40.090        40
40.100        53
40.110        53
40.120        27
40.130        40
40.140         0
40.150        13
40.160        27
40.170        40
40.180        40
40.190        13
40.200        13
40.210        13
40.220        40
40.230         0
40.240        13
40.250        53
40.260        13
40.270        13
40.280        27
40.290        13
40.300         0
40.310        40
40.320        13
40.330        13
40.340        27
40.350        13
40.360         0
40.370        40
40.380        27
40.390        27
40.400        40
40.410        40
40.420        13
40.430        40
40.440        40
40.450        27
40.460        40
40.470        27
40.480        27
40.490        13
40.500        27
40.510        40
40.520        27
40.530        27
40.540        27
40.550        27
40.560        27
40.570        27
40.580        27
40.590        13
40.600        27
40.610        40
40.620        13
40.630        67
40.640        40
40.650         0
40.660        13
40.670        27
40.680        27
40.690       107
40.700        27
40.710        40
40.720        27
40.730         0
40.740        27
40.750         0
40.760        27
40.770         0
40.780        53
40.790        13
40.800        13
40.810        13
40.820        40
40.830        27
40.840        27
40.850        13
40.860        13
40.870        13
40.880         0
40.890        27
40.900         0
40.910        40
40.920        40
40.930        40
40.940        40
40.950        40
40.960        53
40.970        13
40.980        27
40.990        13
41.000         0
41.010         0
41.020        13
41.030        13
41.040        40
41.050        40
41.060         0
41.070        13
41.080        13
41.090        27
41.100        13
41.110         0
41.120         0
41.130         0
41.140        27
41.150         0
41.160        40
41.170        27
41.180         0
41.190        27
41.200        13
41.210        27
41.220        13
41.230         0
41.240         0
41.250        13
41.260        40
41.270        53
41.280        13
41.290        13
41.300        13
41.310         0
41.320        27
41.330         0
41.340        27
41.350        53
41.360        13
41.370        27
41.380         0
41.390        27
41.400        27
41.410        27
41.420        13
41.430        27
41.440         0
41.450        13
41.460        27
41.470        27
41.480        40
41.490        27
41.500        27
41.510        53
41.520        13
41.530        13
41.540        27
41.550        40
41.560        13
41.570         0
41.580        27
41.590        13
41.600        27
41.610        40
41.620        27
41.630        13
41.640        13
41.650        27
41.660        40
41.670        67
41.680       187
41.690        93
41.700        53
41.710        53
41.720       107
41.730       160
41.740       213
41.750       267
41.760       147
41.770       147
41.780       147
41.790       200
41.800       147
41.810       120
41.820        40
41.830       107
41.840        67
41.850        67
41.860       120
41.870       120
41.880        93
41.890        40
41.900       133
41.910        40
41.920        27
41.930        67
41.940         0
41.950        13
41.960        13
41.970        27
41.980        27
41.990         0
42.000        13
42.010        13
42.020        27
42.030         0
42.040        13
42.050         0
42.060        27
42.070         0
42.080        40
42.090        53
42.100        13
42.110        13
42.120        13
42.130         0
42.140        40
42.150        13
42.160        13
42.170        80
42.180        13
42.190        40
42.200        27
42.210        40
42.220        27
42.230        13
42.240        13
42.250        40
42.260        13
42.270        13
42.280        13
42.290        13
42.300        13
42.310        13
42.320        27
42.330        27
42.340        13
42.350        67
42.360         0
42.370        27
42.380        13
42.390        13
42.400         0
42.410        53
42.420         0
42.430        13
42.440         0
42.450        13
42.460        27
42.470        67
42.480        27
42.490        40
42.500        53
42.510        67
42.520        13
42.530        27
42.540         0
42.550        13
42.560        27
42.570        13
42.580        53
42.590        13
42.600        40
42.610        27
42.620        40
42.630        40
42.640        27
42.650        40
42.660        40
42.670        27
42.680        40
42.690        53
42.700        27
42.710        40
42.720        13
42.730        40
42.740        13
42.750        27
42.760        27
42.770        53
42.780        40
42.790        13
42.800        40
42.810        27
42.820        53
42.830        27
42.840        53
42.850        40
42.860        40
42.870         0
42.880        27
42.890        13
42.900        27
42.910        27
42.920         0
42.930        27
42.940        27
42.950        40
42.960        13
42.970        27
42.980        40
42.990        27
43.000        13
43.010        40
43.020        13
43.030        13
43.040         0
43.050        27
43.060        27
43.070        67
43.080        40
43.090        53
43.100        67
43.110         0
43.120        40
43.130        27
43.140        27
43.150        53
43.160        27
43.170        13
43.180        27
43.190        40
43.200        40
43.210        40
43.220        40
43.230        13
43.240        40
43.250        13
43.260        40
43.270        40
43.280        27
43.290        53
43.300        67
43.310        27
43.320         0
43.330        80
43.340        40
43.350       120
43.360        80
43.370       120
43.380        80
43.390        40
43.400       133
43.410        53
43.420       147
43.430       160
43.440       133
43.450       200
43.460       120
43.470        93
43.480       200
43.490       173
43.500        93
43.510        67
43.520       133
43.530        80
43.540        93
43.550        80
43.560        93
43.570        53
43.580       120
43.590        53
43.600        80
43.610        53
43.620        40
43.630        40
43.640        13
43.650        27
43.660        27
43.670        13
43.680        40
43.690        13
43.700         0
43.710        13
43.720        13
43.730        13
43.740         0
43.750         0
43.760         0
43.770        13
43.780        13
43.790         0
43.800        40
43.810        40
43.820        13
43.830        40
43.840        40
43.850        40
43.860        27
43.870         0
43.880        13
43.890        13
43.900        27
43.910        13
43.920        80
43.930        40
43.940        53
43.950         0
43.960        40
43.970         0
43.980        13
43.990        27
44.000        27
44.010        13
44.020        27
44.030        27
44.040        13
44.050        67
44.060        53
44.070        13
44.080         0
44.090        27
44.100        13
44.110        40
44.120        40
44.130        40
44.140         0
44.150        40
44.160         0
44.170        40
44.180         0
44.190        27
44.200        40
44.210        53
44.220        27
44.230        27
44.240        27
44.250         0
44.260        27
44.270        27
44.280        40
44.290        27
44.300        13
44.310        13
44.320        13
44.330        13
44.340        40
44.350        67
44.360        53
44.370        40
44.380        13
44.390        13
44.400         0
44.410         0
44.420        27
44.430        13
44.440         0
44.450        27
44.460        27
44.470        13
44.480        67
44.490        53
44.500        40
44.510        27
44.520        40
44.530        13
44.540        13
44.550        40
44.560        27
44.570        40
44.580        27
44.590        53
44.600        53
44.610        27
44.620        53
44.630        13
44.640        40
44.650        13
44.660        13
44.670        40
44.680        13
44.690        27
44.700        13
44.710        27
44.720        27
44.730        13
44.740        13
44.750        53
44.760        13
44.770        40
44.780        27
44.790         0
44.800        27
44.810        13
44.820        40
44.830        13
44.840        67
44.850        13
44.860         0
44.870        93
44.880        13
44.890        40
44.900        40
44.910        13
44.920        27
44.930        13
44.940        13
44.950        27
44.960        27
44.970        40
44.980        27
44.990        27
45.000        40
45.010        40
45.020        40
45.030        27
45.040         0
45.050        40
45.060        67
45.070        27
45.080        80
45.090        40
45.100        13
45.110        27
45.120        53
45.130         0
45.140        27
45.150        13
45.160        27
45.170         0
45.180        40
45.190        13
45.200        67
45.210        13
45.220        13
45.230        13
45.240        40
45.250        27
45.260         0
45.270        27
45.280        27
45.290        27
45.300        27
45.310        40
45.320        80
45.330        13
45.340        27
45.350       107
45.360        67
45.370        13
45.380        40
45.390        27
45.400        67
45.410        67
45.420        67
45.430        67
45.440        67
45.450        27
45.460        53
45.470        80
45.480        67
45.490        53
45.500        53
45.510        40
45.520        13
45.530        67
45.540        40
45.550        80
45.560        93
45.570        27
45.580        67
45.590        67
45.600        67
45.610        27
45.620        93
45.630        27
45.640        13
45.650        67
45.660        67
45.670        67
45.680        93
45.690        67
45.700       133
45.710        80
45.720        40
45.730        93
45.740        53
45.750        53
45.760        53
45.770        80
45.780        93
45.790       173
45.800        27
45.810       107
45.820        53
45.830        93
45.840       133
45.850       107
45.860       107
45.870       120
45.880        80
45.890        67
45.900       213
45.910       173
45.920        93
45.930        80
45.940       133
45.950       227
45.960       107
45.970       280
45.980       160
45.990       133
46.000       253
46.010       160
46.020       173
46.030       200
46.040       200
46.050       187
46.060       307
46.070       227
46.080       333
46.090       293
46.100       333
46.110       413
46.120       360
46.130       280
46.140       293
46.150       347
46.160       333
46.170       333
46.180       440
46.190       413
46.200       453
46.210       333
46.220       333
46.230       440
46.240       480
46.250       520
46.260       586
46.270       360
46.280       626
46.290       506
46.300       600
46.310       560
46.320       666
46.330       466
46.340       533
46.350       573
46.360       586
46.370       613
46.380       666
46.390       586
46.400       666
46.410       813
46.420       626
46.430       880
46.440       866
46.450       706
46.460       760
46.470       720
46.480       866
46.490       733
46.500       773
46.510       693
46.520       480
46.530       533
46.540       560
46.550       560
46.560       546
46.570       573
46.580       746
46.590       426
46.600       560
46.610       586
46.620       600
46.630       453
46.640       413
46.650       333
46.660       453
46.670       493
46.680       347
46.690       373
46.700       586
46.710       360
46.720       360
46.730       400
46.740       347
46.750       387
46.760       373
46.770       320
46.780       293
46.790       320
46.800       347
46.810       213
46.820       213
46.830       333
46.840       200
46.850       147
46.860       240
46.870       147
46.880       227
46.890       213
46.900       280
46.910       160
46.920       200
46.930       173
46.940       200
46.950       147
46.960        67
46.970       133
46.980       120
46.990       120
47.000        93
47.010       187
47.020       173
47.030       200
47.040        80
47.050       147
47.060        80
47.070        40
47.080       107
47.090        27
47.100       133
47.110        93
47.120       120
47.130        93
47.140        67
47.150       133
47.160        40
47.170        40
47.180        53
47.190        80
47.200        53
47.210        80
47.220        53
47.230        80
47.240        80
47.250        67
47.260        80
47.270        80
47.280        40
47.290        67
47.300        67
47.310        80
47.320        53
47.330        67
47.340        27
47.350        93
47.360        13
47.370        13
47.380        27
47.390        53
47.400        67
47.410        40
47.420        53
47.430       107
47.440        13
47.450        80
47.460        40
47.470        27
47.480        67
47.490       120
47.500        53
47.510        53
47.520        27
47.530        27
47.540        40
47.550        13
47.560        27
47.570        80
47.580        40
47.590        27
47.600        53
47.610        27
47.620        67
47.630        53
47.640        67
47.650        27
47.660        40
47.670        67
47.680        40
47.690        27
47.700        27
47.710        40
47.720        40
47.730        27
47.740        27
47.750        13
47.760        53
47.770         0
47.780        40
47.790        40
47.800        13
47.810        27
47.820        13
47.830        80
47.840        27
47.850        53
47.860        40
47.870        27
47.880        53
47.890        53
47.900        27
47.910        27
47.920        27
47.930        67
47.940        27
47.950        27
47.960        53
47.970        40
47.980        53
47.990        40
48.000        13
48.010        40
48.020        40
48.030        53
48.040        27
48.050        53
48.060         0
48.070        13
48.080        13
48.090        53
48.100        27
48.110        80
48.120        13
48.130        53
48.140        53
48.150        13
48.160        40
48.170        80
48.180         0
48.190         0
48.200        13
48.210        40
48.220        27
48.230        53
48.240        13
48.250        40
48.260        13
48.270        13
48.280        27
48.290        40
48.300        13
48.310        13
48.320        40
48.330        40
48.340        27
48.350        27
48.360        27
48.370        40
48.380        13
48.390        13
48.400        13
48.410        13
48.420        40
48.430        27
48.440        40
48.450        40
48.460        27
48.470        27
48.480        27
48.490         0
48.500        53
48.510        13
48.520        13
48.530        13
48.540        13
48.550        13
48.560        40
48.570        13
48.580         0
48.590         0
48.600         0
48.610        53
48.620        93
48.630        40
48.640        53
48.650        40
48.660        27
48.670        67
48.680        27
48.690        53
48.700        27
48.710         0
48.720        13
48.730        27
48.740        27
48.750        53
48.760        53
48.770        27
48.780        40
48.790         0
48.800        67
48.810        27
48.820        40
48.830        27
48.840         0
48.850        13
48.860        13
48.870        27
48.880        13
48.890        13
48.900        40
48.910         0
48.920        27
48.930        13
48.940        27
48.950        27
48.960        67
48.970        27
48.980        13
48.990         0
49.000        13
49.010        13
49.020        27
49.030         0
49.040        27
49.050        40
49.060        67
49.070        40
49.080        27
49.090        40
49.100        13
49.110        40
49.120        13
49.130        40
49.140         0
49.150        13
49.160        40
49.170        13
49.180         0
49.190        27
49.200        13
49.210        40
49.220        53
49.230        53
49.240        27
49.250         0
49.260        40
49.270        27
49.280        27
49.290         0
49.300        13
49.310        13
49.320        40
49.330        13
49.340        40
49.350        13
49.360        27
49.370        80
49.380        13
49.390        27
49.400        13
49.410        13
49.420        27
49.430        13
49.440        53
49.450        27
49.460        13
49.470        27
49.480        40
49.490        27
49.500        40
49.510        53
49.520        13
49.530        13
49.540        53
49.550         0
49.560        27
49.570        13
49.580        40
49.590        27
49.600        13
49.610        13
49.620        40
49.630        13
49.640        40
49.650        27
49.660         0
49.670        53
49.680        27
49.690        27
49.700        40
49.710        40
49.720        53
49.730        27
49.740         0
49.750        27
49.760         0
49.770         0
49.780        13
49.790        40
49.800        13
49.810         0
49.820         0
49.830        13
49.840        53
49.850        13
49.860        13
49.870        53
49.880        40
49.890        40
49.900        27
49.910         0
49.920        13
49.930        93
49.940         0
49.950        13
49.960        13
49.970         0
49.980        40
49.990        27
50.000         0
50.010        27
50.020        40
50.030        27
50.040        13
50.050        27
50.060        13
50.070        13
50.080        13
50.090        27
50.100         0
50.110        13
50.120         0
50.130        40
50.140         0
50.150         0
50.160        27
50.170        13
50.180        13
50.190        13
50.200        27
50.210        13
50.220        13
50.230        40
50.240         0
50.250         0
50.260        27
50.270        40
50.280        53
50.290        40
50.300        67
50.310        40
50.320        13
50.330        40
50.340        13
50.350        40
50.360        13
50.370        40
50.380        40
50.390        27
50.400         0
50.410        40
50.420        27
50.430         0
50.440        13
50.450        13
50.460        13
50.470        53
50.480        53
50.490        13
50.500         0
50.510        67
50.520         0
50.530        40
50.540        27
50.550        13
50.560         0
50.570        13
50.580        27
50.590        40
50.600        40
50.610        13
50.620        13
50.630         0
50.640        40
50.650        53
50.660         0
50.670         0
50.680         0
50.690        13
50.700         0
50.710        13
50.720        40
50.730        13
50.740         0
50.750        40
50.760        13
50.770        40
50.780         0
50.790         0
50.800        13
50.810        67
50.820        27
50.830        13
50.840        13
50.850        27
50.860         0
50.870        27
50.880        40
50.890        13
50.900        40
50.910        13
50.920         0
50.930        13
50.940        40
50.950        40
50.960        27
50.970        13
50.980        40
50.990         0
51.000        13
51.010         0
51.020        27
51.030        27
51.040        53
51.050        13
51.060         0
51.070         0
51.080        13
51.090         0
51.100        53
51.110         0
51.120        27
51.130         0
51.140        53
51.150        40
51.160         0
51.170        13
51.180         0
51.190        13
51.200        13
51.210         0
51.220        53
51.230        27
51.240        27
51.250        40
51.260        40
51.270        27
51.280        13
51.290         0
51.300        27
51.310         0
51.320        13
51.330        40
51.340        40
51.350        40
51.360        27
51.370        40
51.380        53
51.390        13
51.400        13
51.410        40
51.420        13
51.430        40
51.440        27
51.450        13
51.460        13
51.470        27
51.480        27
51.490        40
51.500         0
51.510        13
51.520        27
51.530         0
51.540         0
51.550        13
51.560        27
51.570         0
51.580        13
51.590        27
51.600        27
51.610         0
51.620        67
51.630        13
51.640        13
51.650         0
51.660         0
51.670        13
51.680        27
51.690        40
51.700         0
51.710         0
51.720        27
51.730         0
51.740        13
51.750        40
51.760        27
51.770        27
51.780        13
51.790        27
51.800        27
51.810        40
51.820        40
51.830        13
51.840        13
51.850        27
51.860         0
51.870         0
51.880        40
51.890         0
51.900        40
51.910         0
51.920        27
51.930        40
51.940        27
51.950         0
51.960        13
51.970        13
51.980        13
51.990        27
52.000        27
52.010        13
52.020         0
52.030        67
52.040        40
52.050         0
52.060        13
52.070        40
52.080        27
52.090        27
52.100        40
52.110         0
52.120        40
52.130         0
52.140        13
52.150        13
52.160        13
52.170        13
52.180        13
52.190        13
52.200        13
52.210        13
52.220        27
52.230         0
52.240        13
52.250        27
52.260        27
52.270        13
52.280         0
52.290        13
52.300         0
52.310        27
52.320        13
52.330        13
52.340        40
52.350        27
52.360        13
52.370        80
52.380        40
52.390        27
52.400        27
52.410        40
52.420        13
52.430        53
52.440        13
52.450        13
52.460        27
52.470        13
52.480        53
52.490        27
52.500         0
52.510        40
52.520        40
52.530        13
52.540        80
52.550        53
52.560        53
52.570        13
52.580        40
52.590        27
52.600        40
52.610        53
52.620       120
52.630       187
52.640       293
52.650       307
52.660       387
52.670       573
52.680       586
52.690       586
52.700       506
52.710       240
52.720       267
52.730       213
52.740        93
52.750       160
52.760        80
52.770       107
52.780       187
52.790       173
52.800       320
52.810       200
52.820       160
52.830       227
52.840       227
52.850       147
52.860       120
52.870        80
52.880        53
52.890        53
52.900        67
52.910        80
52.920        27
52.930        40
52.940         0
52.950        13
52.960        40
52.970         0
52.980        40
52.990        13
53.000        27
53.010        40
53.020        27
53.030        40
53.040         0
53.050        27
53.060        27
53.070         0
53.080        27
53.090        27
53.100        27
53.110        13
53.120        27
53.130         0
53.140        13
53.150        13
53.160        13
53.170        53
53.180        27
53.190        13
53.200        27
53.210         0
53.220         0
53.230         0
53.240        40
53.250         0
53.260         0
53.270        27
53.280         0
53.290        27
53.300        13
53.310         0
53.320        13
53.330         0
53.340        27
53.350        40
53.360         0
53.370         0
53.380        27
53.390        27
53.400        27
53.410        27
53.420        40
53.430         0
53.440        13
53.450        27
53.460        27
53.470        13
53.480        13
53.490        13
53.500        13
53.510        27
53.520        40
53.530         0
53.540        27
53.550        27
53.560         0
53.570        13
53.580         0
53.590         0
53.600        13
53.610         0
53.620        13
53.630        27
53.640        27
53.650        13
53.660        13
53.670        27
53.680        27
53.690        13
53.700         0
53.710         0
53.720         0
53.730        13
53.740        13
53.750        13
53.760         0
53.770         0
53.780        27
53.790        40
53.800         0
53.810         0
53.820        27
53.830        13
53.840        53
53.850        13
53.860        27
53.870        13
53.880        27
53.890        40
53.900         0
53.910        27
53.920        13
53.930        13
53.940        13
53.950        27
53.960        13
53.970        27
53.980         0
53.990        13
54.000        27
54.010        13
54.020         0
54.030        13
54.040        40
54.050        13
54.060         0
54.070         0
54.080        27
54.090        13
54.100        13
54.110        13
54.120        27
54.130         0
54.140        67
54.150        13
54.160        13
54.170        27
54.180        13
54.190        13
54.200        13
54.210        27
54.220        13
54.230        13
54.240        13
54.250        13
54.260        40
54.270        13
54.280        40
54.290        27
54.300        13
54.310        13
54.320         0
54.330        13
54.340         0
54.350        27
54.360         0
54.370        13
54.380         0
54.390        13
54.400         0
54.410        13
54.420         0
54.430        13
54.440         0
54.450        13
54.460        27
54.470         0
54.480         0
54.490        40
54.500        13
54.510         0
54.520         0
54.530        13
54.540        13
54.550        13
54.560        40
54.570        13
54.580        27
54.590        40
54.600        13
54.610        53
54.620         0
54.630         0
54.640        27
54.650         0
54.660        40
54.670         0
54.680         0
54.690         0
54.700        93
54.710        13
54.720        27
54.730         0
54.740        27
54.750        27
54.760        27
54.770        27
54.780        13
54.790         0
54.800         0
54.810        53
54.820        13
54.830        67
54.840         0
54.850        13
54.860         0
54.870         0
54.880        13
54.890        27
54.900        27
54.910         0
54.920        13
54.930        13
54.940        13
54.950        40
54.960         0
54.970        13
54.980         0
54.990         0
55.000        27
55.010        13
55.020        40
55.030         0
55.040         0
55.050        67
55.060        27
55.070        40
55.080        13
55.090         0
55.100        27
55.110        13
55.120        13
55.130         0
55.140        27
55.150        40
55.160        53
55.170        27
55.180        27
55.190        13
55.200        13
55.210        27
55.220        13
55.230        13
55.240         0
55.250         0
55.260         0
55.270        27
55.280        27
55.290        13
55.300        13
55.310        13
55.320        27
55.330        13
55.340        27
55.350        27
55.360         0
55.370         0
55.380        27
55.390        13
55.400        13
55.410         0
55.420         0
55.430        13
55.440        13
55.450         0
55.460        13
55.470        27
55.480        40
55.490        27
55.500        27
55.510        13
55.520        27
55.530        27
55.540        27
55.550        13
55.560         0
55.570        13
55.580        13
55.590        13
55.600        13
55.610        27
55.620        40
55.630        27
55.640        13
55.650        27
55.660        13
55.670        40
55.680         0
55.690        40
55.700        27
55.710        27
55.720        27
55.730        27
55.740        27
55.750        40
55.760        27
55.770        27
55.780        13
55.790        27
55.800         0
55.810        40
55.820         0
55.830         0
55.840         0
55.850        67
55.860        13
55.870         0
55.880        13
55.890         0
55.900         0
55.910        13
55.920        27
55.930        13
55.940        13
55.950        27
55.960        13
55.970        27
55.980        27
55.990         0
56.000        27
56.010        13
56.020         0
56.030        27
56.040        27
56.050        13
56.060        53
56.070        40
56.080        13
56.090        13
56.100         0
56.110        27
56.120         0
56.130        53
56.140         0
56.150        27
56.160         0
56.170         0
56.180        27
56.190        13
56.200        13
56.210         0
56.220        13
56.230        13
56.240        27
56.250        13
56.260         0
56.270        27
56.280        13
56.290        53
56.300         0
56.310        13
56.320        13
56.330        13
56.340        40
56.350        13
56.360        27
56.370        13
56.380        40
56.390         0
56.400         0
56.410        27
56.420        13
56.430        40
56.440         0
56.450         0
56.460        13
56.470        13
56.480        27
56.490         0
56.500        13
56.510         0
56.520        40
56.530        27
56.540         0
56.550        13
56.560        27
56.570        27
56.580        40
56.590         0
56.600         0
56.610         0
56.620         0
56.630        13
56.640        27
56.650        13
56.660        13
56.670         0
56.680        13
56.690        13
56.700        13
56.710        13
56.720        27
56.730        27
56.740        27
56.750        13
56.760        40
56.770        13
56.780        53
56.790         0
56.800        13
56.810        13
56.820         0
56.830         0
56.840        13
56.850        13
56.860        40
56.870        13
56.880        27
56.890         0
56.900        27
56.910        27
56.920        13
56.930         0
56.940         0
56.950         0
56.960         0
56.970        67
56.980         0
56.990        27
57.000        27
57.010        13
57.020        13
57.030        13
57.040         0
57.050        53
57.060        40
57.070        40
57.080        27
57.090        13
57.100        13
57.110        27
57.120        13
57.130         0
57.140         0
57.150        13
57.160         0
57.170        13
57.180        13
57.190         0
57.200         0
57.210        53
57.220        40
57.230        27
57.240        13
57.250        53
57.260        13
57.270        27
57.280        13
57.290        13
57.300        27
57.310        27
57.320        13
57.330         0
57.340         0
57.350         0
57.360         0
57.370        13
57.380         0
57.390         0
57.400        27
57.410        40
57.420        53
57.430        40
57.440        80
57.450        40
57.460        13
57.470        67
57.480        67
57.490       133
57.500       213
57.510       160
57.520       173
57.530       347
57.540       227
57.550       413
57.560       307
57.570       360
57.580       227
57.590       213
57.600       280
57.610       253
57.620       200
57.630       213
57.640       173
57.650       227
57.660       120
57.670       227
57.680       213
57.690       213
57.700       240
57.710       227
57.720       200
57.730       120
57.740       267
57.750       147
57.760       213
57.770       173
57.780       213
57.790       147
57.800       107
57.810        80
57.820        53
57.830        40
57.840        67
57.850        80
57.860        80
57.870        13
57.880        53
57.890        27
57.900        40
57.910        40
57.920        40
57.930        13
57.940        40
57.950        13
57.960         0
57.970        13
57.980         0
57.990        67
58.000        13
58.010         0
58.020        13
58.030        27
58.040         0
58.050         0
58.060        13
58.070        27
58.080        13
58.090         0
58.100         0
58.110        13
58.120        27
58.130        13
58.140        13
58.150        27
58.160        27
58.170        27
58.180        13
58.190         0
58.200        27
58.210        27
58.220        13
58.230         0
58.240        40
58.250        27
58.260        13
58.270        13
58.280         0
58.290        13
58.300        13
58.310        27
58.320        13
58.330        13
58.340        40
58.350        27
58.360        13
58.370         0
58.380        27
58.390        13
58.400        27
58.410        27
58.420        27
58.430         0
58.440        40
58.450        40
58.460        40
58.470        27
58.480        27
58.490        27
58.500         0
58.510        40
58.520         0
58.530        40
58.540        40
58.550        13
58.560        27
58.570        40
58.580        13
58.590         0
58.600        27
58.610         0
58.620        13
58.630         0
58.640         0
58.650        13
58.660         0
58.670         0
58.680        13
58.690        13
58.700        27
58.710        40
58.720        13
58.730        13
58.740        13
58.750         0
58.760        27
58.770        27
58.780        13
58.790        27
58.800        13
58.810         0
58.820        27
58.830        27
58.840         0
58.850        27
58.860         0
58.870        80
58.880        27
58.890         0
58.900         0
58.910         0
58.920         0
58.930         0
58.940        13
58.950         0
58.960         0
58.970        27
58.980        13
58.990         0
59.000         0
59.010        27
59.020        13
59.030        40
59.040         0
59.050        13
59.060        27
59.070        13
59.080        13
59.090         0
59.100        13
59.110        13
59.120         0
59.130         0
59.140        13
59.150        13
59.160        27
59.170        27
59.180        27
59.190        40
59.200         0
59.210        13
59.220        13
59.230        27
59.240         0
59.250        13
59.260        13
59.270        27
59.280        13
59.290        13
59.300        40
59.310        27
59.320        13
59.330        27
59.340        13
59.350         0
59.360         0
59.370        27
59.380        40
59.390         0
59.400        13
59.410        13
59.420         0
59.430        13
59.440         0
59.450        27
59.460        40
59.470         0
59.480         0
59.490         0
59.500        13
59.510        40
59.520         0
59.530        13
59.540        27
59.550        13
59.560        27
59.570        27
59.580        40
59.590        53
59.600        13
59.610         0
59.620        27
59.630        13
59.640        53
59.650        27
59.660        13
59.670        40
59.680        27
59.690        27
59.700        13
59.710        27
59.720        27
59.730        13
59.740        40
59.750        13
59.760        13
59.770         0
59.780        40
59.790        27
59.800         0
59.810        27
59.820        53
59.830        27
59.840        27
59.850        53
59.860         0
59.870         0
59.880        27
59.890        53
59.900        27
59.910        13
59.920        27
59.930        13
59.940        13
59.950        13
59.960        27
59.970        27
59.980         0
59.990        40
60.000         0
