20.000       120
20.010       120
20.020       340
20.030       353
20.040       327
20.050       460
20.060       353
20.070       367
20.080       393
20.090       347
20.100       367
20.110       413
20.120       300
20.130       360
20.140       300
20.150       426
20.160       360
20.170       400
20.180       446
20.190       313
20.200       273
20.210       353
20.220       373
20.230       320
20.240       440
20.250       420
20.260       420
20.270       393
20.280       360
20.290       327
20.300       360
20.310       360
20.320       373
20.330       433
20.340       393
20.350       327
20.360       473
20.370       333
20.380       293
20.390       387
20.400       400
20.410       353
20.420       420
20.430       380
20.440       333
20.450       347
20.460       400
20.470       320
20.480       380
20.490       360
20.500       360
20.510       327
20.520       460
20.530       333
20.540       233
20.550       340
20.560       347
20.570       367
20.580       340
20.590       393
20.600       333
20.610       247
20.620       333
20.630       327
20.640       393
20.650       300
20.660       360
20.670       340
20.680       353
20.690       380
20.700       380
20.710       360
20.720       400
20.730       233
20.740       393
20.750       393
20.760       393
20.770       347
20.780       407
20.790       300
20.800       393
20.810       393
20.820       347
20.830       380
20.840       293
20.850       373
20.860       353
20.870       360
20.880       380
20.890       320
20.900       407
20.910       433
20.920       353
20.930       327
20.940       300
20.950       313
20.960       353
20.970       227
20.980       267
20.990       393
21.000       247
21.010       333
21.020       387
21.030       287
21.040       420
21.050       313
21.060       380
21.070       287
21.080       347
21.090       327
21.100       373
21.110       287
21.120       280
21.130       320
21.140       333
21.150       320
21.160       373
21.170       293
21.180       307
21.190       267
21.200       400
21.210       320
21.220       307
21.230       360
21.240       313
21.250       353
21.260       400
21.270       426
21.280       307
21.290       313
21.300       293
21.310       360
21.320       320
21.330       293
21.340       333
21.350       267
21.360       327
21.370       300
21.380       273
21.390       267
21.400       273
21.410       333
21.420       287
21.430       413
21.440       273
21.450       333
21.460       227
21.470       387
21.480       320
21.490       373
21.500       300
21.510       320
21.520       307
21.530       353
21.540       273
21.550       387
21.560       280
21.570       313
21.580       327
21.590       360
21.600       287
21.610       340
21.620       347
21.630       353
21.640       353
21.650       293
21.660       233
21.670       387
21.680       213
21.690       333
21.700       293
21.710       413
21.720       307
21.730       300
21.740       333
21.750       353
21.760       367
21.770       340
21.780       240
21.790       367
21.800       307
21.810       287
21.820       340
21.830       307
21.840       360
21.850       333
21.860       240
21.870       273
21.880       327
21.890       240
21.900       300
21.910       387
21.920       340
21.930       307
21.940       333
21.950       353
21.960       253
21.970       287
21.980       373
21.990       260
22.000       207
22.010       307
22.020       300
22.030       273
22.040       313
22.050       293
22.060       247
22.070       287
22.080       340
22.090       260
22.100       267
22.110       293
22.120       267
22.130       293
22.140       247
22.150       293
22.160       247
22.170       300
22.180       240
22.190       293
22.200       200
22.210       260
22.220       260
22.230       240
22.240       333
22.250       313
22.260       233
22.270       280
22.280       273
22.290       293
22.300       353
22.310       320
22.320       260
22.330       273
22.340       300
22.350       300
22.360       253
22.370       293
22.380       253
22.390       287
22.400       267
22.410       280
22.420       260
22.430       320
22.440       327
22.450       300
22.460       300
22.470       233
22.480       280
22.490       320
22.500       260
22.510       213
22.520       287
22.530       267
22.540       307
22.550       240
22.560       173
22.570       207
22.580       347
22.590       327
22.600       253
22.610       267
22.620       327
22.630       333
22.640       307
22.650       333
22.660       307
22.670       340
22.680       260
22.690       313
22.700       353
22.710       273
22.720       240
22.730       247
22.740       253
22.750       347
22.760       220
22.770       247
22.780       293
22.790       293
22.800       267
22.810       287
22.820       260
22.830       260
22.840       240
22.850       387
22.860       313
22.870       353
22.880       327
22.890       320
22.900       300
22.910       300
22.920       233
22.930       373
22.940       347
22.950       320
22.960       300
22.970       400
22.980       267
22.990       320
23.000       247
23.010       213
23.020       307
23.030       320
23.040       273
23.050       240
23.060       233
23.070       280
23.080       287
23.090       220
23.100       193
23.110       273
23.120       287
23.130       347
23.140       280
23.150       380
23.160       253
23.170       287
23.180       293
23.190       287
23.200       287
23.210       280
23.220       220
23.230       347
23.240       307
23.250       387
23.260       293
23.270       273
23.280       360
23.290       347
23.300       333
23.310       280
23.320       333
23.330       347
23.340       313
23.350       373
23.360       273
23.370       320
23.380       413
23.390       273
23.400       233
23.410       227
23.420       300
23.430       347
23.440       347
23.450       260
23.460       293
23.470       353
23.480       287
23.490       320
23.500       327
23.510       300
23.520       240
23.530       313
23.540       327
23.550       360
23.560       327
23.570       307
23.580       353
23.590       400
23.600       273
23.610       333
23.620       253
23.630       313
23.640       260
23.650       313
23.660       240
23.670       207
23.680       280
23.690       340
23.700       287
23.710       280
23.720       213
23.730       307
23.740       313
23.750       280
23.760       287
23.770       353
23.780       267
23.790       367
23.800       280
23.810       333
23.820       313
23.830       353
23.840       180
23.850       273
23.860       280
23.870       273
23.880       227
23.890       280
23.900       273
23.910       307
23.920       227
23.930       240
23.940       360
23.950       260
23.960       353
23.970       300
23.980       320
23.990       227
24.000       293
24.010       227
24.020       260
24.030       333
24.040       327
24.050       287
24.060       267
24.070       313
24.080       280
24.090       240
24.100       247
24.110       233
24.120       320
24.130       253
24.140       253
24.150       333
24.160       260
24.170       227
24.180       220
24.190       220
24.200       333
24.210       287
24.220       327
24.230       240
24.240       253
24.250       267
24.260       313
24.270       280
24.280       207
24.290       313
24.300       247
24.310       307
24.320       240
24.330       307
24.340       253
24.350       307
24.360       240
24.370       260
24.380       293
24.390       220
24.400       273
24.410       227
24.420       267
24.430       300
24.440       300
24.450       293
24.460       213
24.470       320
24.480       327
24.490       313
24.500       253
24.510       287
24.520       207
24.530       193
24.540       307
24.550       213
24.560       207
24.570       287
24.580       293
24.590       207
24.600       253
24.610       287
24.620       240
24.630       247
24.640       320
24.650       200
24.660       273
24.670       227
24.680       213
24.690       213
24.700       240
24.710       200
24.720       293
24.730       267
24.740       200
24.750       233
24.760       300
24.770       220
24.780       247
24.790       193
24.800       220
24.810       300
24.820       227
24.830       180
24.840       193
24.850       153
24.860       247
24.870       300
24.880       207
24.890       247
24.900       260
24.910       227
24.920       300
24.930       167
24.940       227
24.950       247
24.960       260
24.970       227
24.980       267
24.990       240
25.000       193
25.010       273
25.020       173
25.030       233
25.040       220
25.050       200
25.060       253
25.070       233
25.080       260
25.090       253
25.100       227
25.110       293
25.120       247
25.130       247
25.140       213
25.150       180
25.160       240
25.170       247
25.180       187
25.190       227
25.200       160
25.210       213
25.220       167
25.230       180
25.240       173
25.250       193
25.260       180
25.270       253
25.280       173
25.290       233
25.300       240
25.310       153
25.320       240
25.330       213
25.340       273
25.350       200
25.360       233
25.370       253
25.380       193
25.390       213
25.400       220
25.410       213
25.420       173
25.430       287
25.440       193
25.450       160
25.460       187
25.470       167
25.480       253
25.490       247
25.500       173
25.510       160
25.520       253
25.530       180
25.540       253
25.550       173
25.560       187
25.570       200
25.580       220
25.590       247
25.600       147
25.610       240
25.620       200
25.630       173
25.640       180
25.650       200
25.660       187
25.670       233
25.680       180
25.690       133
25.700       207
25.710       167
25.720       133
25.730       140
25.740       167
25.750       100
25.760       173
25.770       140
25.780       127
25.790       207
25.800       140
25.810       133
25.820       153
25.830        87
25.840       113
25.850       120
25.860       167
25.870        93
25.880       100
25.890       153
25.900       100
25.910       153
25.920       153
25.930       147
25.940       200
25.950       120
25.960       107
25.970       133
25.980       107
25.990       107
26.000       127
26.010       147
26.020       160
26.030        93
26.040       153
26.050       173
26.060       100
26.070       133
26.080       107
26.090       133
26.100       133
26.110       193
26.120       160
26.130       120
26.140       113
26.150       120
26.160       120
26.170       120
26.180       127
26.190       107
26.200       127
26.210        93
26.220       120
26.230       100
26.240       113
26.250        60
26.260       147
26.270       133
26.280       140
26.290       133
26.300       127
26.310       133
26.320        80
26.330        87
26.340       133
26.350       140
26.360       167
26.370       100
26.380       120
26.390        93
26.400       107
26.410       113
26.420       127
26.430       140
26.440        93
26.450       100
26.460        93
26.470       107
26.480       153
26.490       120
26.500       113
26.510       153
26.520       107
26.530       133
26.540       107
26.550        73
26.560        93
26.570       140
26.580       173
26.590        87
26.600       153
26.610       113
26.620       113
26.630       113
26.640       167
26.650        73
26.660       113
26.670        80
26.680       107
26.690        87
26.700        60
26.710        93
26.720        73
26.730       113
26.740       120
26.750       127
26.760       120
26.770       107
26.780       120
26.790       113
26.800       113
26.810       133
26.820       127
26.830       127
26.840        47
26.850        87
26.860       127
26.870       147
26.880       100
26.890        80
26.900        73
26.910        73
26.920       113
26.930       120
26.940       133
26.950       147
26.960       100
26.970       127
26.980        80
26.990       173
27.000       140
27.010       127
27.020        87
27.030       100
27.040       160
27.050       107
27.060       153
27.070        53
27.080       120
27.090        60
27.100        73
27.110       133
27.120       113
27.130       133
27.140        80
27.150        73
27.160       100
27.170       127
27.180        87
27.190       100
27.200        80
27.210       153
27.220        93
27.230       147
27.240       120
27.250        60
27.260        93
27.270        67
27.280        87
27.290       100
27.300       127
27.310       113
27.320       127
27.330       133
27.340       100
27.350        87
27.360       120
27.370       120
27.380       113
27.390        87
27.400       107
27.410       120
27.420        73
27.430        53
27.440       127
27.450       120
27.460       100
27.470       107
27.480       127
27.490        67
27.500       113
27.510        73
27.520        87
27.530       100
27.540        93
27.550       107
27.560        73
27.570       120
27.580        80
27.590        80
27.600       133
27.610        80
27.620       100
27.630       113
27.640        80
27.650       107
27.660       100
27.670        87
27.680        87
27.690        60
27.700       113
27.710        93
27.720        73
27.730        87
27.740       133
27.750        93
27.760       153
27.770       113
27.780       100
27.790        80
27.800        73
27.810        73
27.820        73
27.830       100
27.840        60
27.850       107
27.860        73
27.870        87
27.880        67
27.890       113
27.900        87
27.910       107
27.920       133
27.930        47
27.940        87
27.950        67
27.960        73
27.970        80
27.980        80
27.990       107
28.000        87
28.010        80
28.020       113
28.030       113
28.040       100
28.050        80
28.060        93
28.070        80
28.080        73
28.090        67
28.100        73
28.110       127
28.120        73
28.130        73
28.140       100
28.150       113
28.160       100
28.170        67
28.180        93
28.190        73
28.200        73
28.210       113
28.220        80
28.230       107
28.240        73
28.250        53
28.260       107
28.270        73
28.280        93
28.290        80
28.300        60
28.310        73
28.320        67
28.330        73
28.340        80
28.350        80
28.360        87
28.370        53
28.380        73
28.390        73
28.400        93
28.410        73
28.420       120
28.430       133
28.440        80
28.450        73
28.460        73
28.470        80
28.480       107
28.490        40
28.500        73
28.510       113
28.520        73
28.530       127
28.540       107
28.550        87
28.560       100
28.570        80
28.580        87
28.590       100
28.600        53
28.610        67
28.620        67
28.630        47
28.640       133
28.650        73
28.660        73
28.670       107
28.680        80
28.690        73
28.700       100
28.710        53
28.720        73
28.730        87
28.740       120
28.750       100
28.760        87
28.770        67
28.780        67
28.790        60
28.800        67
28.810        40
28.820        80
28.830        60
28.840        87
28.850        67
28.860        93
28.870       120
28.880       100
28.890       107
28.900        27
28.910       140
28.920        87
28.930        53
28.940        53
28.950        73
28.960        80
28.970        80
28.980       100
28.990        87
29.000       107
29.010        80
29.020        73
29.030        60
29.040        73
29.050        73
29.060        53
29.070        53
29.080        67
29.090        93
29.100       113
29.110        60
29.120       113
29.130       133
29.140       147
29.150        53
29.160        87
29.170       107
29.180        87
29.190        60
29.200        93
29.210        87
29.220        47
29.230        27
29.240        60
29.250        73
29.260        53
29.270        93
29.280        67
29.290        93
29.300        73
29.310        73
29.320       113
29.330        47
29.340        47
29.350       153
29.360        73
29.370        60
29.380        67
29.390        73
29.400        93
29.410        67
29.420       113
29.430       167
29.440        67
29.450        67
29.460        13
29.470        67
29.480       113
29.490        60
29.500        80
29.510       120
29.520       113
29.530        87
29.540       120
29.550        53
29.560       113
29.570       100
29.580       127
29.590        80
29.600        73
29.610       127
29.620        73
29.630       113
29.640        40
29.650        93
29.660        93
29.670        47
29.680        73
29.690        40
29.700        27
29.710        60
29.720        80
29.730        73
29.740        80
29.750        27
29.760        67
29.770        60
29.780        60
29.790        67
29.800        87
29.810        40
29.820        53
29.830        33
29.840       113
29.850        93
29.860        93
29.870        67
29.880        53
29.890        20
29.900       107
29.910        87
29.920        80
29.930        60
29.940        67
29.950        60
29.960        73
29.970       120
29.980        73
29.990       107
30.000        87
30.010        73
30.020       107
30.030        60
30.040        73
30.050        67
30.060        80
30.070        60
30.080       100
30.090        67
30.100        67
30.110        67
30.120       140
30.130       120
30.140        67
30.150        93
30.160        67
30.170       107
30.180        60
30.190        47
30.200        60
30.210        33
30.220        73
30.230       107
30.240        67
30.250        80
30.260        80
30.270        80
30.280       113
30.290        73
30.300        53
30.310        53
30.320        93
30.330        67
30.340        47
30.350       100
30.360        67
30.370        73
30.380       100
30.390        60
30.400        87
30.410        60
30.420        67
30.430       127
30.440        53
30.450        67
30.460        47
30.470       100
30.480        93
30.490        53
30.500       100
30.510        87
30.520        93
30.530        73
30.540       100
30.550        73
30.560        67
30.570        93
30.580       120
30.590        67
30.600        40
30.610        60
30.620        40
30.630        73
30.640        93
30.650       160
30.660        87
30.670        93
30.680        27
30.690        87
30.700        87
30.710        93
30.720        87
30.730        87
30.740        80
30.750        53
30.760       113
30.770       100
30.780        73
30.790       120
30.800        80
30.810       100
30.820       107
30.830        80
30.840        73
30.850        73
30.860       147
30.870        93
30.880       107
30.890        60
30.900        73
30.910       113
30.920        60
30.930        73
30.940        87
30.950       107
30.960        73
30.970        80
30.980       120
30.990       107
31.000       107
31.010       100
31.020        60
31.030        93
31.040       100
31.050        47
31.060       147
31.070        80
31.080       127
31.090        73
31.100       107
31.110       127
31.120        73
31.130       107
31.140        80
31.150        80
31.160       100
31.170       133
31.180        60
31.190       113
31.200        67
31.210        93
31.220        40
31.230        93
31.240        87
31.250        80
31.260       120
31.270       107
31.280       113
31.290       127
31.300       120
31.310       100
31.320        87
31.330        73
31.340       133
31.350        93
31.360       127
31.370       127
31.380       113
31.390       140
31.400       113
31.410       113
31.420       127
31.430        60
31.440       113
31.450        87
31.460       100
31.470       113
31.480        80
31.490       107
31.500       107
31.510       100
31.520       120
31.530       120
31.540        73
31.550        93
31.560        87
31.570        93
31.580        67
31.590       100
31.600       107
31.610       107
31.620       120
31.630       127
31.640       107
31.650        87
31.660       133
31.670       120
31.680        93
31.690       127
31.700       147
31.710       140
31.720       113
31.730       133
31.740        60
31.750        87
31.760       140
31.770        93
31.780       107
31.790       180
31.800       140
31.810       167
31.820       193
31.830       160
31.840       133
31.850       193
31.860       153
31.870       233
31.880       233
31.890       187
31.900       240
31.910       153
31.920       173
31.930       233
31.940       160
31.950       173
31.960       220
31.970       307
31.980       267
31.990       293
32.000       280
32.010       267
32.020       273
32.030       253
32.040       433
32.050       367
32.060       526
32.070       826
32.080      1333
32.090      1653
32.100      2412
32.110      2619
32.120      2985
32.130      3039
32.140      2866
32.150      2406
32.160      2239
32.170      1593
32.180      1080
32.190       773
32.200       520
32.210       426
32.220       307
32.230       393
32.240       393
32.250       466
32.260       440
32.270       420
32.280       407
32.290       400
32.300       400
32.310       533
32.320       353
32.330       340
32.340       426
32.350       313
32.360       327
32.370       400
32.380       313
32.390       420
32.400       393
32.410       360
32.420       353
32.430       287
32.440       267
32.450       313
32.460       360
32.470       340
32.480       320
32.490       340
32.500       273
32.510       267
32.520       273
32.530       320
32.540       193
32.550       220
32.560       267
32.570       173
32.580       167
32.590       233
32.600       180
32.610       207
32.620       160
32.630       107
32.640       173
32.650       180
32.660       113
32.670       200
32.680       113
32.690       153
32.700       127
32.710       167
32.720       140
32.730       167
32.740       120
32.750        93
32.760       120
32.770       120
32.780       213
32.790       187
32.800       147
32.810       133
32.820       147
32.830        80
32.840       127
32.850       113
32.860        87
32.870       120
32.880       180
32.890       127
32.900       193
32.910       153
32.920       113
32.930       127
32.940       193
32.950       147
32.960       147
32.970       147
32.980        93
32.990        87
33.000       160
33.010       153
33.020       107
33.030       167
33.040        67
33.050       173
33.060       173
33.070       100
33.080       133
33.090       140
33.100       127
33.110       133
33.120       140
33.130       127
33.140       140
33.150       140
33.160       147
33.170       160
33.180       107
33.190       107
33.200       160
33.210       160
33.220       133
33.230       127
33.240       127
33.250       100
33.260       113
33.270       120
33.280       133
33.290       167
33.300        67
33.310       127
33.320       200
33.330       120
33.340       100
33.350       133
33.360       140
33.370       140
33.380       147
33.390       140
33.400        80
33.410       113
33.420       120
33.430       147
33.440       127
33.450       147
33.460       147
33.470       140
33.480       173
33.490       107
33.500        67
33.510       133
33.520       127
33.530        87
33.540       100
33.550        93
33.560       113
33.570       147
33.580       120
33.590       120
33.600       153
33.610       107
33.620       147
33.630       153
33.640       100
33.650       113
33.660        80
33.670       120
33.680       140
33.690       133
33.700       113
33.710       167
33.720       153
33.730       107
33.740       127
33.750       153
33.760       200
33.770       133
33.780       180
33.790       113
33.800       140
33.810       100
33.820       187
33.830       113
33.840       127
33.850       100
33.860        93
33.870       153
33.880       133
33.890       180
33.900       113
33.910       107
33.920       187
33.930       140
33.940       107
33.950        80
33.960       133
33.970       127
33.980       153
33.990       147
34.000       160
34.010       147
34.020        73
34.030       107
34.040        93
34.050       127
34.060       120
34.070        87
34.080        60
34.090        93
34.100       167
34.110       173
34.120       133
34.130       160
34.140       147
34.150       147
34.160       153
34.170       167
34.180       107
34.190       140
34.200       153
34.210       180
34.220       127
34.230       153
34.240       100
34.250       107
34.260       180
34.270       167
34.280       167
34.290       153
34.300       207
34.310       167
34.320       133
34.330       180
34.340       173
34.350       180
34.360       280
34.370       300
34.380       367
34.390       453
34.400       660
34.410       606
34.420       646
34.430       773
34.440       913
34.450      1033
34.460      1020
34.470      1020
34.480       906
34.490      1066
34.500      1086
34.510      1066
34.520      1006
34.530      1100
34.540       940
34.550       906
34.560      1053
34.570      1033
34.580      1006
34.590      1013
34.600       953
34.610      1006
34.620      1033
34.630      1060
34.640       906
34.650       980
34.660       973
34.670      1186
34.680       960
34.690      1153
34.700      1126
34.710      1066
34.720      1086
34.730      1006
34.740      1166
34.750      1120
34.760      1100
34.770      1120
34.780      1046
34.790      1066
34.800      1086
34.810      1046
34.820      1086
34.830       973
34.840      1086
34.850      1066
34.860      1233
34.870      1006
34.880      1080
34.890       906
34.900      1160
34.910      1120
34.920      1120
34.930      1066
34.940      1040
34.950      1193
34.960      1213
34.970      1326
34.980      1100
34.990       993
35.000      1253
35.010      1213
35.020      1060
35.030      1299
35.040      1279
35.050      1166
35.060      1160
35.070      1053
35.080      1206
35.090      1413
35.100      1206
35.110      1313
35.120      1240
35.130      1120
35.140      1259
35.150      1306
35.160      1506
35.170      1366
35.180      1299
35.190      1293
35.200      1359
35.210      1313
35.220      1513
35.230      1526
35.240      1453
35.250      1593
35.260      1626
35.270      1413
35.280      1766
35.290      1653
35.300      1799
35.310      1826
35.320      1906
35.330      1779
35.340      2053
35.350      2066
35.360      2439
35.370      2459
35.380      2399
35.390      2492
35.400      2965
35.410      3105
35.420      3878
35.430      5231
35.440      6078
35.450      8457
35.460     10489
35.470     11622
35.480     13501
35.490     15420
35.500     16613
35.510     17513
35.520     18686
35.530     19672
35.540     21238
35.550     21698
35.560     24937
35.570     28609
35.580     36232
35.590     51426
35.600     90624
35.610    144129
35.620    196981
35.630    232474
35.640    247688
35.650    253619
35.660    255844
35.670    247261
35.680    230774
35.690    195842
35.700    161655
35.710    152046
35.720    159929
35.730    171238
35.740    174750
35.750    176616
35.760    169212
35.770    152546
35.780    122651
35.790     83193
35.800     51766
35.810     33760
35.820     24457
35.830     20052
35.840     15914
35.850     14081
35.860     12222
35.870     11409
35.880     10069
35.890      8890
35.900      8050
35.910      6864
35.920      6317
35.930      5311
35.940      4325
35.950      3225
35.960      3485
35.970      3112
35.980      2739
35.990      2466
36.000      2439
36.010      2319
36.020      2239
36.030      2392
36.040      2112
36.050      1973
36.060      2146
36.070      1946
36.080      1766
36.090      1899
36.100      1839
36.110      1599
36.120      1639
36.130      1639
36.140      1573
36.150      1466
36.160      1559
36.170      1573
36.180      1546
36.190      1439
36.200      1533
36.210      1506
36.220      1393
36.230      1379
36.240      1359
36.250      1286
36.260      1133
36.270      1453
36.280      1226
36.290      1120
36.300      1306
36.310      1013
36.320      1253
36.330      1306
36.340      1146
36.350      1040
36.360      1273
36.370      1033
36.380      1073
36.390      1093
36.400      1100
36.410      1166
36.420      1053
36.430       940
36.440      1026
36.450      1106
36.460      1026
36.470       920
36.480      1006
36.490      1153
36.500       933
36.510      1040
36.520       920
36.530       873
36.540       926
36.550       973
36.560       946
36.570       953
36.580       833
36.590       886
36.600       906
36.610       813
36.620       920
36.630       900
36.640       853
36.650       893
36.660       806
36.670       933
36.680       946
36.690       900
36.700       760
36.710       680
36.720       880
36.730       773
36.740       840
36.750       853
36.760       833
36.770       853
36.780       846
36.790       880
36.800      1046
36.810       873
36.820       786
36.830       773
36.840       786
36.850       720
36.860       760
36.870       740
36.880       866
36.890       893
36.900       700
36.910       693
36.920       866
36.930       773
36.940       833
36.950       673
36.960       753
36.970       840
36.980       733
36.990       773
37.000       800
37.010       846
37.020       820
37.030       746
37.040       626
37.050       660
37.060       753
37.070       853
37.080       666
37.090       873
37.100       753
37.110       726
37.120       813
37.130       793
37.140       673
37.150       726
37.160       773
37.170       606
37.180       740
37.190       853
37.200       680
37.210       700
37.220       713
37.230       780
37.240       700
37.250       640
37.260       706
37.270       713
37.280       713
37.290       793
37.300       673
37.310       666
37.320       686
37.330       593
37.340       753
37.350       646
37.360       746
37.370       546
37.380       700
37.390       746
37.400       680
37.410       653
37.420       706
37.430       673
37.440       793
37.450       613
37.460       586
37.470       646
37.480       680
37.490       700
37.500       560
37.510       653
37.520       620
37.530       726
37.540       713
37.550       660
37.560       646
37.570       800
37.580       680
37.590       666
37.600       606
37.610       773
37.620       580
37.630       613
37.640       680
37.650       600
37.660       600
37.670       593
37.680       506
37.690       653
37.700       600
37.710       633
37.720       573
37.730       633
37.740       620
37.750       693
37.760       700
37.770       693
37.780       593
37.790       526
37.800       640
37.810       506
37.820       626
37.830       640
37.840       553
37.850       606
37.860       620
37.870       626
37.880       620
37.890       600
37.900       633
37.910       580
37.920       466
37.930       600
37.940       653
37.950       626
37.960       693
37.970       606
37.980       620
37.990       586
38.000       580
38.010       540
38.020       506
38.030       646
38.040       540
38.050       493
38.060       633
38.070       506
38.080       506
38.090       766
38.100       546
38.110       506
38.120       566
38.130       520
38.140       493
38.150       466
38.160       693
38.170       633
38.180       660
38.190       546
38.200       573
38.210       440
38.220       566
38.230       600
38.240       560
38.250       526
38.260       500
38.270       453
38.280       540
38.290       546
38.300       400
38.310       486
38.320       480
38.330       620
38.340       466
38.350       633
38.360       566
38.370       506
38.380       553
38.390       493
38.400       560
38.410       453
38.420       493
38.430       580
38.440       513
38.450       440
38.460       460
38.470       666
38.480       566
38.490       526
38.500       606
38.510       393
38.520       560
38.530       533
38.540       600
38.550       613
38.560       506
38.570       453
38.580       480
38.590       540
38.600       453
38.610       506
38.620       513
38.630       633
38.640       413
38.650       620
38.660       460
38.670       540
38.680       420
38.690       420
38.700       493
38.710       480
38.720       413
38.730       600
38.740       407
38.750       560
38.760       613
38.770       553
38.780       546
38.790       540
38.800       573
38.810       500
38.820       433
38.830       393
38.840       500
38.850       500
38.860       533
38.870       520
38.880       493
38.890       480
38.900       420
38.910       553
38.920       513
38.930       347
38.940       480
38.950       513
38.960       513
38.970       400
38.980       433
38.990       400
39.000       433
39.010       560
39.020       453
39.030       287
39.040       433
39.050       520
39.060       433
39.070       387
39.080       486
39.090       453
39.100       486
39.110       400
39.120       466
39.130       560
39.140       480
39.150       493
39.160       520
39.170       573
39.180       440
39.190       520
39.200       473
39.210       446
39.220       480
39.230       433
39.240       453
39.250       433
39.260       407
39.270       500
39.280       520
39.290       460
39.300       460
39.310       413
39.320       553
39.330       526
39.340       473
39.350       460
39.360       420
39.370       426
39.380       466
39.390       466
39.400       486
39.410       460
39.420       506
39.430       420
39.440       426
39.450       373
39.460       513
39.470       473
39.480       513
39.490       433
39.500       433
39.510       353
39.520       500
39.530       466
39.540       360
39.550       440
39.560       480
39.570       393
39.580       367
39.590       426
39.600       440
39.610       387
39.620       506
39.630       553
39.640       320
39.650       387
39.660       526
39.670       300
39.680       426
39.690       353
39.700       340
39.710       480
39.720       340
39.730       453
39.740       453
39.750       446
39.760       486
39.770       353
39.780       446
39.790       413
39.800       466
39.810       433
39.820       380
39.830       400
39.840       420
39.850       440
39.860       460
39.870       393
39.880       426
39.890       453
39.900       380
39.910       440
39.920       307
39.930       486
39.940       347
39.950       413
39.960       453
39.970       493
39.980       453
39.990       513
40.000       446
40.010       327
40.020       426
40.030       413
40.040       393
40.050       393
40.060       373
40.070       480
40.080       426
40.090       300
40.100       347
40.110       393
40.120       413
40.130       360
40.140       333
40.150       400
40.160       347
40.170       347
40.180       440
40.190       440
40.200       433
40.210       347
40.220       400
40.230       393
40.240       420
40.250       307
40.260       293
40.270       373
40.280       367
40.290       300
40.300       433
40.310       340
40.320       353
40.330       373
40.340       400
40.350       420
40.360       426
40.370       440
40.380       353
40.390       307
40.400       373
40.410       307
40.420       433
40.430       360
40.440       333
40.450       400
40.460       426
40.470       373
40.480       393
40.490       486
40.500       413
40.510       440
40.520       307
40.530       353
40.540       287
40.550       440
40.560       347
40.570       353
40.580       407
40.590       387
40.600       247
40.610       320
40.620       353
40.630       433
40.640       460
40.650       360
40.660       413
40.670       360
40.680       340
40.690       340
40.700       380
40.710       333
40.720       426
40.730       460
40.740       220
40.750       340
40.760       347
40.770       400
40.780       393
40.790       446
40.800       373
40.810       373
40.820       347
40.830       333
40.840       300
40.850       407
40.860       353
40.870       347
40.880       453
40.890       353
40.900       426
40.910       300
40.920       333
40.930       353
40.940       347
40.950       373
40.960       340
40.970       360
40.980       393
40.990       480
41.000       393
41.010       340
41.020       347
41.030       413
41.040       387
41.050       307
41.060       393
41.070       300
41.080       367
41.090       327
41.100       280
41.110       267
41.120       313
41.130       313
41.140       407
41.150       367
41.160       300
41.170       373
41.180       300
41.190       373
41.200       280
41.210       373
41.220       367
41.230       393
41.240       227
41.250       233
41.260       273
41.270       360
41.280       393
41.290       340
41.300       360
41.310       367
41.320       280
41.330       333
41.340       347
41.350       293
41.360       293
41.370       307
41.380       373
41.390       313
41.400       260
41.410       420
41.420       380
41.430       280
41.440       413
41.450       333
41.460       287
41.470       293
41.480       360
41.490       413
41.500       267
41.510       300
41.520       193
41.530       307
41.540       347
41.550       393
41.560       320
41.570       313
41.580       300
41.590       273
41.600       400
41.610       347
41.620       307
41.630       380
41.640       333
41.650       340
41.660       267
41.670       340
41.680       387
41.690       293
41.700       280
41.710       293
41.720       380
41.730       300
41.740       340
41.750       280
41.760       307
41.770       333
41.780       340
41.790       333
41.800       293
41.810       293
41.820       426
41.830       333
41.840       360
41.850       347
41.860       333
41.870       367
41.880       353
41.890       400
41.900       353
41.910       313
41.920       260
41.930       213
41.940       360
41.950       367
41.960       353
41.970       320
41.980       347
41.990       307
42.000       347
42.010       373
42.020       307
42.030       293
42.040       300
42.050       280
42.060       287
42.070       373
42.080       267
42.090       287
42.100       333
42.110       267
42.120       300
42.130       340
42.140       300
42.150       247
42.160       340
42.170       280
42.180       373
42.190       253
42.200       313
42.210       293
42.220       253
42.230       353
42.240       287
42.250       380
42.260       247
42.270       260
42.280       280
42.290       353
42.300       273
42.310       300
42.320       273
42.330       233
42.340       227
42.350       367
42.360       273
42.370       307
42.380       240
42.390       293
42.400       313
42.410       267
42.420       220
42.430       327
42.440       240
42.450       293
42.460       247
42.470       287
42.480       307
42.490       307
42.500       307
42.510       207
42.520       207
42.530       367
42.540       240
42.550       313
42.560       260
42.570       207
42.580       220
42.590       287
42.600       233
42.610       247
42.620       287
42.630       307
42.640       280
42.650       287
42.660       287
42.670       287
42.680       247
42.690       240
42.700       260
42.710       227
42.720       247
42.730       240
42.740       353
42.750       307
42.760       347
42.770       247
42.780       293
42.790       287
42.800       293
42.810       253
42.820       293
42.830       340
42.840       300
42.850       233
42.860       247
42.870       307
42.880       260
42.890       227
42.900       360
42.910       293
42.920       173
42.930       220
42.940       233
42.950       287
42.960       247
42.970       307
42.980       200
42.990       233
43.000       193
43.010       327
43.020       267
43.030       273
43.040       273
43.050       300
43.060       273
43.070       280
43.080       253
43.090       313
43.100       267
43.110       280
43.120       227
43.130       220
43.140       247
43.150       267
43.160       307
43.170       253
43.180       207
43.190       280
43.200       247
43.210       240
43.220       253
43.230       313
43.240       267
43.250       327
43.260       253
43.270       260
43.280       253
43.290       267
43.300       260
43.310       240
43.320       213
43.330       220
43.340       213
43.350       287
43.360       153
43.370       280
43.380       187
43.390       300
43.400       180
43.410       193
43.420       267
43.430       247
43.440       313
43.450       240
43.460       280
43.470       187
43.480       293
43.490       213
43.500       153
43.510       240
43.520       253
43.530       293
43.540       227
43.550       260
43.560       260
43.570       167
43.580       193
43.590       227
43.600       173
43.610       213
43.620       207
43.630       193
43.640       287
43.650       193
43.660       233
43.670       193
43.680       293
43.690       280
43.700       193
43.710       180
43.720       280
43.730       193
43.740       233
43.750       347
43.760       193
43.770       240
43.780       300
43.790       273
43.800       193
43.810       207
43.820       313
43.830       180
43.840       227
43.850       200
43.860       147
43.870       273
43.880       307
43.890       200
43.900       200
43.910       227
43.920       147
43.930       173
43.940       207
43.950       187
43.960       167
43.970       147
43.980       213
43.990       233
44.000       227
44.010       153
44.020       233
44.030       220
44.040       287
44.050       213
44.060       180
44.070       213
44.080       260
44.090       220
44.100       260
44.110       133
44.120       200
44.130       200
44.140       253
44.150       247
44.160       200
44.170       200
44.180       213
44.190       180
44.200       193
44.210       193
44.220       200
44.230       167
44.240       227
44.250       160
44.260       207
44.270       140
44.280       240
44.290       247
44.300       153
44.310       187
44.320       167
44.330       287
44.340       220
44.350       287
44.360       147
44.370       200
44.380       240
44.390       207
44.400       207
44.410       133
44.420       153
44.430       233
44.440       213
44.450       267
44.460       273
44.470       213
44.480       213
44.490       173
44.500       193
44.510       147
44.520       253
44.530       153
44.540       160
44.550       193
44.560       147
44.570       147
44.580       173
44.590       227
44.600       233
44.610       273
44.620       207
44.630       127
44.640       173
44.650       247
44.660       267
44.670       133
44.680       193
44.690       167
44.700       240
44.710       247
44.720       147
44.730       160
44.740       140
44.750       127
44.760       153
44.770       127
44.780       187
44.790       193
44.800       187
44.810       167
44.820       247
44.830       153
44.840       180
44.850       180
44.860       160
44.870       173
44.880       147
44.890       180
44.900       193
44.910       200
44.920       300
44.930       127
44.940       160
44.950       127
44.960       173
44.970       160
44.980       260
44.990       167
45.000       207
45.010       213
45.020       233
45.030       100
45.040       140
45.050       127
45.060       200
45.070       160
45.080       227
45.090       187
45.100       200
45.110       193
45.120       147
45.130       207
45.140       153
45.150       180
45.160       247
45.170       173
45.180       187
45.190       173
45.200       153
45.210       173
45.220       173
45.230       193
45.240       167
45.250       193
45.260       227
45.270       180
45.280       173
45.290       233
45.300       180
45.310       187
45.320       180
45.330       193
45.340       233
45.350       153
45.360       113
45.370       147
45.380       227
45.390       200
45.400       200
45.410       147
45.420       133
45.430       187
45.440       167
45.450       127
45.460       113
45.470       173
45.480       160
45.490       167
45.500       100
45.510       120
45.520       140
45.530       140
45.540       193
45.550       200
45.560       180
45.570       213
45.580       120
45.590       180
45.600       293
45.610       140
45.620       167
45.630       133
45.640       173
45.650       133
45.660       193
45.670       180
45.680       120
45.690       160
45.700       193
45.710       160
45.720       173
45.730       140
45.740       147
45.750       153
45.760       213
45.770       127
45.780       207
45.790       153
45.800       133
45.810       133
45.820       187
45.830       180
45.840       160
45.850       187
45.860       133
45.870       133
45.880       213
45.890       133
45.900       180
45.910       180
45.920       160
45.930       160
45.940       193
45.950       173
45.960       167
45.970       127
45.980       240
45.990       140
46.000       173
46.010       173
46.020       193
46.030       153
46.040       193
46.050       207
46.060       113
46.070       160
46.080       173
46.090       127
46.100       140
46.110       180
46.120       120
46.130       113
46.140       180
46.150       127
46.160       207
46.170       180
46.180       147
46.190       147
46.200       133
46.210       147
46.220       227
46.230       193
46.240       173
46.250       120
46.260       180
46.270       180
46.280       213
46.290       133
46.300       227
46.310       153
46.320       167
46.330       147
46.340       213
46.350       200
46.360       173
46.370       160
46.380       173
46.390       213
46.400       207
46.410       180
46.420       107
46.430       127
46.440       133
46.450       180
46.460       240
46.470       173
46.480       167
46.490       207
46.500       233
46.510       167
46.520       193
46.530       167
46.540       247
46.550       173
46.560       173
46.570       193
46.580       193
46.590       213
46.600       167
46.610       193
46.620       140
46.630       127
46.640       147
46.650       160
46.660       180
46.670       133
46.680       133
46.690       140
46.700       180
46.710       180
46.720        93
46.730       160
46.740       120
46.750       173
46.760       107
46.770       233
46.780       127
46.790       140
46.800       147
46.810       120
46.820       167
46.830       107
46.840       127
46.850       187
46.860       147
46.870       140
46.880       160
46.890       120
46.900       180
46.910        80
46.920        80
46.930       160
46.940       180
46.950       140
46.960       113
46.970       207
46.980        93
46.990       140
47.000       133
47.010       180
47.020       207
47.030       107
47.040       167
47.050       187
47.060       173
47.070       200
47.080        73
47.090       187
47.100       167
47.110       153
47.120       180
47.130       107
47.140       193
47.150       107
47.160       167
47.170       100
47.180        87
47.190       120
47.200       193
47.210       107
47.220       133
47.230       140
47.240       153
47.250       127
47.260       133
47.270       133
47.280       207
47.290       133
47.300       140
47.310       133
47.320       113
47.330       180
47.340       107
47.350       100
47.360        87
47.370       140
47.380       107
47.390       133
47.400       187
47.410       180
47.420       173
47.430       133
47.440       147
47.450       180
47.460       133
47.470       160
47.480       193
47.490       167
47.500       153
47.510       127
47.520       100
47.530       127
47.540       107
47.550        93
47.560       180
47.570       140
47.580       160
47.590       133
47.600       107
47.610        93
47.620       120
47.630       113
47.640       173
47.650       107
47.660       140
47.670       133
47.680        87
47.690       100
47.700       107
47.710       127
47.720       147
47.730       140
47.740       120
47.750       160
47.760       120
47.770        80
47.780       120
47.790       120
47.800        67
47.810       200
47.820       100
47.830       180
47.840       127
47.850       140
47.860        67
47.870       153
47.880        93
47.890       107
47.900       140
47.910       113
47.920       147
47.930        93
47.940       127
47.950        80
47.960       107
47.970       140
47.980       107
47.990        93
48.000       133
48.010       180
48.020        80
48.030       140
48.040       140
48.050       167
48.060       153
48.070       147
48.080       140
48.090       120
48.100       127
48.110       173
48.120       207
48.130       187
48.140       227
48.150       207
48.160       260
48.170       267
48.180       227
48.190       187
48.200       167
48.210       160
48.220       113
48.230        87
48.240       127
48.250       133
48.260       113
48.270       153
48.280       167
48.290       153
48.300       173
48.310       173
48.320       173
48.330        87
48.340        67
48.350       133
48.360       113
48.370        80
48.380       127
48.390        27
48.400       147
48.410       153
48.420       100
48.430        87
48.440       153
48.450        93
48.460       160
48.470        87
48.480        73
48.490       127
48.500       127
48.510       153
48.520        80
48.530        93
48.540        53
48.550       100
48.560        93
48.570       100
48.580        87
48.590       100
48.600        87
48.610       133
48.620        73
48.630       113
48.640       107
48.650        93
48.660       140
48.670        93
48.680        80
48.690       120
48.700       100
48.710       147
48.720       133
48.730       113
48.740        80
48.750        93
48.760       147
48.770       127
48.780       127
48.790       107
48.800       107
48.810        87
48.820       100
48.830       160
48.840       127
48.850       160
48.860       113
48.870        87
48.880       113
48.890       107
48.900       107
48.910       107
48.920       107
48.930       120
48.940        80
48.950       133
48.960       140
48.970       127
48.980       113
48.990       113
49.000        73
49.010       107
49.020       107
49.030       113
49.040        67
49.050       153
49.060        93
49.070        73
49.080        93
49.090       133
49.100        87
49.110       140
49.120       113
49.130       140
49.140       167
49.150        93
49.160       100
49.170        60
49.180       107
49.190        87
49.200        93
49.210       107
49.220       153
49.230       120
49.240       113
49.250       113
49.260        87
49.270        73
49.280       107
49.290        53
49.300       100
49.310       120
49.320       113
49.330        87
49.340        67
49.350       120
49.360        73
49.370        73
49.380        47
49.390       140
49.400        87
49.410        87
49.420        87
49.430       120
49.440       127
49.450        80
49.460       127
49.470       100
49.480        93
49.490        33
49.500        73
49.510        67
49.520        87
49.530       100
49.540       107
49.550       107
49.560        87
49.570       100
49.580        67
49.590       107
49.600        73
49.610        87
49.620        67
49.630       133
49.640        80
49.650        67
49.660        73
49.670       133
49.680       107
49.690        87
49.700       100
49.710        60
49.720       107
49.730        80
49.740        73
49.750        67
49.760        27
49.770        87
49.780        80
49.790       100
49.800        93
49.810        93
49.820       113
49.830        33
49.840        73
49.850       120
49.860        93
49.870       113
49.880        67
49.890       100
49.900        80
49.910       100
49.920       120
49.930       127
49.940       100
49.950       113
49.960       113
49.970        73
49.980        73
49.990        93
50.000        93
50.010        93
50.020        73
50.030        87
50.040        80
50.050        67
50.060        53
50.070       100
50.080       133
50.090       113
50.100        93
50.110       113
50.120        93
50.130       100
50.140        80
50.150       120
50.160       127
50.170       107
50.180       107
50.190        53
50.200       107
50.210       120
50.220        93
50.230       107
50.240        80
50.250        60
50.260        87
50.270       127
50.280       127
50.290       107
50.300        73
50.310        80
50.320        67
50.330        93
50.340        73
50.350       147
50.360       100
50.370       100
50.380        60
50.390        67
50.400       113
50.410       127
50.420        67
50.430       100
50.440       113
50.450        47
50.460        93
50.470        80
50.480       113
50.490       173
50.500       113
50.510       153
50.520        73
50.530       107
50.540        80
50.550       160
50.560       133
50.570        93
50.580       147
50.590       127
50.600        60
50.610        67
50.620       120
50.630        47
50.640       107
50.650        73
50.660        80
50.670        87
50.680       107
50.690        80
50.700        87
50.710        67
50.720        47
50.730        60
50.740        93
50.750        13
50.760        67
50.770        87
50.780        87
50.790       100
50.800        73
50.810       100
50.820        67
50.830        93
50.840        73
50.850        73
50.860        67
50.870       107
50.880       127
50.890        67
50.900        60
50.910       133
50.920        27
50.930        80
50.940       107
50.950       127
50.960       100
50.970       107
50.980        67
50.990       120
51.000       140
51.010        87
51.020        73
51.030       120
51.040        60
51.050        87
51.060       113
51.070        93
51.080        67
51.090        60
51.100        80
51.110        60
51.120        60
51.130        60
51.140        67
51.150        93
51.160        87
51.170        47
51.180        67
51.190        67
51.200        80
51.210        87
51.220       107
51.230        60
51.240       107
51.250        93
51.260        67
51.270       113
51.280       113
51.290        73
51.300        73
51.310        87
51.320        53
51.330       113
51.340       127
51.350        73
51.360       113
51.370       107
51.380        87
51.390        80
51.400        33
51.410        67
51.420        67
51.430        87
51.440        80
51.450        73
51.460       133
51.470       120
51.480        53
51.490       113
51.500        33
51.510        73
51.520        80
51.530       100
51.540        73
51.550        60
51.560        73
51.570       120
51.580        53
51.590        80
51.600        40
51.610        93
51.620        67
51.630       107
51.640        73
51.650       100
51.660        60
51.670        93
51.680       107
51.690       120
51.700       107
51.710        80
51.720       100
51.730        47
51.740        73
51.750        53
51.760       100
51.770       107
51.780       113
51.790        87
51.800        53
51.810       120
51.820        67
51.830        93
51.840        80
51.850        47
51.860        73
51.870        60
51.880        47
51.890        80
51.900        67
51.910        47
51.920        93
51.930        53
51.940        67
51.950        73
51.960        87
51.970        80
51.980        73
51.990        87
52.000        60
52.010        60
52.020        80
52.030        67
52.040        93
52.050        87
52.060        67
52.070        47
52.080        60
52.090        60
52.100       133
52.110        87
52.120        60
52.130        47
52.140        87
52.150        47
52.160       100
52.170        87
52.180        87
52.190       127
52.200        87
52.210        80
52.220        73
52.230       107
52.240        47
52.250        67
52.260        87
52.270        67
52.280        73
52.290        33
52.300       127
52.310       127
52.320        80
52.330        73
52.340        47
52.350        60
52.360        80
52.370        93
52.380        93
52.390        87
52.400        80
52.410        73
52.420        87
52.430        60
52.440        53
52.450        53
52.460       100
52.470        47
52.480        27
52.490        73
52.500        53
52.510        87
52.520        87
52.530       120
52.540       127
52.550       100
52.560        73
52.570        93
52.580        53
52.590        47
52.600        47
52.610       107
52.620       100
52.630        87
52.640        60
52.650        80
52.660        53
52.670        80
52.680        73
52.690        47
52.700        67
52.710        60
52.720        87
52.730        80
52.740        47
52.750        67
52.760        60
52.770        60
52.780        53
52.790        40
52.800        87
52.810        60
52.820        87
52.830        93
52.840        27
52.850        40
52.860        53
52.870        53
52.880        87
52.890        53
52.900       107
52.910        73
52.920        60
52.930        80
52.940        93
52.950        93
52.960        60
52.970        67
52.980        73
52.990       107
53.000        67
53.010        93
53.020        47
53.030       107
53.040        87
53.050        73
53.060        53
53.070        80
53.080        80
53.090        53
53.100        80
53.110        60
53.120        53
53.130        80
53.140        53
53.150        80
53.160        53
53.170        60
53.180        80
53.190        60
53.200        80
53.210        67
53.220       113
53.230        40
53.240        73
53.250        67
53.260       100
53.270        53
53.280        60
53.290        87
53.300        40
53.310        93
53.320        73
53.330        53
53.340        80
53.350        93
53.360        93
53.370        67
53.380       113
53.390        33
53.400        80
53.410        87
53.420        73
53.430        93
53.440        87
53.450        40
53.460        47
53.470        53
53.480       107
53.490        60
53.500        80
53.510        53
53.520        53
53.530        80
53.540        60
53.550        93
53.560        73
53.570       107
53.580       107
53.590        60
53.600       107
53.610        27
53.620        60
53.630        87
53.640        33
53.650        60
53.660        80
53.670        60
53.680        67
53.690        87
53.700        73
53.710        67
53.720        60
53.730        60
53.740        33
53.750        80
53.760        40
53.770        53
53.780        47
53.790        73
53.800        73
53.810        47
53.820        60
53.830        33
53.840        47
53.850        80
53.860        87
53.870        80
53.880        80
53.890        67
53.900        73
53.910        47
53.920        93
53.930        60
53.940        80
53.950       127
53.960        67
53.970        33
53.980        27
53.990        53
54.000        53
54.010        67
54.020        80
54.030        33
54.040        67
54.050        73
54.060        60
54.070        67
54.080        47
54.090        87
54.100        73
54.110        20
54.120        73
54.130        73
54.140        93
54.150        53
54.160        67
54.170        80
54.180        53
54.190        67
54.200        53
54.210        67
54.220        67
54.230        80
54.240        53
54.250        80
54.260        67
54.270        80
54.280        40
54.290       100
54.300        93
54.310        60
54.320        47
54.330       127
54.340        47
54.350        80
54.360        87
54.370        73
54.380        53
54.390        80
54.400        47
54.410        47
54.420        67
54.430        47
54.440        67
54.450       113
54.460        67
54.470        60
54.480       107
54.490        40
54.500        53
54.510        60
54.520       100
54.530        87
54.540        27
54.550        33
54.560        73
54.570        80
54.580        40
54.590        47
54.600        73
54.610        53
54.620        40
54.630        40
54.640        60
54.650        73
54.660        73
54.670        73
54.680        87
54.690        60
54.700        67
54.710        60
54.720        40
54.730        47
54.740       120
54.750        60
54.760        87
54.770        53
54.780        40
54.790        60
54.800        53
54.810        93
54.820        93
54.830        93
54.840        47
54.850        53
54.860        60
54.870        73
54.880       113
54.890        87
54.900        53
54.910        60
54.920        73
54.930        53
54.940        53
54.950        60
54.960        60
54.970        87
54.980        67
54.990        47
55.000        87
55.010        27
55.020        73
55.030        67
55.040       107
55.050        60
55.060        53
55.070        40
55.080        53
55.090        87
55.100        73
55.110        73
55.120        73
55.130        47
55.140       113
55.150        87
55.160        87
55.170        53
55.180        73
55.190        53
55.200        47
55.210        60
55.220        93
55.230        60
55.240        47
55.250        67
55.260        60
55.270        80
55.280        87
55.290        87
55.300        87
55.310        53
55.320        73
55.330        33
55.340       100
55.350        73
55.360        53
55.370        53
55.380        67
55.390        33
55.400        33
55.410        40
55.420        73
55.430        53
55.440        67
55.450        60
55.460        60
55.470        87
55.480        33
55.490        73
55.500        53
55.510        33
55.520        47
55.530        40
55.540        53
55.550        53
55.560        93
55.570        80
55.580        20
55.590        60
55.600        87
55.610        67
55.620        47
55.630        47
55.640       100
55.650        27
55.660        67
55.670        80
55.680        47
55.690        40
55.700        40
55.710        73
55.720        47
55.730        67
55.740        60
55.750        73
55.760        47
55.770        73
55.780        33
55.790        87
55.800        27
55.810        40
55.820        67
55.830        53
55.840        73
55.850        67
55.860        73
55.870        33
55.880        67
55.890        47
55.900        60
55.910        80
55.920        33
55.930        67
55.940        93
55.950        47
55.960        87
55.970        53
55.980        47
55.990        20
56.000        60
56.010        67
56.020        40
56.030        47
56.040        67
56.050        93
56.060        33
56.070       100
56.080        40
56.090        53
56.100        67
56.110        87
56.120        53
56.130        33
56.140        47
56.150        20
56.160        80
56.170        93
56.180        40
56.190        33
56.200        60
56.210        73
56.220        53
56.230        53
56.240        67
56.250        87
56.260        73
56.270        93
56.280        47
56.290        33
56.300        47
56.310        53
56.320        33
56.330        27
56.340        67
56.350        60
56.360        53
56.370        60
56.380        40
56.390        60
56.400        80
56.410        53
56.420        80
56.430        67
56.440        60
56.450        53
56.460        67
56.470        60
56.480        67
56.490        60
56.500        60
56.510        60
56.520        53
56.530        40
56.540        87
56.550        47
56.560        87
56.570        33
56.580        27
56.590        73
56.600        40
56.610        67
56.620        67
56.630        87
56.640        67
56.650        60
56.660        80
56.670        60
56.680        87
56.690        13
56.700        93
56.710        40
56.720        40
56.730        47
56.740       100
56.750        60
56.760        27
56.770        47
56.780        33
56.790       100
56.800       100
56.810        67
56.820        33
56.830        27
56.840        67
56.850        53
56.860        13
56.870        53
56.880        60
56.890        33
56.900        60
56.910        67
56.920        33
56.930        33
56.940        67
56.950        47
56.960        53
56.970        67
56.980        93
56.990        87
57.000        80
57.010        27
57.020        53
57.030        60
57.040        73
57.050        60
57.060        80
57.070        67
57.080        40
57.090        67
57.100        60
57.110        60
57.120        40
57.130        60
57.140        53
57.150        60
57.160        33
57.170        53
57.180        53
57.190       107
57.200        47
57.210        73
57.220        47
57.230        53
57.240        33
57.250        60
57.260        60
57.270        47
57.280        67
57.290        53
57.300        47
57.310        47
57.320        47
57.330        60
57.340        47
57.350        47
57.360        27
57.370        33
57.380       113
57.390        53
57.400        60
57.410        67
57.420        73
57.430        73
57.440        53
57.450        60
57.460        60
57.470        40
57.480        47
57.490        40
57.500        47
57.510        67
57.520        80
57.530        33
57.540        47
57.550        27
57.560        33
57.570        60
57.580        40
57.590        60
57.600        67
57.610        53
57.620        47
57.630        53
57.640        53
57.650        47
57.660       100
57.670        80
57.680       107
57.690        40
57.700        80
57.710        27
57.720        47
57.730        47
57.740        27
57.750        53
57.760        67
57.770        67
57.780        33
57.790        67
57.800        53
57.810        40
57.820        40
57.830        60
57.840        33
57.850        53
57.860        80
57.870        33
57.880        60
57.890        60
57.900        47
57.910        13
57.920        60
57.930        67
57.940        60
57.950        33
57.960        87
57.970        73
57.980        27
57.990        40
58.000        27
58.010        53
58.020        60
58.030        67
58.040        67
58.050        67
58.060        60
58.070        47
58.080        53
58.090        60
58.100        27
58.110        13
58.120        93
58.130        40
58.140        33
58.150        27
58.160        33
58.170        47
58.180        47
58.190        33
58.200        53
58.210        47
58.220        40
58.230        67
58.240        80
58.250        67
58.260        53
58.270        40
58.280        67
58.290        53
58.300        40
58.310        47
58.320        33
58.330        67
58.340        60
58.350        53
58.360        53
58.370        47
58.380        67
58.390        73
58.400        87
58.410        27
58.420        53
58.430        67
58.440        27
58.450        60
58.460        40
58.470        40
58.480        80
58.490        60
58.500        60
58.510        53
58.520        60
58.530        67
58.540        47
58.550        73
58.560        73
58.570        33
58.580        33
58.590        60
58.600        33
58.610        40
58.620        60
58.630        73
58.640        27
58.650        33
58.660        67
58.670        80
58.680        53
58.690        60
58.700        47
58.710        53
58.720        73
58.730        73
58.740        67
58.750        20
58.760        40
58.770        33
58.780        33
58.790        73
58.800        93
58.810        40
58.820        93
58.830        60
58.840        67
58.850        47
58.860        40
58.870        60
58.880        40
58.890        47
58.900        33
58.910        13
58.920        80
58.930        47
58.940        27
58.950        93
58.960        33
58.970        40
58.980        40
58.990        40
59.000        20
59.010        60
59.020        40
59.030        40
59.040        40
59.050        87
59.060        40
59.070        60
59.080        53
59.090        93
59.100        13
59.110        60
59.120        33
59.130        47
59.140        53
59.150        67
59.160        60
59.170        60
59.180        40
59.190        60
59.200        80
59.210        53
59.220        53
59.230        53
59.240        40
59.250        47
59.260        40
59.270        53
59.280        47
59.290        33
59.300        40
59.310        33
59.320        27
59.330        47
59.340        67
59.350        67
59.360        27
59.370        53
59.380        47
59.390        40
59.400        53
59.410        27
59.420        67
59.430        20
59.440        40
59.450        33
59.460        53
59.470        60
59.480        47
59.490        67
59.500        40
59.510        33
59.520        53
59.530        27
59.540        40
59.550        27
59.560        47
59.570        47
59.580        67
59.590        73
59.600        40
59.610        80
59.620        60
59.630        67
59.640        40
59.650        27
59.660        47
59.670        73
59.680       100
59.690        53
59.700        80
59.710        40
59.720        93
59.730        53
59.740        67
59.750        40
59.760        20
59.770        53
59.780        60
59.790        60
59.800        60
59.810        47
59.820        33
59.830        47
59.840        80
59.850        60
59.860        60
59.870        47
59.880        73
59.890        20
59.900        73
59.910        40
59.920        40
59.930        40
59.940        73
59.950        60
59.960        60
59.970        60
59.980        27
59.990        33
60.000        60
