20.000        20
20.020        40
20.040        27
20.060        43
20.080        63
20.100        63
20.120        50
20.140        43
20.160        40
20.180        33
20.200        43
20.220        47
20.240        60
20.260        43
20.280        33
20.300        37
20.320        37
20.340        30
20.360        53
20.380        27
20.400        60
20.420        33
20.440        27
20.460        30
20.480        40
20.500        30
20.520        63
20.540        37
20.560        43
20.580        50
20.600        27
20.620        30
20.640        37
20.660        40
20.680        43
20.700        33
20.720        50
20.740        33
20.760        50
20.780        80
20.800        43
20.820        57
20.840        43
20.860        37
20.880        30
20.900        27
20.920        30
20.940        33
20.960        13
20.980        67
21.000        23
21.020        70
21.040        30
21.060        50
21.080        50
21.100        30
21.120        57
21.140        37
21.160        53
21.180        47
21.200        60
21.220        37
21.240        20
21.260        60
21.280        57
21.300        53
21.320        60
21.340        53
21.360        53
21.380        27
21.400        57
21.420        67
21.440        47
21.460        73
21.480        33
21.500        50
21.520        33
21.540        57
21.560        53
21.580        40
21.600        43
21.620        30
21.640        33
21.660        53
21.680        30
21.700        60
21.720        27
21.740        57
21.760        33
21.780        37
21.800        43
21.820        17
21.840        20
21.860        67
21.880        40
21.900        40
21.920        37
21.940        40
21.960        43
21.980        30
22.000        40
22.020        47
22.040        40
22.060        30
22.080        87
22.100        50
22.120        37
22.140        87
22.160        47
22.180        47
22.200        30
22.220        60
22.240        57
22.260        43
22.280        53
22.300        60
22.320        57
22.340        50
22.360        53
22.380        47
22.400        77
22.420        80
22.440        60
22.460        90
22.480        70
22.500        73
22.520        70
22.540        47
22.560        60
22.580        53
22.600        57
22.620        53
22.640        40
22.660        77
22.680        57
22.700        73
22.720        70
22.740        50
22.760        70
22.780        70
22.800        60
22.820        37
22.840        53
22.860        50
22.880        57
22.900        60
22.920        57
22.940        57
22.960        47
22.980        70
23.000        60
23.020        47
23.040        47
23.060        57
23.080        47
23.100        43
23.120        70
23.140        33
23.160        33
23.180        37
23.200        53
23.220        47
23.240        40
23.260        43
23.280        60
23.300        33
23.320        43
23.340        40
23.360        53
23.380        63
23.400        83
23.420        37
23.440        67
23.460        60
23.480        60
23.500        53
23.520        37
23.540        50
23.560        43
23.580        70
23.600        53
23.620        60
23.640        37
23.660        43
23.680        53
23.700        43
23.720        47
23.740        43
23.760        33
23.780        43
23.800        30
23.820        40
23.840        27
23.860        77
23.880        30
23.900        60
23.920        33
23.940        60
23.960        30
23.980        37
24.000        57
24.020        60
24.040        53
24.060        50
24.080        47
24.100        37
24.120        30
24.140        30
24.160        37
24.180        23
24.200        40
24.220        37
24.240        50
24.260        50
24.280        33
24.300        50
24.320        40
24.340        50
24.360        33
24.380        40
24.400        37
24.420        53
24.440        33
24.460        40
24.480        17
24.500        40
24.520        67
24.540        37
24.560        37
24.580        27
24.600        33
24.620        43
24.640        67
24.660        60
24.680        37
24.700        33
24.720        50
24.740        53
24.760        80
24.780        53
24.800        53
24.820        43
24.840        63
24.860        73
24.880        87
24.900        63
24.920        43
24.940        77
24.960        60
24.980        60
25.000        73
25.020        50
25.040        47
25.060        40
25.080        30
25.100        67
25.120        60
25.140        67
25.160        67
25.180        83
25.200        63
25.220        70
25.240        67
25.260        83
25.280        93
25.300       117
25.320       290
25.340       350
25.360       583
25.380       903
25.400      1146
25.420      1196
25.440      1439
25.460      1569
25.480      1306
25.500      1279
25.520       876
25.540       610
25.560       643
25.580       623
25.600       780
25.620       976
25.640       923
25.660       663
25.680       526
25.700       610
25.720       380
25.740       210
25.760       120
25.780        70
25.800        80
25.820        80
25.840        97
25.860        50
25.880        40
25.900        63
25.920        57
25.940        47
25.960        43
25.980        63
26.000        43
26.020        50
26.040        70
26.060        57
26.080        63
26.100        50
26.120        53
26.140        53
26.160        63
26.180        40
26.200        63
26.220        40
26.240        73
26.260        73
26.280        53
26.300        47
26.320        50
26.340        70
26.360        73
26.380        47
26.400        63
26.420        53
26.440        60
26.460        20
26.480        40
26.500        53
26.520        37
26.540        47
26.560        53
26.580        27
26.600        47
26.620        57
26.640        53
26.660        20
26.680        80
26.700        50
26.720        53
26.740        43
26.760        60
26.780        77
26.800        50
26.820        37
26.840        47
26.860        53
26.880        43
26.900        40
26.920        37
26.940        63
26.960        10
26.980        40
27.000        50
27.020        43
27.040        43
27.060        43
27.080        33
27.100        47
27.120        60
27.140        20
27.160        40
27.180        43
27.200        33
27.220        17
27.240        50
27.260        33
27.280        50
27.300        40
27.320        33
27.340        47
27.360        53
27.380        60
27.400        50
27.420        27
27.440        33
27.460        30
27.480        30
27.500        27
27.520        37
27.540        43
27.560        43
27.580        57
27.600        37
27.620        43
27.640        57
27.660        47
27.680        27
27.700        57
27.720        47
27.740        50
27.760        37
27.780        53
27.800        40
27.820        30
27.840        30
27.860        40
27.880        50
27.900        37
27.920        23
27.940        67
27.960        57
27.980        30
28.000        47
28.020        40
28.040        40
28.060        50
28.080        27
28.100        53
28.120        50
28.140        43
28.160        23
28.180        43
28.200        30
28.220        50
28.240        37
28.260        57
28.280        60
28.300        53
28.320        67
28.340        47
28.360        53
28.380        67
28.400        50
28.420        50
28.440        40
28.460        37
28.480        83
28.500        53
28.520        73
28.540        57
28.560        37
28.580        57
28.600        67
28.620        70
28.640        53
28.660        50
28.680        47
28.700        60
28.720        40
28.740        50
28.760        37
28.780        50
28.800        87
28.820        47
28.840        40
28.860        47
28.880        83
28.900        50
28.920        50
28.940        77
28.960        43
28.980        47
29.000        40
29.020        33
29.040        60
29.060        53
29.080        33
29.100        77
29.120        73
29.140        50
29.160        63
29.180        53
29.200        50
29.220        77
29.240        63
29.260        80
29.280        93
29.300        73
29.320        90
29.340        90
29.360        73
29.380        70
29.400        50
29.420        73
29.440        70
29.460        80
29.480        50
29.500        87
29.520        50
29.540        43
29.560        57
29.580        60
29.600        43
29.620        23
29.640        77
29.660        57
29.680        57
29.700        60
29.720        63
29.740        47
29.760        50
29.780        40
29.800        53
29.820        43
29.840        53
29.860        43
29.880        60
29.900        57
29.920        40
29.940        53
29.960        47
29.980        50
30.000        43
30.020        67
30.040        33
30.060        57
30.080        70
30.100        50
30.120        53
30.140        67
30.160        80
30.180        60
30.200        57
30.220        67
30.240        37
30.260        50
30.280        53
30.300        70
30.320        50
30.340        60
30.360        80
30.380        53
30.400        30
30.420        47
30.440        37
30.460        57
30.480        40
30.500        53
30.520        47
30.540        53
30.560        57
30.580        70
30.600        57
30.620        67
30.640        57
30.660        43
30.680        60
30.700        60
30.720        40
30.740        73
30.760        40
30.780        63
30.800        60
30.820        53
30.840        77
30.860        70
30.880        57
30.900        63
30.920        33
30.940        93
30.960        60
30.980        77
31.000        43
31.020        77
31.040        60
31.060       100
31.080        87
31.100        47
31.120       100
31.140        90
31.160        73
31.180        60
31.200        67
31.220        63
31.240        63
31.260        83
31.280        97
31.300        60
31.320        83
31.340        90
31.360       100
31.380        87
31.400       137
31.420        83
31.440        70
31.460        90
31.480        93
31.500        60
31.520       100
31.540        97
31.560       120
31.580        90
31.600       110
31.620        90
31.640       133
31.660       117
31.680       160
31.700       130
31.720       110
31.740       170
31.760       163
31.780       143
31.800       193
31.820       217
31.840       277
31.860       213
31.880       237
31.900       273
31.920       270
31.940       307
31.960       377
31.980       323
32.000       313
32.020       340
32.040       350
32.060       327
32.080       393
32.100       417
32.120       340
32.140       347
32.160       347
32.180       363
32.200       337
32.220       410
32.240       290
32.260       313
32.280       327
32.300       250
32.320       250
32.340       297
32.360       260
32.380       227
32.400       233
32.420       190
32.440       217
32.460       237
32.480       203
32.500       167
32.520       130
32.540       173
32.560       203
32.580       140
32.600       147
32.620       167
32.640       133
32.660       137
32.680       120
32.700       117
32.720       153
32.740       130
32.760       110
32.780        97
32.800       113
32.820       117
32.840       107
32.860       100
32.880        97
32.900        83
32.920        90
32.940       123
32.960        87
32.980        80
33.000        60
33.020        90
33.040        90
33.060        87
33.080        83
33.100        83
33.120        87
33.140        97
33.160        60
33.180        67
33.200        90
33.220        87
33.240        80
33.260        73
33.280        93
33.300        90
33.320        60
33.340        83
33.360        50
33.380        67
33.400        93
33.420        87
33.440        60
33.460        63
33.480        70
33.500        97
33.520        57
33.540        73
33.560        70
33.580        90
33.600        93
33.620        97
33.640        67
33.660        73
33.680        73
33.700        77
33.720        53
33.740        67
33.760        50
33.780        90
33.800        87
33.820        73
33.840        93
33.860        70
33.880        40
33.900        57
33.920        73
33.940        70
33.960        70
33.980        87
34.000        57
34.020        77
34.040        73
34.060        87
34.080        80
34.100        67
34.120        50
34.140        63
34.160        87
34.180        93
34.200        70
34.220        60
34.240        87
34.260        43
34.280        63
34.300        63
34.320        87
34.340        67
34.360        57
34.380        33
34.400        87
34.420        67
34.440        83
34.460        43
34.480        70
34.500        67
34.520        80
34.540        47
34.560        60
34.580        47
34.600        53
34.620        73
34.640        50
34.660        73
34.680        70
34.700        73
34.720        50
34.740        37
34.760        50
34.780        37
34.800        53
34.820        63
34.840        67
34.860        50
34.880        50
34.900        47
34.920        73
34.940        67
34.960        63
34.980        33
35.000        77
35.020        67
35.040        60
35.060        70
35.080        53
35.100        57
35.120        57
35.140       107
35.160        53
35.180        70
35.200        63
35.220        43
35.240        83
35.260        57
35.280        50
35.300        43
35.320        27
35.340        40
35.360        57
35.380        60
35.400        57
35.420        80
35.440        53
35.460        60
35.480        70
35.500        60
35.520        67
35.540        43
35.560        63
35.580        80
35.600        87
35.620        50
35.640        50
35.660        90
35.680        57
35.700        87
35.720        67
35.740        70
35.760        50
35.780        73
35.800        57
35.820        70
35.840        63
35.860        57
35.880        77
35.900        63
35.920        57
35.940        57
35.960        60
35.980        63
36.000        60
36.020        53
36.040        60
36.060        63
36.080        70
36.100        80
36.120        47
36.140        53
36.160        73
36.180        50
36.200        60
36.220        67
36.240        67
36.260        47
36.280        73
36.300        60
36.320        43
36.340        80
36.360        57
36.380        30
36.400        63
36.420        40
36.440        43
36.460        87
36.480        60
36.500        30
36.520        23
36.540        53
36.560        57
36.580        53
36.600        67
36.620        57
36.640        40
36.660        43
36.680        60
36.700        30
36.720        33
36.740        50
36.760        57
36.780        40
36.800        63
36.820        63
36.840        27
36.860        37
36.880        60
36.900        43
36.920        70
36.940        30
36.960        57
36.980        37
37.000        67
37.020        53
37.040        73
37.060        47
37.080        37
37.100        57
37.120        37
37.140        63
37.160        53
37.180        43
37.200        47
37.220        40
37.240        63
37.260        37
37.280        70
37.300        47
37.320        57
37.340        50
37.360        43
37.380        47
37.400        73
37.420        57
37.440        53
37.460        63
37.480        77
37.500        47
37.520        37
37.540        57
37.560        47
37.580        77
37.600        50
37.620        40
37.640        43
37.660        57
37.680        43
37.700        37
37.720        53
37.740        57
37.760        70
37.780        30
37.800        53
37.820        53
37.840        50
37.860        50
37.880        73
37.900        60
37.920        30
37.940        43
37.960        53
37.980        53
38.000        50
38.020        50
38.040        37
38.060        50
38.080        50
38.100        53
38.120        47
38.140        43
38.160        50
38.180        43
38.200        53
38.220        47
38.240        63
38.260        43
38.280        57
38.300        47
38.320        30
38.340        53
38.360        30
38.380        43
38.400        30
38.420        60
38.440        57
38.460        47
38.480        57
38.500        37
38.520        37
38.540        40
38.560        60
38.580        60
38.600        43
38.620        57
38.640        37
38.660        53
38.680        43
38.700        30
38.720        43
38.740        53
38.760        73
38.780        43
38.800        33
38.820        47
38.840        53
38.860        47
38.880        40
38.900        40
38.920        53
38.940        47
38.960        50
38.980        57
39.000        33
39.020        40
39.040        50
39.060        33
39.080        57
39.100        60
39.120        30
39.140        47
39.160        70
39.180        60
39.200        53
39.220        60
39.240        53
39.260        43
39.280        53
39.300        67
39.320        47
39.340        70
39.360        63
39.380        57
39.400        57
39.420        67
39.440        53
39.460        20
39.480        50
39.500        23
39.520        37
39.540        30
39.560        37
39.580        50
39.600        30
39.620        30
39.640        27
39.660        43
39.680        27
39.700        47
39.720        27
39.740        63
39.760        43
39.780        40
39.800        57
39.820        63
39.840        40
39.860        37
39.880        43
39.900        27
39.920        43
39.940        57
39.960        33
39.980        60
40.000        37
40.020        40
40.040        33
40.060        43
40.080        37
40.100        60
40.120        50
40.140        37
40.160        30
40.180        40
40.200        30
40.220        77
40.240        43
40.260        30
40.280        43
40.300        40
40.320        73
40.340        33
40.360        37
40.380        60
40.400        43
40.420        33
40.440        33
40.460        43
40.480        53
40.500        30
40.520        33
40.540        53
40.560        40
40.580        53
40.600        20
40.620        40
40.640        67
40.660        57
40.680        60
40.700        43
40.720        43
40.740        40
40.760        40
40.780        47
40.800        40
40.820        37
40.840        60
40.860        33
40.880        43
40.900        47
40.920        33
40.940        30
40.960        43
40.980        27
41.000        33
41.020        43
41.040        57
41.060        37
41.080        47
41.100        43
41.120        43
41.140        27
41.160        43
41.180        50
41.200        63
41.220        50
41.240        33
41.260        60
41.280        43
41.300        53
41.320        33
41.340        30
41.360        57
41.380        33
41.400        80
41.420        63
41.440        33
41.460        60
41.480        33
41.500        40
41.520        57
41.540        53
41.560        27
41.580        53
41.600        33
41.620        30
41.640        40
41.660        27
41.680        50
41.700        43
41.720        43
41.740        53
41.760        40
41.780        53
41.800        17
41.820        43
41.840        40
41.860        57
41.880        17
41.900        50
41.920        67
41.940        37
41.960        47
41.980        57
42.000        30
42.020        33
42.040        40
42.060        53
42.080        23
42.100        40
42.120        47
42.140        33
42.160        53
42.180        37
42.200        43
42.220        37
42.240        23
42.260        43
42.280        63
42.300        40
42.320        50
42.340        63
42.360        30
42.380        27
42.400        23
42.420        60
42.440        23
42.460        40
42.480        37
42.500        40
42.520        27
42.540        60
42.560        33
42.580        70
42.600        63
42.620        40
42.640        40
42.660        57
42.680        47
42.700        40
42.720        37
42.740        50
42.760        40
42.780        43
42.800        27
42.820        33
42.840        47
42.860        50
42.880        43
42.900        47
42.920        37
42.940        47
42.960        47
42.980        43
43.000        50
43.020        47
43.040        67
43.060        33
43.080        67
43.100        77
43.120        53
43.140        47
43.160        60
43.180        27
43.200        53
43.220        30
43.240        43
43.260        57
43.280        30
43.300        33
43.320        37
43.340        63
43.360        33
43.380        47
43.400        30
43.420        70
43.440        40
43.460        47
43.480        37
43.500        40
43.520        43
43.540        43
43.560        77
43.580        53
43.600        20
43.620        33
43.640        50
43.660        53
43.680        37
43.700        47
43.720        40
43.740        17
43.760        40
43.780        37
43.800        20
43.820        27
43.840        50
43.860        40
43.880        27
43.900        37
43.920        47
43.940        37
43.960        67
43.980        53
44.000        53
44.020        63
44.040        43
44.060        67
44.080        57
44.100        67
44.120        40
44.140        33
44.160        43
44.180        50
44.200        53
44.220        70
44.240        43
44.260        43
44.280        60
44.300        37
44.320        53
44.340        60
44.360        57
44.380        47
44.400        33
44.420        60
44.440        53
44.460        77
44.480        60
44.500        87
44.520        63
44.540        53
44.560       103
44.580        60
44.600        60
44.620        83
44.640        70
44.660        57
44.680        97
44.700        60
44.720        77
44.740        73
44.760        40
44.780        67
44.800       100
44.820       110
44.840        83
44.860        77
44.880        93
44.900       123
44.920        70
44.940        73
44.960        93
44.980       123
45.000       100
45.020       103
45.040       113
45.060       110
45.080        90
45.100       120
45.120       127
45.140       100
45.160       123
45.180       143
45.200       150
45.220       130
45.240       113
45.260       120
45.280       173
45.300       160
45.320       173
45.340       180
45.360       153
45.380       197
45.400       217
45.420       233
45.440       263
45.460       223
45.480       287
45.500       253
45.520       270
45.540       320
45.560       237
45.580       307
45.600       247
45.620       283
45.640       267
45.660       287
45.680       350
45.700       363
45.720       313
45.740       317
45.760       363
45.780       317
45.800       290
45.820       273
45.840       310
45.860       297
45.880       293
45.900       267
45.920       283
45.940       350
45.960       313
45.980       287
46.000       237
46.020       303
46.040       307
46.060       293
46.080       220
46.100       307
46.120       253
46.140       243
46.160       253
46.180       217
46.200       287
46.220       253
46.240       263
46.260       200
46.280       267
46.300       203
46.320       243
46.340       177
46.360       187
46.380       180
46.400       180
46.420       140
46.440       170
46.460       153
46.480       120
46.500       160
46.520       157
46.540       160
46.560       177
46.580       147
46.600       127
46.620       133
46.640       113
46.660       190
46.680       127
46.700       110
46.720       133
46.740        90
46.760       147
46.780       127
46.800        97
46.820       177
46.840       140
46.860       107
46.880       100
46.900        90
46.920       120
46.940       117
46.960       137
46.980       123
47.000       107
47.020       137
47.040       123
47.060       173
47.080       120
47.100       127
47.120       180
47.140       273
47.160       357
47.180       606
47.200       733
47.220       753
47.240       600
47.260       370
47.280       290
47.300       167
47.320       170
47.340       100
47.360       110
47.380       123
47.400        63
47.420        87
47.440       113
47.460        70
47.480       100
47.500        97
47.520        87
47.540        70
47.560        80
47.580        90
47.600        83
47.620        70
47.640        77
47.660        67
47.680        53
47.700        83
47.720        57
47.740        77
47.760        87
47.780        77
47.800        70
47.820        47
47.840        67
47.860        67
47.880        90
47.900        47
47.920        70
47.940        57
47.960        53
47.980        53
48.000        67
48.020        37
48.040        90
48.060        30
48.080        37
48.100        47
48.120        40
48.140        60
48.160        57
48.180        63
48.200        53
48.220        47
48.240        63
48.260        60
48.280        37
48.300        57
48.320        53
48.340        63
48.360        77
48.380        47
48.400        60
48.420        70
48.440        60
48.460        87
48.480        67
48.500        93
48.520        63
48.540        60
48.560        53
48.580        40
48.600        77
48.620        53
48.640        47
48.660        60
48.680        70
48.700        40
48.720        43
48.740        43
48.760        50
48.780        67
48.800        53
48.820        73
48.840        50
48.860        33
48.880        77
48.900        70
48.920        40
48.940        37
48.960        53
48.980        37
49.000        37
49.020        50
49.040        57
49.060        67
49.080        57
49.100        33
49.120        40
49.140        47
49.160        47
49.180        40
49.200        63
49.220        60
49.240        63
49.260        53
49.280        57
49.300        30
49.320        57
49.340        63
49.360        53
49.380        37
49.400        57
49.420        40
49.440        47
49.460        40
49.480        40
49.500        30
49.520        50
49.540        37
49.560        50
49.580        43
49.600        67
49.620        50
49.640        67
49.660        50
49.680        33
49.700        33
49.720        30
49.740        43
49.760        47
49.780        53
49.800        47
49.820        50
49.840        40
49.860        43
49.880        33
49.900        23
49.920        43
49.940        40
49.960        50
49.980        47
50.000        37
50.020        37
50.040        33
50.060        60
50.080        63
50.100        63
50.120        63
50.140        30
50.160        40
50.180        40
50.200        63
50.220        47
50.240        57
50.260        53
50.280        30
50.300        60
50.320        47
50.340        53
50.360        43
50.380        27
50.400        47
50.420        40
50.440        57
50.460        43
50.480        53
50.500        33
50.520        47
50.540        33
50.560        80
50.580        67
50.600        57
50.620        57
50.640        97
50.660        93
50.680       133
50.700       133
50.720       197
50.740       223
50.760       207
50.780       207
50.800       230
50.820       183
50.840       190
50.860       180
50.880       223
50.900       197
50.920       203
50.940       197
50.960       207
50.980       237
51.000       190
51.020       247
51.040       233
51.060       243
51.080       180
51.100       260
51.120       167
51.140       230
51.160       243
51.180       230
51.200       203
51.220       267
51.240       213
51.260       230
51.280       240
51.300       213
51.320       207
51.340       247
51.360       183
51.380       267
51.400       253
51.420       247
51.440       203
51.460       187
51.480       253
51.500       217
51.520       247
51.540       220
51.560       240
51.580       210
51.600       280
51.620       277
51.640       247
51.660       210
51.680       277
51.700       213
51.720       250
51.740       217
51.760       273
51.780       260
51.800       220
51.820       253
51.840       257
51.860       217
51.880       240
51.900       327
51.920       300
51.940       263
51.960       303
51.980       327
52.000       297
52.020       320
52.040       303
52.060       360
52.080       353
52.100       347
52.120       450
52.140       446
52.160       440
52.180       500
52.200       526
52.220       516
52.240       600
52.260       810
52.280       883
52.300      1336
52.320      1819
52.340      2592
52.360      3442
52.380      4018
52.400      4891
52.420      5148
52.440      5718
52.460      6221
52.480      6727
52.500      8210
52.520     11335
52.540     18196
52.560     40614
52.580     76389
52.600     97471
52.620     97428
52.640     68996
52.660     31641
52.680     18216
52.700     24753
52.720     41214
52.740     51250
52.760     51733
52.780     34793
52.800     15634
52.820      6218
52.840      3335
52.860      2369
52.880      1703
52.900      1389
52.920      1203
52.940      1003
52.960       940
52.980       810
53.000       733
53.020       660
53.040       666
53.060       553
53.080       486
53.100       463
53.120       486
53.140       470
53.160       350
53.180       380
53.200       373
53.220       363
53.240       370
53.260       357
53.280       380
53.300       333
53.320       340
53.340       340
53.360       377
53.380       310
53.400       310
53.420       250
53.440       300
53.460       230
53.480       307
53.500       297
53.520       290
53.540       330
53.560       273
53.580       260
53.600       263
53.620       220
53.640       233
53.660       273
53.680       233
53.700       267
53.720       263
53.740       190
53.760       230
53.780       207
53.800       210
53.820       217
53.840       180
53.860       203
53.880       173
53.900       227
53.920       220
53.940       233
53.960       213
53.980       197
54.000       200
54.020       223
54.040       207
54.060       180
54.080       183
54.100       173
54.120       180
54.140       203
54.160       147
54.180       203
54.200       140
54.220       190
54.240       173
54.260       187
54.280       197
54.300       173
54.320       217
54.340       200
54.360       180
54.380       170
54.400       167
54.420       137
54.440       200
54.460       167
54.480       187
54.500       213
54.520       153
54.540       183
54.560       143
54.580       207
54.600       123
54.620       167
54.640       150
54.660       177
54.680       187
54.700       143
54.720       140
54.740       167
54.760       127
54.780       147
54.800       167
54.820       173
54.840       173
54.860       163
54.880       157
54.900       160
54.920       143
54.940       140
54.960       157
54.980       153
55.000       210
55.020       177
55.040       180
55.060       150
55.080       190
55.100       163
55.120       193
55.140       157
55.160       150
55.180       160
55.200       157
55.220       133
55.240       160
55.260       120
55.280       197
55.300       143
55.320       160
55.340       130
55.360       147
55.380       167
55.400       130
55.420       120
55.440       117
55.460       143
55.480       190
55.500       157
55.520       163
55.540       127
55.560       203
55.580        97
55.600       173
55.620       137
55.640       137
55.660       180
55.680       163
55.700       117
55.720       170
55.740       163
55.760       150
55.780       163
55.800       160
55.820       163
55.840       147
55.860       163
55.880       153
55.900        80
55.920       180
55.940       143
55.960       147
55.980       110
56.000        90
56.020       127
56.040       147
56.060       133
56.080       153
56.100       127
56.120       123
56.140       160
56.160       143
56.180       123
56.200        87
56.220       157
56.240       137
56.260       147
56.280       150
56.300       120
56.320       100
56.340       133
56.360       103
56.380       140
56.400       153
56.420       143
56.440       120
56.460       167
56.480       120
56.500        93
56.520       127
56.540       153
56.560       157
56.580       110
56.600       157
56.620       137
56.640       123
56.660       127
56.680       127
56.700       120
56.720       100
56.740       107
56.760       153
56.780       127
56.800       120
56.820       123
56.840       110
56.860       127
56.880       120
56.900       123
56.920       140
56.940       133
56.960       120
56.980       133
57.000       130
57.020       140
57.040       107
57.060        97
57.080       147
57.100       107
57.120       130
57.140       100
57.160       133
57.180       117
57.200       127
57.220       117
57.240       143
57.260       157
57.280       120
57.300       127
57.320       153
57.340        80
57.360       133
57.380       143
57.400       120
57.420       133
57.440       113
57.460       147
57.480        83
57.500       117
57.520        97
57.540       100
57.560       103
57.580       133
57.600       107
57.620       123
57.640       107
57.660       100
57.680       117
57.700       130
57.720       110
57.740        93
57.760       107
57.780       107
57.800        90
57.820        83
57.840       100
57.860       140
57.880        90
57.900       120
57.920       117
57.940        97
57.960        70
57.980        90
58.000       117
58.020       123
58.040        73
58.060        97
58.080       153
58.100       117
58.120        93
58.140       117
58.160        83
58.180        90
58.200        93
58.220       110
58.240       110
58.260       117
58.280        97
58.300       103
58.320       103
58.340       133
58.360       117
58.380       123
58.400        70
58.420       117
58.440       137
58.460       113
58.480       120
58.500        97
58.520        73
58.540        97
58.560       140
58.580        73
58.600       110
58.620       117
58.640        93
58.660        93
58.680        77
58.700        93
58.720        87
58.740       127
58.760        90
58.780       107
58.800       110
58.820       113
58.840       120
58.860       127
58.880        80
58.900       120
58.920       133
58.940        57
58.960       107
58.980       130
59.000        87
59.020        77
59.040        57
59.060        90
59.080        70
59.100        77
59.120       100
59.140       117
59.160        77
59.180       110
59.200       107
59.220        83
59.240        77
59.260        77
59.280       117
59.300        93
59.320        93
59.340        97
59.360        93
59.380       127
59.400        67
59.420        90
59.440        73
59.460        90
59.480       120
59.500        80
59.520        73
59.540       137
59.560        97
59.580        77
59.600        93
59.620        83
59.640        77
59.660       140
59.680        97
59.700       143
59.720        70
59.740        90
59.760       103
59.780       107
59.800       110
59.820        87
59.840       117
59.860        97
59.880        83
59.900       110
59.920        80
59.940        53
59.960        57
59.980        63
60.000        63
