20.000        40
20.010        33
20.020        47
20.030        40
20.040        47
20.050        53
20.060        33
20.070        27
20.080        40
20.090        40
20.100        67
20.110        53
20.120        20
20.130        73
20.140        27
20.150        87
20.160        33
20.170        80
20.180        60
20.190        33
20.200        53
20.210        40
20.220        20
20.230        27
20.240        33
20.250        20
20.260        47
20.270        27
20.280        27
20.290        33
20.300        33
20.310        47
20.320        40
20.330        40
20.340        80
20.350        33
20.360        47
20.370        40
20.380        67
20.390        73
20.400        93
20.410        27
20.420        53
20.430         7
20.440        93
20.450        40
20.460        40
20.470        47
20.480        13
20.490        93
20.500        67
20.510        60
20.520        20
20.530        67
20.540        40
20.550        40
20.560        60
20.570        67
20.580        40
20.590        60
20.600        40
20.610        40
20.620        60
20.630        40
20.640        40
20.650        47
20.660        27
20.670        67
20.680        40
20.690        47
20.700        13
20.710        47
20.720        27
20.730        33
20.740        47
20.750        47
20.760        47
20.770        67
20.780        53
20.790        40
20.800        47
20.810        87
20.820        27
20.830        27
20.840        27
20.850        67
20.860        40
20.870        40
20.880        53
20.890        80
20.900        53
20.910        73
20.920        67
20.930        33
20.940        60
20.950        67
20.960        53
20.970        33
20.980        13
20.990        53
21.000        20
21.010        27
21.020        13
21.030        33
21.040        73
21.050        47
21.060        33
21.070        53
21.080        40
21.090        20
21.100        20
21.110        40
21.120        27
21.130        27
21.140        40
21.150        47
21.160        33
21.170        40
21.180        53
21.190        47
21.200        40
21.210        40
21.220        27
21.230        27
21.240        80
21.250        33
21.260         0
21.270        20
21.280        53
21.290        53
21.300        47
21.310        53
21.320        27
21.330        33
21.340        33
21.350        27
21.360        53
21.370        47
21.380        40
21.390        20
21.400        33
21.410        13
21.420        27
21.430        40
21.440        60
21.450        47
21.460        27
21.470        40
21.480        47
21.490        27
21.500        33
21.510        80
21.520        33
21.530        60
21.540         0
21.550        40
21.560         7
21.570        40
21.580        47
21.590        13
21.600        47
21.610        13
21.620        40
21.630        53
21.640        60
21.650        60
21.660        80
21.670        60
21.680        60
21.690        53
21.700        27
21.710        20
21.720        47
21.730        53
21.740        67
21.750        27
21.760        27
21.770        73
21.780        47
21.790        60
21.800        40
21.810        53
21.820        47
21.830        40
21.840        33
21.850        67
21.860        60
21.870        33
21.880        27
21.890        20
21.900        60
21.910        27
21.920        53
21.930        33
21.940        47
21.950        40
21.960        33
21.970        80
21.980        67
21.990        53
22.000        33
22.010        53
22.020        87
22.030        67
22.040        47
22.050        13
22.060        53
22.070        40
22.080        67
22.090        27
22.100        53
22.110        53
22.120        40
22.130        93
22.140        33
22.150        67
22.160        20
22.170        33
22.180        73
22.190        67
22.200        40
22.210        60
22.220        53
22.230        47
22.240        53
22.250        53
22.260        33
22.270        33
22.280        40
22.290        80
22.300        80
22.310        27
22.320        40
22.330        40
22.340        67
22.350        47
22.360        67
22.370        53
22.380        33
22.390        40
22.400        73
22.410        53
22.420       100
22.430        80
22.440       100
22.450        47
22.460        93
22.470        60
22.480       153
22.490        67
22.500        40
22.510        80
22.520        67
22.530       133
22.540        73
22.550        93
22.560       113
22.570       167
22.580       160
22.590       173
22.600       167
22.610       140
22.620       153
22.630       260
22.640       193
22.650       247
22.660       347
22.670       367
22.680       393
22.690       560
22.700       560
22.710       500
22.720       580
22.730       513
22.740       586
22.750       586
22.760       733
22.770       640
22.780       713
22.790       833
22.800       646
22.810       760
22.820       520
22.830       613
22.840       493
22.850       693
22.860       480
22.870       413
22.880       373
22.890       280
22.900       227
22.910       267
22.920       193
22.930       187
22.940       173
22.950       220
22.960        67
22.970       107
22.980        87
22.990        47
23.000        60
23.010        87
23.020        87
23.030        80
23.040        53
23.050        60
23.060        60
23.070        80
23.080        60
23.090        67
23.100        60
23.110        93
23.120        80
23.130        53
23.140        80
23.150        87
23.160        87
23.170        73
23.180        60
23.190        53
23.200        73
23.210        47
23.220        73
23.230        53
23.240        93
23.250        80
23.260        33
23.270        40
23.280        53
23.290        60
23.300        27
23.310        80
23.320        93
23.330        53
23.340        40
23.350        67
23.360        33
23.370        53
23.380        67
23.390        33
23.400        80
23.410        33
23.420        60
23.430        47
23.440        13
23.450        27
23.460        67
23.470        87
23.480        53
23.490        33
23.500        33
23.510        47
23.520        73
23.530        67
23.540        87
23.550        73
23.560        47
23.570        67
23.580        67
23.590        33
23.600        87
23.610        80
23.620        33
23.630        20
23.640        60
23.650        73
23.660        33
23.670        33
23.680        33
23.690        33
23.700        40
23.710        53
23.720        20
23.730        47
23.740        33
23.750        20
23.760        20
23.770        20
23.780        20
23.790        47
23.800        53
23.810        53
23.820        53
23.830        73
23.840        40
23.850        33
23.860        27
23.870        40
23.880        53
23.890        13
23.900        80
23.910        60
23.920        13
23.930        40
23.940        53
23.950        27
23.960        73
23.970        40
23.980        60
23.990        47
24.000        33
24.010        33
24.020        73
24.030        47
24.040        53
24.050        73
24.060        33
24.070        80
24.080        60
24.090        67
24.100        47
24.110        20
24.120        13
24.130        60
24.140        80
24.150        33
24.160        40
24.170        40
24.180        27
24.190        40
24.200        53
24.210        60
24.220        47
24.230        40
24.240        53
24.250        33
24.260        60
24.270        73
24.280        53
24.290        60
24.300        40
24.310        60
24.320        47
24.330        53
24.340        40
24.350        53
24.360        53
24.370        40
24.380        27
24.390        40
24.400        53
24.410        53
24.420        60
24.430        53
24.440        60
24.450        40
24.460        53
24.470        40
24.480        87
24.490        27
24.500        47
24.510        40
24.520        33
24.530        67
24.540        53
24.550        53
24.560        33
24.570        40
24.580        47
24.590        33
24.600        40
24.610        47
24.620        47
24.630        67
24.640        33
24.650        40
24.660        40
24.670        20
24.680        53
24.690        73
24.700        27
24.710        47
24.720        27
24.730        27
24.740        67
24.750        33
24.760        27
24.770        47
24.780        27
24.790        33
24.800        53
24.810        40
24.820        40
24.830        27
24.840        67
24.850        33
24.860        27
24.870        60
24.880        27
24.890        53
24.900        47
24.910        80
24.920        47
24.930        67
24.940        47
24.950        33
24.960        40
24.970        73
24.980        47
24.990        33
25.000        73
25.010        40
25.020        33
25.030        53
25.040        53
25.050        60
25.060        47
25.070        33
25.080        80
25.090        60
25.100        60
25.110        47
25.120        47
25.130        53
25.140        53
25.150        47
25.160        53
25.170        67
25.180        33
25.190        47
25.200       113
25.210        27
25.220        47
25.230        27
25.240        27
25.250        47
25.260        47
25.270        67
25.280        73
25.290        93
25.300       100
25.310        60
25.320        67
25.330        53
25.340        53
25.350        60
25.360        27
25.370        40
25.380        60
25.390        73
25.400        40
25.410        67
25.420        60
25.430        93
25.440        73
25.450        67
25.460        80
25.470        47
25.480       127
25.490        87
25.500       113
25.510       107
25.520        80
25.530        67
25.540       200
25.550       220
25.560       300
25.570       540
25.580       960
25.590      1213
25.600      1160
25.610      1293
25.620      1100
25.630       973
25.640       880
25.650      1013
25.660       833
25.670       800
25.680       766
25.690       773
25.700       960
25.710       880
25.720       920
25.730       913
25.740       700
25.750       720
25.760       653
25.770       526
25.780       493
25.790       446
25.800       473
25.810       333
25.820       240
25.830       267
25.840       187
25.850       200
25.860       133
25.870       107
25.880       107
25.890        73
25.900        87
25.910        73
25.920        73
25.930        67
25.940        40
25.950       127
25.960        53
25.970        27
25.980        67
25.990        33
26.000        60
26.010        33
26.020        47
26.030        93
26.040        47
26.050        53
26.060        53
26.070        53
26.080        80
26.090        67
26.100        47
26.110        20
26.120        40
26.130        33
26.140        27
26.150        33
26.160        47
26.170        33
26.180        27
26.190        60
26.200        33
26.210        60
26.220        47
26.230        47
26.240        53
26.250        33
26.260        20
26.270        13
26.280        60
26.290        67
26.300        47
26.310        47
26.320        40
26.330        27
26.340        60
26.350        60
26.360        40
26.370        27
26.380        40
26.390        53
26.400        73
26.410        40
26.420        33
26.430        47
26.440        47
26.450        67
26.460        40
26.470        60
26.480        40
26.490        60
26.500        67
26.510        13
26.520        47
26.530        27
26.540        33
26.550        60
26.560        40
26.570        40
26.580        47
26.590        27
26.600        27
26.610        33
26.620        80
26.630        60
26.640        53
26.650        40
26.660        27
26.670        40
26.680        47
26.690        40
26.700        27
26.710        40
26.720        47
26.730         7
26.740        33
26.750        27
26.760        40
26.770        53
26.780        67
26.790        47
26.800        33
26.810        27
26.820        33
26.830        20
26.840        67
26.850        33
26.860        53
26.870        47
26.880        47
26.890        47
26.900        93
26.910        27
26.920        53
26.930        47
26.940        40
26.950        53
26.960        53
26.970        60
26.980        27
26.990        20
27.000        33
27.010         7
27.020        67
27.030        20
27.040        67
27.050        40
27.060        40
27.070        40
27.080        40
27.090        53
27.100        60
27.110        47
27.120        53
27.130        47
27.140        33
27.150        53
27.160        47
27.170        27
27.180        53
27.190        53
27.200        20
27.210        40
27.220        27
27.230        67
27.240        47
27.250        67
27.260        47
27.270        80
27.280        47
27.290        33
27.300        13
27.310        40
27.320        53
27.330        40
27.340        33
27.350        33
27.360        60
27.370        33
27.380        40
27.390        53
27.400        40
27.410        60
27.420        33
27.430        47
27.440        20
27.450        60
27.460        53
27.470        20
27.480        47
27.490        47
27.500        47
27.510        53
27.520        60
27.530        60
27.540        60
27.550        67
27.560        67
27.570        33
27.580        33
27.590        53
27.600        67
27.610        27
27.620        40
27.630         7
27.640        87
27.650        40
27.660        33
27.670        40
27.680        67
27.690        40
27.700        33
27.710        47
27.720        27
27.730        67
27.740        47
27.750        27
27.760        47
27.770        27
27.780       100
27.790        27
27.800        40
27.810        73
27.820        27
27.830        47
27.840        47
27.850        67
27.860        47
27.870        33
27.880        53
27.890         7
27.900        67
27.910        67
27.920        60
27.930        40
27.940        73
27.950        47
27.960        27
27.970        40
27.980        33
27.990         7
28.000        60
28.010        40
28.020        20
28.030        40
28.040        33
28.050        20
28.060        27
28.070        47
28.080        40
28.090        27
28.100        20
28.110        20
28.120        40
28.130        40
28.140        47
28.150        27
28.160        27
28.170        47
28.180        40
28.190        40
28.200        40
28.210        27
28.220        20
28.230        33
28.240        20
28.250        60
28.260        27
28.270        53
28.280        87
28.290        20
28.300        73
28.310        33
28.320        20
28.330        20
28.340        27
28.350        60
28.360        60
28.370        80
28.380        13
28.390        27
28.400        47
28.410        47
28.420         7
28.430        47
28.440        33
28.450        73
28.460        27
28.470        60
28.480        33
28.490        40
28.500        60
28.510        33
28.520        20
28.530         7
28.540        53
28.550        20
28.560        33
28.570        27
28.580        20
28.590        67
28.600        27
28.610        27
28.620        33
28.630        40
28.640        60
28.650        73
28.660        33
28.670        47
28.680        27
28.690        20
28.700        67
28.710        40
28.720        33
28.730        80
28.740        80
28.750        53
28.760        53
28.770        40
28.780        27
28.790        60
28.800        53
28.810        47
28.820        53
28.830        47
28.840        53
28.850        13
28.860        67
28.870        27
28.880        40
28.890        13
28.900        53
28.910        20
28.920        60
28.930        20
28.940        33
28.950        67
28.960        47
28.970        33
28.980        13
28.990        53
29.000        73
29.010        53
29.020        60
29.030        33
29.040        27
29.050        33
29.060        40
29.070        33
29.080        27
29.090        20
29.100        33
29.110        53
29.120        20
29.130        40
29.140        33
29.150        47
29.160        40
29.170        33
29.180        47
29.190        53
29.200        40
29.210        27
29.220        20
29.230        47
29.240        40
29.250        53
29.260        47
29.270        33
29.280        60
29.290        33
29.300        20
29.310        33
29.320        47
29.330        27
29.340        67
29.350        40
29.360        20
29.370         7
29.380        60
29.390        40
29.400        20
29.410        27
29.420        40
29.430        60
29.440        33
29.450        40
29.460        33
29.470        40
29.480        60
29.490        40
29.500        20
29.510        33
29.520        53
29.530        47
29.540        47
29.550        20
29.560        40
29.570        27
29.580        27
29.590        47
29.600        33
29.610        60
29.620        27
29.630        33
29.640        40
29.650        47
29.660        60
29.670        47
29.680        40
29.690        33
29.700        13
29.710        53
29.720        47
29.730        60
29.740        53
29.750        80
29.760        67
29.770        87
29.780        53
29.790        27
29.800         7
29.810        60
29.820        27
29.830        40
29.840        20
29.850        33
29.860        33
29.870        27
29.880        20
29.890        47
29.900        60
29.910        40
29.920        33
29.930        53
29.940        20
29.950        47
29.960        27
29.970        33
29.980        33
29.990        27
30.000        47
30.010        53
30.020        47
30.030        27
30.040        40
30.050        13
30.060        13
30.070        40
30.080        53
30.090        20
30.100        27
30.110        33
30.120        13
30.130        67
30.140        53
30.150        47
30.160        33
30.170        20
30.180        33
30.190        47
30.200        47
30.210        60
30.220        20
30.230        13
30.240        60
30.250        27
30.260        67
30.270        40
30.280         7
30.290        60
30.300        47
30.310        20
30.320        67
30.330        60
30.340        93
30.350        33
30.360        40
30.370        13
30.380        33
30.390        53
30.400        53
30.410        53
30.420        33
30.430        80
30.440        33
30.450        27
30.460        40
30.470        40
30.480        40
30.490        20
30.500        33
30.510        67
30.520        40
30.530        53
30.540        40
30.550        53
30.560        20
30.570        47
30.580        33
30.590        13
30.600        27
30.610        40
30.620        53
30.630        27
30.640        20
30.650        40
30.660        40
30.670        40
30.680        20
30.690        20
30.700        20
30.710        53
30.720        27
30.730        27
30.740        20
30.750        53
30.760        33
30.770        40
30.780        40
30.790        27
30.800        20
30.810        47
30.820        33
30.830        47
30.840        67
30.850        67
30.860        53
30.870        60
30.880        13
30.890         7
30.900        27
30.910        47
30.920        40
30.930        33
30.940        33
30.950        33
30.960        67
30.970        20
30.980        47
30.990        33
31.000        20
31.010        40
31.020        33
31.030        40
31.040        40
31.050        33
31.060        73
31.070        20
31.080        33
31.090        13
31.100        33
31.110        27
31.120        40
31.130        33
31.140        40
31.150        40
31.160        20
31.170        60
31.180        27
31.190        27
31.200        67
31.210        27
31.220        67
31.230        53
31.240        60
31.250        27
31.260        13
31.270        60
31.280        33
31.290        27
31.300        27
31.310        33
31.320        73
31.330        47
31.340        47
31.350        33
31.360        33
31.370        53
31.380        20
31.390        20
31.400        40
31.410        40
31.420        60
31.430        27
31.440        33
31.450        20
31.460        40
31.470         7
31.480        33
31.490        40
31.500        20
31.510        20
31.520        27
31.530        60
31.540        80
31.550        47
31.560        27
31.570        40
31.580        27
31.590        40
31.600        33
31.610        13
31.620        27
31.630        47
31.640        33
31.650        60
31.660        20
31.670        67
31.680        27
31.690        27
31.700        33
31.710        33
31.720        27
31.730        80
31.740        53
31.750        67
31.760        47
31.770        40
31.780        40
31.790        60
31.800        47
31.810        53
31.820        53
31.830        27
31.840        33
31.850        13
31.860        47
31.870        40
31.880        80
31.890        33
31.900        33
31.910        53
31.920        87
31.930        40
31.940        33
31.950        40
31.960        53
31.970        53
31.980        27
31.990        27
32.000        40
32.010        27
32.020        80
32.030        60
32.040        47
32.050        80
32.060        60
32.070        20
32.080        47
32.090        40
32.100        87
32.110        40
32.120        53
32.130        73
32.140        33
32.150        67
32.160        33
32.170        93
32.180        73
32.190        93
32.200        87
32.210        60
32.220       100
32.230       100
32.240        87
32.250       120
32.260       100
32.270       133
32.280       113
32.290        73
32.300       200
32.310       180
32.320       260
32.330       180
32.340       240
32.350       260
32.360       347
32.370       313
32.380       320
32.390       293
32.400       460
32.410       426
32.420       260
32.430       340
32.440       380
32.450       367
32.460       380
32.470       453
32.480       466
32.490       360
32.500       260
32.510       367
32.520       333
32.530       253
32.540       267
32.550       240
32.560       240
32.570       133
32.580       187
32.590       147
32.600       167
32.610        87
32.620       147
32.630        67
32.640        93
32.650       100
32.660        80
32.670        53
32.680        73
32.690        73
32.700        60
32.710        40
32.720        40
32.730        47
32.740        47
32.750        87
32.760        60
32.770        60
32.780        40
32.790        40
32.800        40
32.810        40
32.820        53
32.830        53
32.840        27
32.850        27
32.860        67
32.870        40
32.880        67
32.890        60
32.900       107
32.910        73
32.920        40
32.930        27
32.940        53
32.950        47
32.960        53
32.970        33
32.980        27
32.990        27
33.000        27
33.010        47
33.020        60
33.030        40
33.040        40
33.050        47
33.060        33
33.070        20
33.080        27
33.090        60
33.100        47
33.110        33
33.120        27
33.130        33
33.140        53
33.150        47
33.160        33
33.170         7
33.180        40
33.190        67
33.200        27
33.210        27
33.220        40
33.230        27
33.240        33
33.250        33
33.260        27
33.270        13
33.280        40
33.290        47
33.300        13
33.310        27
33.320        40
33.330        27
33.340        40
33.350        33
33.360        40
33.370        27
33.380        47
33.390        40
33.400        53
33.410        33
33.420        40
33.430        47
33.440        53
33.450        40
33.460        27
33.470        20
33.480        47
33.490        47
33.500        33
33.510        60
33.520        47
33.530        47
33.540        73
33.550        33
33.560        47
33.570        53
33.580        47
33.590        60
33.600        27
33.610        20
33.620        40
33.630        47
33.640        47
33.650        47
33.660        47
33.670        33
33.680        20
33.690        27
33.700        27
33.710        27
33.720        47
33.730        27
33.740         7
33.750        47
33.760        27
33.770        53
33.780        47
33.790        33
33.800        60
33.810        53
33.820        20
33.830        40
33.840        40
33.850        73
33.860        53
33.870        67
33.880        53
33.890        33
33.900        40
33.910        13
33.920        20
33.930         7
33.940        33
33.950        33
33.960        27
33.970        47
33.980        47
33.990        47
34.000        40
34.010        20
34.020        33
34.030        47
34.040        47
34.050        47
34.060        47
34.070        40
34.080        33
34.090        20
34.100        33
34.110        33
34.120        40
34.130        13
34.140        40
34.150        47
34.160        40
34.170        27
34.180        33
34.190        53
34.200        33
34.210        33
34.220        47
34.230        47
34.240         0
34.250        27
34.260        27
34.270        53
34.280        27
34.290        33
34.300        27
34.310         7
34.320        40
34.330        27
34.340        53
34.350        13
34.360        40
34.370        53
34.380        33
34.390        27
34.400        40
34.410        73
34.420        60
34.430        33
34.440        53
34.450        60
34.460        20
34.470        20
34.480        60
34.490        27
34.500        47
34.510        13
34.520        53
34.530        27
34.540        20
34.550        27
34.560        40
34.570        20
34.580        40
34.590        20
34.600        53
34.610        60
34.620        40
34.630        53
34.640        27
34.650        40
34.660        60
34.670        13
34.680        53
34.690        27
34.700        40
34.710        60
34.720        47
34.730        27
34.740        47
34.750        27
34.760        33
34.770        53
34.780        67
34.790        53
34.800        60
34.810        33
34.820        47
34.830        27
34.840        40
34.850        33
34.860        13
34.870        67
34.880        27
34.890        47
34.900        47
34.910        27
34.920        33
34.930        73
34.940        47
34.950        47
34.960        33
34.970        33
34.980        40
34.990        40
35.000        20
35.010        53
35.020        33
35.030        67
35.040        20
35.050        40
35.060        33
35.070        33
35.080        80
35.090        40
35.100        33
35.110        53
35.120        40
35.130        33
35.140        20
35.150        40
35.160        40
35.170        20
35.180        40
35.190        27
35.200        47
35.210        47
35.220        20
35.230        33
35.240        27
35.250        53
35.260        27
35.270        40
35.280        47
35.290        47
35.300        33
35.310        53
35.320        87
35.330        67
35.340        27
35.350        20
35.360        13
35.370        20
35.380        60
35.390        33
35.400        33
35.410        33
35.420        20
35.430        33
35.440        47
35.450        67
35.460        60
35.470        20
35.480        33
35.490        27
35.500        20
35.510        47
35.520        33
35.530        33
35.540        53
35.550        73
35.560        67
35.570        27
35.580        47
35.590        40
35.600        40
35.610        53
35.620        67
35.630        33
35.640        20
35.650        60
35.660        40
35.670        33
35.680        67
35.690        73
35.700        47
35.710        47
35.720        27
35.730        13
35.740        20
35.750        47
35.760         7
35.770        53
35.780        53
35.790        40
35.800        40
35.810        73
35.820        33
35.830        47
35.840        53
35.850        33
35.860        73
35.870        33
35.880        27
35.890        33
35.900        40
35.910        47
35.920        27
35.930        20
35.940        47
35.950        40
35.960        33
35.970        27
35.980        20
35.990        27
36.000        33
36.010        27
36.020        40
36.030        40
36.040        20
36.050        67
36.060        33
36.070        67
36.080        47
36.090        47
36.100        60
36.110        40
36.120        40
36.130        13
36.140        20
36.150        53
36.160        20
36.170        20
36.180        53
36.190        20
36.200        20
36.210        33
36.220        20
36.230        13
36.240        53
36.250        60
36.260        40
36.270        27
36.280        67
36.290        13
36.300        47
36.310        73
36.320        67
36.330         7
36.340        53
36.350        53
36.360        67
36.370        47
36.380        80
36.390        53
36.400        60
36.410        53
36.420        53
36.430        40
36.440        67
36.450        47
36.460        40
36.470        33
36.480        27
36.490        20
36.500        40
36.510        27
36.520        60
36.530        80
36.540        33
36.550        53
36.560        27
36.570        60
36.580        13
36.590        20
36.600        40
36.610        60
36.620        33
36.630        20
36.640        60
36.650        47
36.660        13
36.670        73
36.680        27
36.690        13
36.700        53
36.710        60
36.720        27
36.730        33
36.740        33
36.750        27
36.760        47
36.770        47
36.780        20
36.790        67
36.800        60
36.810        47
36.820        40
36.830        40
36.840        40
36.850        40
36.860        40
36.870        67
36.880        60
36.890        27
36.900        40
36.910        27
36.920        60
36.930        53
36.940        67
36.950        33
36.960        40
36.970        60
36.980        20
36.990        53
37.000        47
37.010        33
37.020        73
37.030        60
37.040        47
37.050        27
37.060        27
37.070        33
37.080        20
37.090        33
37.100        47
37.110        67
37.120        60
37.130        33
37.140        27
37.150        53
37.160        60
37.170        60
37.180        60
37.190        40
37.200        73
37.210        53
37.220        20
37.230        53
37.240        47
37.250        40
37.260        87
37.270        47
37.280        27
37.290        53
37.300        60
37.310        33
37.320        53
37.330        40
37.340        40
37.350        47
37.360        53
37.370        60
37.380        40
37.390        67
37.400        40
37.410        53
37.420        53
37.430        20
37.440        47
37.450        40
37.460        33
37.470        27
37.480        27
37.490        60
37.500        33
37.510        87
37.520        67
37.530        60
37.540        60
37.550        73
37.560        80
37.570        27
37.580        27
37.590        47
37.600        60
37.610        33
37.620        33
37.630        20
37.640        27
37.650        73
37.660        53
37.670        53
37.680        47
37.690        33
37.700        33
37.710        67
37.720        47
37.730        27
37.740        60
37.750         7
37.760        53
37.770        13
37.780        27
37.790        13
37.800        47
37.810        73
37.820        47
37.830        53
37.840        53
37.850        40
37.860        47
37.870        27
37.880        40
37.890         7
37.900        53
37.910        53
37.920        40
37.930        33
37.940        33
37.950        47
37.960        20
37.970        67
37.980        33
37.990        67
38.000        40
38.010        27
38.020        80
38.030        60
38.040        80
38.050        33
38.060        67
38.070        27
38.080        47
38.090        27
38.100        73
38.110        20
38.120        53
38.130        40
38.140        53
38.150        27
38.160        73
38.170        67
38.180        73
38.190        20
38.200        20
38.210        67
38.220        33
38.230        40
38.240        80
38.250        67
38.260        27
38.270        80
38.280        13
38.290        20
38.300        60
38.310        40
38.320        87
38.330        27
38.340        27
38.350        33
38.360        67
38.370        60
38.380        67
38.390        40
38.400        33
38.410        47
38.420        40
38.430        27
38.440        20
38.450        53
38.460        47
38.470        47
38.480        40
38.490        40
38.500        33
38.510        27
38.520        47
38.530        27
38.540        53
38.550        40
38.560        47
38.570        27
38.580        33
38.590        33
38.600        13
38.610        27
38.620        53
38.630        67
38.640        40
38.650        33
38.660        53
38.670        60
38.680        53
38.690        47
38.700        33
38.710        47
38.720        33
38.730        60
38.740        60
38.750        20
38.760        40
38.770        60
38.780        53
38.790        27
38.800        80
38.810        53
38.820        47
38.830        27
38.840        33
38.850        27
38.860        20
38.870        67
38.880        27
38.890        40
38.900        53
38.910        33
38.920        53
38.930        47
38.940        60
38.950        40
38.960        33
38.970        47
38.980        27
38.990        60
39.000        53
39.010        27
39.020        53
39.030        53
39.040        40
39.050        73
39.060        33
39.070        67
39.080        27
39.090        33
39.100        47
39.110        60
39.120        27
39.130        40
39.140        67
39.150        40
39.160        47
39.170        33
39.180        73
39.190        53
39.200        33
39.210        67
39.220        40
39.230        40
39.240        27
39.250        60
39.260        47
39.270        33
39.280        40
39.290        27
39.300        47
39.310        33
39.320        27
39.330        47
39.340        33
39.350        47
39.360        60
39.370        53
39.380        67
39.390        53
39.400        47
39.410        13
39.420        53
39.430        27
39.440        33
39.450        60
39.460        27
39.470        40
39.480        40
39.490        53
39.500        33
39.510        73
39.520        40
39.530        33
39.540       100
39.550        67
39.560        73
39.570        20
39.580        53
39.590        53
39.600        53
39.610        33
39.620        73
39.630        20
39.640        40
39.650        40
39.660        27
39.670        73
39.680        53
39.690        67
39.700        73
39.710        53
39.720        27
39.730        47
39.740        33
39.750        20
39.760        40
39.770        40
39.780        53
39.790        47
39.800        53
39.810        53
39.820        53
39.830        33
39.840        47
39.850        60
39.860        93
39.870       100
39.880        53
39.890        53
39.900       100
39.910       140
39.920        87
39.930        40
39.940        60
39.950       113
39.960        73
39.970        93
39.980       107
39.990        67
40.000        93
40.010        93
40.020       120
40.030        67
40.040       113
40.050        73
40.060        40
40.070        53
40.080        60
40.090        53
40.100       147
40.110       100
40.120        53
40.130        60
40.140        87
40.150        80
40.160        40
40.170        27
40.180        87
40.190        40
40.200        73
40.210        47
40.220        60
40.230        60
40.240        53
40.250        47
40.260        33
40.270        60
40.280        53
40.290        73
40.300        60
40.310        67
40.320        40
40.330        27
40.340        40
40.350        40
40.360        53
40.370        60
40.380        53
40.390        53
40.400        20
40.410        33
40.420        87
40.430        60
40.440        67
40.450        40
40.460        53
40.470        47
40.480        33
40.490        40
40.500        47
40.510        20
40.520        53
40.530        33
40.540        27
40.550        40
40.560        73
40.570        40
40.580        47
40.590        53
40.600        73
40.610        27
40.620        47
40.630        73
40.640        60
40.650        53
40.660        73
40.670        53
40.680        67
40.690        47
40.700        60
40.710        67
40.720        40
40.730        47
40.740        67
40.750        67
40.760        47
40.770        47
40.780        33
40.790        60
40.800        20
40.810        53
40.820        40
40.830        53
40.840        47
40.850        40
40.860        47
40.870        60
40.880        60
40.890        20
40.900        33
40.910        47
40.920        33
40.930        40
40.940        27
40.950        40
40.960        33
40.970        53
40.980        47
40.990        53
41.000        33
41.010        33
41.020        67
41.030        73
41.040        40
41.050        53
41.060        27
41.070        33
41.080        80
41.090        47
41.100        60
41.110        87
41.120        80
41.130        67
41.140        33
41.150        47
41.160        40
41.170        20
41.180        93
41.190        73
41.200        53
41.210        47
41.220        80
41.230        53
41.240        53
41.250        53
41.260        47
41.270        60
41.280        60
41.290        47
41.300        53
41.310        67
41.320        20
41.330        60
41.340        47
41.350        53
41.360        67
41.370        67
41.380        67
41.390        80
41.400        53
41.410        47
41.420        60
41.430        73
41.440        67
41.450        47
41.460       107
41.470        53
41.480        53
41.490        73
41.500        53
41.510       100
41.520        40
41.530        60
41.540        53
41.550        67
41.560        67
41.570        93
41.580        53
41.590        53
41.600        53
41.610        47
41.620       107
41.630        67
41.640        80
41.650        80
41.660        93
41.670        80
41.680       100
41.690        67
41.700        80
41.710        53
41.720        67
41.730        73
41.740        67
41.750       100
41.760        53
41.770       113
41.780        93
41.790        73
41.800        80
41.810       113
41.820        87
41.830       100
41.840        47
41.850        67
41.860       100
41.870        93
41.880        67
41.890        80
41.900        27
41.910        67
41.920        53
41.930       120
41.940        60
41.950        60
41.960       107
41.970        53
41.980        47
41.990        93
42.000        80
42.010        67
42.020        93
42.030        93
42.040        60
42.050        60
42.060        47
42.070        53
42.080        53
42.090        73
42.100        73
42.110        67
42.120        27
42.130        40
42.140        53
42.150        67
42.160        33
42.170        60
42.180        27
42.190        27
42.200        67
42.210        40
42.220        60
42.230        53
42.240        60
42.250        40
42.260        27
42.270        60
42.280        60
42.290        27
42.300         7
42.310        53
42.320        60
42.330        53
42.340        47
42.350        47
42.360        40
42.370        73
42.380        67
42.390        60
42.400        27
42.410        80
42.420        47
42.430        53
42.440        73
42.450        73
42.460        60
42.470        33
42.480        27
42.490        47
42.500        87
42.510        53
42.520        67
42.530        53
42.540        73
42.550        40
42.560        47
42.570        53
42.580        67
42.590        40
42.600        87
42.610        60
42.620        67
42.630        87
42.640        47
42.650        73
42.660        67
42.670        60
42.680        47
42.690        47
42.700        33
42.710        60
42.720        67
42.730        93
42.740        40
42.750        47
42.760        47
42.770        47
42.780        20
42.790        87
42.800        53
42.810        80
42.820        20
42.830        67
42.840        47
42.850        40
42.860        47
42.870        40
42.880        27
42.890        60
42.900        40
42.910        60
42.920        73
42.930        53
42.940        53
42.950        67
42.960        67
42.970        40
42.980        33
42.990        40
43.000        73
43.010        53
43.020        73
43.030        87
43.040        87
43.050        53
43.060        67
43.070        27
43.080        53
43.090        67
43.100        60
43.110        33
43.120        40
43.130        47
43.140        73
43.150        73
43.160        47
43.170        47
43.180        47
43.190        33
43.200        60
43.210        33
43.220        60
43.230        67
43.240        60
43.250        53
43.260        53
43.270        47
43.280        27
43.290        27
43.300        33
43.310        67
43.320        47
43.330        40
43.340        33
43.350        87
43.360        60
43.370        40
43.380        20
43.390        40
43.400        73
43.410        53
43.420        53
43.430        53
43.440        80
43.450        53
43.460        80
43.470        67
43.480        20
43.490        40
43.500        53
43.510        33
43.520        80
43.530        20
43.540        60
43.550        73
43.560        40
43.570        53
43.580        20
43.590        53
43.600        40
43.610        53
43.620        47
43.630        27
43.640        40
43.650        47
43.660        47
43.670        53
43.680        73
43.690        60
43.700        93
43.710        33
43.720        40
43.730        53
43.740        20
43.750        60
43.760        27
43.770        27
43.780        33
43.790        47
43.800        60
43.810        73
43.820        40
43.830        60
43.840        60
43.850        67
43.860        20
43.870        73
43.880        73
43.890        80
43.900        47
43.910        60
43.920        33
43.930        47
43.940        40
43.950        33
43.960        53
43.970        60
43.980        47
43.990        47
44.000        87
44.010        53
44.020        67
44.030        40
44.040        40
44.050        53
44.060        87
44.070        27
44.080        93
44.090        40
44.100        47
44.110        60
44.120        67
44.130        33
44.140        60
44.150        40
44.160        67
44.170        47
44.180        87
44.190        20
44.200        67
44.210        80
44.220        20
44.230        73
44.240        53
44.250        53
44.260        60
44.270        13
44.280        53
44.290        47
44.300        80
44.310        47
44.320        40
44.330        53
44.340        33
44.350        47
44.360        60
44.370        67
44.380        40
44.390        33
44.400        13
44.410        47
44.420        80
44.430        40
44.440        80
44.450        53
44.460        87
44.470        60
44.480        60
44.490        93
44.500        47
44.510        60
44.520        40
44.530        53
44.540        53
44.550        73
44.560        33
44.570        53
44.580        67
44.590        93
44.600        60
44.610        53
44.620        73
44.630        93
44.640        53
44.650        47
44.660        47
44.670        40
44.680        87
44.690        87
44.700        67
44.710        53
44.720        67
44.730        93
44.740        60
44.750        73
44.760       100
44.770        87
44.780        60
44.790       100
44.800        53
44.810        60
44.820        53
44.830        93
44.840       120
44.850        87
44.860        53
44.870        60
44.880        47
44.890        73
44.900        87
44.910       113
44.920       113
44.930        93
44.940       113
44.950        80
44.960       107
44.970       147
44.980        93
44.990        80
45.000       127
45.010        80
45.020        60
45.030       100
45.040        80
45.050       113
45.060       127
45.070       127
45.080        87
45.090       100
45.100        80
45.110        87
45.120        93
45.130       127
45.140        93
45.150       153
45.160        93
45.170        93
45.180       153
45.190       107
45.200        60
45.210        93
45.220        53
45.230       100
45.240        93
45.250        67
45.260       120
45.270        93
45.280       133
45.290       147
45.300       127
45.310        80
45.320       133
45.330       113
45.340       127
45.350       147
45.360       120
45.370       147
45.380       173
45.390       147
45.400       113
45.410       127
45.420        73
45.430        93
45.440       153
45.450       140
45.460       120
45.470        93
45.480       107
45.490        80
45.500       127
45.510       147
45.520       153
45.530       133
45.540       153
45.550       207
45.560        93
45.570       193
45.580       133
45.590       173
45.600       147
45.610       153
45.620       160
45.630       120
45.640       107
45.650       113
45.660       173
45.670       173
45.680       220
45.690       187
45.700       200
45.710       167
45.720       160
45.730       227
45.740       207
45.750       207
45.760       173
45.770       193
45.780       207
45.790       200
45.800       307
45.810       307
45.820       247
45.830       267
45.840       247
45.850       260
45.860       287
45.870       227
45.880       340
45.890       253
45.900       273
45.910       360
45.920       420
45.930       333
45.940       340
45.950       486
45.960       426
45.970       446
45.980       360
45.990       453
46.000       440
46.010       440
46.020       580
46.030       520
46.040       620
46.050       773
46.060       733
46.070       833
46.080       840
46.090       726
46.100       893
46.110       960
46.120       993
46.130      1000
46.140      1266
46.150      1186
46.160      1353
46.170      1426
46.180      1373
46.190      1293
46.200      1673
46.210      1746
46.220      2199
46.230      2266
46.240      2386
46.250      2372
46.260      2752
46.270      2866
46.280      2726
46.290      3685
46.300      3305
46.310      3765
46.320      4072
46.330      4418
46.340      4385
46.350      5191
46.360      5031
46.370      5005
46.380      5305
46.390      5591
46.400      5591
46.410      6397
46.420      6144
46.430      6158
46.440      6517
46.450      6637
46.460      6357
46.470      6751
46.480      6397
46.490      6611
46.500      6397
46.510      6171
46.520      6144
46.530      5964
46.540      6044
46.550      5804
46.560      5844
46.570      5444
46.580      5358
46.590      4911
46.600      4718
46.610      4545
46.620      4512
46.630      3972
46.640      3958
46.650      3505
46.660      3639
46.670      3452
46.680      3119
46.690      2846
46.700      2559
46.710      2479
46.720      2559
46.730      1953
46.740      1799
46.750      2006
46.760      1513
46.770      1473
46.780      1686
46.790      1539
46.800      1193
46.810      1220
46.820      1286
46.830      1120
46.840      1200
46.850       966
46.860       886
46.870       880
46.880       700
46.890       906
46.900       713
46.910       640
46.920       706
46.930       593
46.940       733
46.950       520
46.960       506
46.970       673
46.980       446
46.990       453
47.000       613
47.010       533
47.020       446
47.030       367
47.040       540
47.050       413
47.060       453
47.070       413
47.080       480
47.090       446
47.100       506
47.110       600
47.120       653
47.130       680
47.140      1106
47.150      1233
47.160      1373
47.170      1539
47.180      1919
47.190      1959
47.200      1866
47.210      1893
47.220      1606
47.230      1399
47.240      1093
47.250       813
47.260       666
47.270       646
47.280       486
47.290       387
47.300       340
47.310       320
47.320       307
47.330       273
47.340       253
47.350       280
47.360       247
47.370       280
47.380       287
47.390       207
47.400       233
47.410       240
47.420       247
47.430       293
47.440       213
47.450       213
47.460       167
47.470       153
47.480       207
47.490       213
47.500       147
47.510       167
47.520       180
47.530       207
47.540       173
47.550       173
47.560       140
47.570       127
47.580       120
47.590       233
47.600       207
47.610       153
47.620       167
47.630       133
47.640       107
47.650       140
47.660       127
47.670       147
47.680       133
47.690       133
47.700       120
47.710       120
47.720       120
47.730        93
47.740       113
47.750       153
47.760       100
47.770       107
47.780       120
47.790        93
47.800        87
47.810       100
47.820       133
47.830       173
47.840        93
47.850       107
47.860        87
47.870       127
47.880        73
47.890       120
47.900       140
47.910        87
47.920       113
47.930       120
47.940       107
47.950        67
47.960       100
47.970       107
47.980        67
47.990       120
48.000        53
48.010        53
48.020        80
48.030        80
48.040        93
48.050        80
48.060       100
48.070       107
48.080        67
48.090       100
48.100        93
48.110       127
48.120       133
48.130       100
48.140        93
48.150       107
48.160        93
48.170        80
48.180       120
48.190        87
48.200        93
48.210       120
48.220        80
48.230        93
48.240        60
48.250       113
48.260        60
48.270        93
48.280        80
48.290       100
48.300       100
48.310       113
48.320       113
48.330        80
48.340        73
48.350       127
48.360        67
48.370        53
48.380        73
48.390        87
48.400       107
48.410        53
48.420        80
48.430        60
48.440        87
48.450        87
48.460        73
48.470        80
48.480        80
48.490       113
48.500       100
48.510       100
48.520        67
48.530        80
48.540        80
48.550        73
48.560        73
48.570       120
48.580        73
48.590       133
48.600        53
48.610        87
48.620        73
48.630        40
48.640        73
48.650        87
48.660       113
48.670       100
48.680        93
48.690        80
48.700       113
48.710       113
48.720        87
48.730       100
48.740        80
48.750        53
48.760       100
48.770        40
48.780        80
48.790        73
48.800        80
48.810        93
48.820        60
48.830        80
48.840        60
48.850        87
48.860        87
48.870        80
48.880        80
48.890        80
48.900        73
48.910        60
48.920        67
48.930        67
48.940       100
48.950        93
48.960        80
48.970       120
48.980        80
48.990        60
49.000       127
49.010       100
49.020        67
49.030        93
49.040        93
49.050        47
49.060       100
49.070        93
49.080        93
49.090        60
49.100        80
49.110        60
49.120        73
49.130        80
49.140        80
49.150        47
49.160        93
49.170       133
49.180        80
49.190        73
49.200        73
49.210       100
49.220        80
49.230        40
49.240        53
49.250        80
49.260        53
49.270        67
49.280        93
49.290       113
49.300        73
49.310        53
49.320        47
49.330        67
49.340        47
49.350        73
49.360        67
49.370       100
49.380       107
49.390        67
49.400        73
49.410        80
49.420        73
49.430        93
49.440       107
49.450        67
49.460        67
49.470        67
49.480        73
49.490        33
49.500        67
49.510       100
49.520        67
49.530        60
49.540        87
49.550        60
49.560        60
49.570        87
49.580        67
49.590        87
49.600        67
49.610        47
49.620       120
49.630        80
49.640        80
49.650        80
49.660       100
49.670        60
49.680        47
49.690        33
49.700        93
49.710        80
49.720        60
49.730        87
49.740       107
49.750       100
49.760       113
49.770       100
49.780        73
49.790        67
49.800       120
49.810        60
49.820        93
49.830        67
49.840        87
49.850        73
49.860       100
49.870        93
49.880        93
49.890        87
49.900        40
49.910       113
49.920        53
49.930        80
49.940        80
49.950        73
49.960        60
49.970        33
49.980        87
49.990        80
50.000        53
50.010        60
50.020       113
50.030        60
50.040        40
50.050        87
50.060       107
50.070        53
50.080       100
50.090        67
50.100        47
50.110        67
50.120        80
50.130        53
50.140       113
50.150        80
50.160        87
50.170        47
50.180        47
50.190       147
50.200        73
50.210        60
50.220        87
50.230        67
50.240       120
50.250        67
50.260       107
50.270       100
50.280        47
50.290        73
50.300        93
50.310        67
50.320        87
50.330        80
50.340        67
50.350        53
50.360        47
50.370        73
50.380        73
50.390        60
50.400        60
50.410        67
50.420        80
50.430        53
50.440        73
50.450        87
50.460        73
50.470        80
50.480        67
50.490        60
50.500        87
50.510        80
50.520        80
50.530        73
50.540        67
50.550        67
50.560        87
50.570        80
50.580        67
50.590        87
50.600        93
50.610       120
50.620       107
50.630       173
50.640       153
50.650       180
50.660       267
50.670       267
50.680       333
50.690       373
50.700       327
50.710       420
50.720       453
50.730       407
50.740       506
50.750       426
50.760       413
50.770       480
50.780       440
50.790       426
50.800       513
50.810       486
50.820       446
50.830       420
50.840       553
50.850       593
50.860       606
50.870       473
50.880       533
50.890       520
50.900       486
50.910       540
50.920       580
50.930       453
50.940       440
50.950       606
50.960       526
50.970       560
50.980       580
50.990       573
51.000       473
51.010       413
51.020       486
51.030       440
51.040       393
51.050       473
51.060       533
51.070       466
51.080       460
51.090       520
51.100       553
51.110       546
51.120       486
51.130       460
51.140       440
51.150       513
51.160       460
51.170       420
51.180       566
51.190       446
51.200       480
51.210       506
51.220       400
51.230       526
51.240       506
51.250       480
51.260       460
51.270       473
51.280       486
51.290       500
51.300       486
51.310       426
51.320       500
51.330       480
51.340       446
51.350       560
51.360       546
51.370       540
51.380       446
51.390       586
51.400       533
51.410       500
51.420       573
51.430       526
51.440       480
51.450       613
51.460       553
51.470       446
51.480       480
51.490       566
51.500       573
51.510       433
51.520       606
51.530       520
51.540       513
51.550       660
51.560       560
51.570       446
51.580       660
51.590       553
51.600       633
51.610       600
51.620       500
51.630       506
51.640       586
51.650       580
51.660       633
51.670       533
51.680       573
51.690       626
51.700       560
51.710       480
51.720       740
51.730       586
51.740       573
51.750       640
51.760       626
51.770       613
51.780       633
51.790       566
51.800       480
51.810       673
51.820       533
51.830       500
51.840       573
51.850       666
51.860       626
51.870       560
51.880       686
51.890       653
51.900       720
51.910       673
51.920       620
51.930       713
51.940       700
51.950       680
51.960       533
51.970       626
51.980       686
51.990       646
52.000       733
52.010       733
52.020       706
52.030       786
52.040       846
52.050       866
52.060       713
52.070       753
52.080       720
52.090       833
52.100       873
52.110       753
52.120       833
52.130       853
52.140       933
52.150       973
52.160       946
52.170      1026
52.180      1013
52.190       980
52.200      1013
52.210      1133
52.220      1020
52.230      1293
52.240      1479
52.250      1539
52.260      1699
52.270      1866
52.280      2126
52.290      2299
52.300      2806
52.310      3285
52.320      3552
52.330      3765
52.340      3612
52.350      4165
52.360      3992
52.370      3972
52.380      4152
52.390      4052
52.400      4138
52.410      4618
52.420      4292
52.430      4698
52.440      5438
52.450      6257
52.460      7137
52.470      8936
52.480     11242
52.490     14561
52.500     18799
52.510     25950
52.520     37865
52.530     57517
52.540     87812
52.550    126036
52.560    159849
52.570    185273
52.580    201220
52.590    204951
52.600    201333
52.610    189304
52.620    164661
52.630    129215
52.640     95142
52.650     69892
52.660     56024
52.670     53059
52.680     62355
52.690     80501
52.700     98887
52.710    114108
52.720    122871
52.730    127716
52.740    123817
52.750    114554
52.760     97828
52.770     74837
52.780     53199
52.790     36692
52.800     24257
52.810     17373
52.820     13355
52.830     10836
52.840      9450
52.850      8916
52.860      7797
52.870      6497
52.880      6311
52.890      5638
52.900      4538
52.910      3425
52.920      3419
52.930      2772
52.940      2492
52.950      2286
52.960      2379
52.970      2146
52.980      1879
52.990      1806
53.000      1586
53.010      1706
53.020      1513
53.030      1513
53.040      1486
53.050      1433
53.060      1339
53.070      1466
53.080      1326
53.090      1206
53.100      1046
53.110      1060
53.120      1066
53.130      1046
53.140      1020
53.150       913
53.160      1000
53.170       853
53.180       940
53.190      1073
53.200       960
53.210       900
53.220       853
53.230       866
53.240      1026
53.250       826
53.260       726
53.270       913
53.280       833
53.290       673
53.300       626
53.310       620
53.320       820
53.330       753
53.340       826
53.350       686
53.360       680
53.370       720
53.380       666
53.390       640
53.400       726
53.410       580
53.420       540
53.430       673
53.440       640
53.450       593
53.460       613
53.470       713
53.480       673
53.490       680
53.500       573
53.510       453
53.520       746
53.530       500
53.540       586
53.550       606
53.560       626
53.570       646
53.580       580
53.590       580
53.600       653
53.610       580
53.620       520
53.630       540
53.640       526
53.650       680
53.660       613
53.670       586
53.680       433
53.690       626
53.700       513
53.710       493
53.720       473
53.730       466
53.740       566
53.750       513
53.760       513
53.770       426
53.780       546
53.790       426
53.800       466
53.810       466
53.820       446
53.830       446
53.840       506
53.850       407
53.860       393
53.870       493
53.880       420
53.890       500
53.900       513
53.910       500
53.920       540
53.930       453
53.940       426
53.950       426
53.960       460
53.970       466
53.980       506
53.990       333
54.000       420
54.010       433
54.020       440
54.030       440
54.040       433
54.050       380
54.060       486
54.070       413
54.080       340
54.090       500
54.100       387
54.110       260
54.120       473
54.130       426
54.140       400
54.150       393
54.160       347
54.170       433
54.180       446
54.190       360
54.200       320
54.210       353
54.220       333
54.230       453
54.240       393
54.250       393
54.260       426
54.270       473
54.280       373
54.290       393
54.300       347
54.310       380
54.320       413
54.330       393
54.340       420
54.350       307
54.360       413
54.370       353
54.380       440
54.390       387
54.400       327
54.410       353
54.420       380
54.430       393
54.440       420
54.450       433
54.460       420
54.470       340
54.480       340
54.490       420
54.500       360
54.510       400
54.520       340
54.530       353
54.540       420
54.550       367
54.560       433
54.570       320
54.580       353
54.590       393
54.600       353
54.610       413
54.620       367
54.630       347
54.640       320
54.650       327
54.660       420
54.670       367
54.680       300
54.690       373
54.700       327
54.710       373
54.720       293
54.730       300
54.740       360
54.750       313
54.760       320
54.770       360
54.780       273
54.790       327
54.800       347
54.810       293
54.820       327
54.830       426
54.840       347
54.850       267
54.860       333
54.870       300
54.880       340
54.890       327
54.900       347
54.910       353
54.920       340
54.930       293
54.940       353
54.950       360
54.960       320
54.970       333
54.980       333
54.990       300
55.000       213
55.010       260
55.020       367
55.030       287
55.040       387
55.050       293
55.060       253
55.070       260
55.080       340
55.090       380
55.100       426
55.110       320
55.120       280
55.130       426
55.140       253
55.150       280
55.160       313
55.170       353
55.180       333
55.190       280
55.200       327
55.210       393
55.220       280
55.230       327
55.240       393
55.250       313
55.260       307
55.270       293
55.280       260
55.290       273
55.300       313
55.310       273
55.320       347
55.330       293
55.340       253
55.350       327
55.360       293
55.370       253
55.380       280
55.390       373
55.400       280
55.410       353
55.420       260
55.430       273
55.440       227
55.450       280
55.460       320
55.470       287
55.480       287
55.490       273
55.500       293
55.510       347
55.520       313
55.530       367
55.540       353
55.550       227
55.560       320
55.570       207
55.580       293
55.590       327
55.600       280
55.610       287
55.620       313
55.630       293
55.640       307
55.650       280
55.660       340
55.670       253
55.680       273
55.690       313
55.700       260
55.710       260
55.720       347
55.730       233
55.740       320
55.750       273
55.760       280
55.770       220
55.780       273
55.790       333
55.800       293
55.810       293
55.820       280
55.830       227
55.840       287
55.850       320
55.860       187
55.870       253
55.880       240
55.890       220
55.900       227
55.910       300
55.920       240
55.930       260
55.940       253
55.950       287
55.960       233
55.970       240
55.980       287
55.990       240
56.000       307
56.010       247
56.020       307
56.030       273
56.040       267
56.050       307
56.060       213
56.070       267
56.080       260
56.090       313
56.100       293
56.110       260
56.120       247
56.130       220
56.140       247
56.150       287
56.160       300
56.170       253
56.180       187
56.190       307
56.200       240
56.210       273
56.220       313
56.230       200
56.240       307
56.250       340
56.260       227
56.270       313
56.280       180
56.290       233
56.300       260
56.310       193
56.320       313
56.330       280
56.340       273
56.350       307
56.360       200
56.370       260
56.380       327
56.390       293
56.400       320
56.410       267
56.420       300
56.430       240
56.440       213
56.450       247
56.460       213
56.470       213
56.480       220
56.490       260
56.500       213
56.510       233
56.520       260
56.530       220
56.540       280
56.550       273
56.560       327
56.570       160
56.580       273
56.590       340
56.600       173
56.610       233
56.620       180
56.630       193
56.640       233
56.650       320
56.660       287
56.670       213
56.680       227
56.690       167
56.700       247
56.710       307
56.720       267
56.730       220
56.740       247
56.750       160
56.760       247
56.770       233
56.780       227
56.790       207
56.800       187
56.810       253
56.820       293
56.830       253
56.840       240
56.850       220
56.860       153
56.870       293
56.880       233
56.890       213
56.900       200
56.910       253
56.920       260
56.930       180
56.940       160
56.950       213
56.960       213
56.970       213
56.980       207
56.990       313
57.000       233
57.010       187
57.020       253
57.030       213
57.040       287
57.050       167
57.060       167
57.070       233
57.080       267
57.090       287
57.100       200
57.110       260
57.120       227
57.130       247
57.140       173
57.150       200
57.160       247
57.170       220
57.180       280
57.190       233
57.200       193
57.210       180
57.220       260
57.230       253
57.240       327
57.250       147
57.260       207
57.270       180
57.280       233
57.290       180
57.300       253
57.310       153
57.320       207
57.330       213
57.340       233
57.350       293
57.360       160
57.370       300
57.380       227
57.390       220
57.400       247
57.410       173
57.420       233
57.430       220
57.440       173
57.450       227
57.460       213
57.470       220
57.480       200
57.490       260
57.500       167
57.510       207
57.520       207
57.530       247
57.540       153
57.550       220
57.560       220
57.570       213
57.580       240
57.590       207
57.600       193
57.610       213
57.620       180
57.630       187
57.640       233
57.650       220
57.660       213
57.670       180
57.680       240
57.690       333
57.700       253
57.710       160
57.720       253
57.730       173
57.740       240
57.750       180
57.760       240
57.770       187
57.780       187
57.790       280
57.800       213
57.810       180
57.820       320
57.830       227
57.840       260
57.850       233
57.860       180
57.870       207
57.880       187
57.890       280
57.900       200
57.910       187
57.920       247
57.930       240
57.940       333
57.950       153
57.960       200
57.970       140
57.980       213
57.990       180
58.000       167
58.010       160
58.020       247
58.030       167
58.040       207
58.050       207
58.060       180
58.070       253
58.080       207
58.090       173
58.100       200
58.110       220
58.120       247
58.130       160
58.140       180
58.150       233
58.160       220
58.170       227
58.180       240
58.190       227
58.200       167
58.210       233
58.220       247
58.230       187
58.240       300
58.250       253
58.260       227
58.270       187
58.280       193
58.290       147
58.300       240
58.310       147
58.320       213
58.330       180
58.340       160
58.350       147
58.360       147
58.370       280
58.380       173
58.390       193
58.400       200
58.410       207
58.420       200
58.430       140
58.440       180
58.450       167
58.460       227
58.470       160
58.480       140
58.490       140
58.500       193
58.510       173
58.520       160
58.530       193
58.540       173
58.550       220
58.560       147
58.570       153
58.580       167
58.590       173
58.600       253
58.610       167
58.620       160
58.630       187
58.640       153
58.650       107
58.660       153
58.670       220
58.680       193
58.690       200
58.700       180
58.710       173
58.720       207
58.730       193
58.740       200
58.750       207
58.760       187
58.770       213
58.780       227
58.790       267
58.800       233
58.810       167
58.820       160
58.830       200
58.840       207
58.850       253
58.860       213
58.870       227
58.880       160
58.890       200
58.900       213
58.910       207
58.920       140
58.930       187
58.940       207
58.950       187
58.960       107
58.970       180
58.980       133
58.990       187
59.000       180
59.010       173
59.020       140
59.030       193
59.040       187
59.050       200
59.060       167
59.070       187
59.080       153
59.090       147
59.100       180
59.110       160
59.120       167
59.130       140
59.140       187
59.150       160
59.160       180
59.170       147
59.180       153
59.190       167
59.200       147
59.210       200
59.220       180
59.230       167
59.240       200
59.250       153
59.260       220
59.270       140
59.280       220
59.290       100
59.300       153
59.310       193
59.320       220
59.330       187
59.340       160
59.350       213
59.360       207
59.370       160
59.380       147
59.390       233
59.400       133
59.410       127
59.420       153
59.430       173
59.440       113
59.450       180
59.460       147
59.470       167
59.480       180
59.490       207
59.500       193
59.510       133
59.520       193
59.530       133
59.540       160
59.550       160
59.560       193
59.570       173
59.580       133
59.590       173
59.600       147
59.610       200
59.620       173
59.630       187
59.640       160
59.650       120
59.660       173
59.670       167
59.680       140
59.690       240
59.700       140
59.710       220
59.720       180
59.730       133
59.740       147
59.750       133
59.760       153
59.770       213
59.780       193
59.790       127
59.800       173
59.810       180
59.820       160
59.830       253
59.840       200
59.850       180
59.860       127
59.870       173
59.880       140
59.890       100
59.900       113
59.910       227
59.920       167
59.930       127
59.940       193
59.950       220
59.960       113
59.970       153
59.980       160
59.990        60
60.000        60
