20.000        27
20.010         0
20.020        93
20.030        40
20.040        67
20.050        13
20.060        27
20.070        40
20.080        80
20.090        27
20.100        80
20.110        40
20.120        80
20.130        27
20.140        13
20.150        53
20.160        40
20.170        53
20.180        13
20.190        27
20.200        67
20.210        53
20.220        53
20.230         0
20.240        93
20.250        27
20.260        53
20.270        40
20.280        13
20.290        40
20.300        40
20.310        80
20.320        53
20.330        13
20.340        53
20.350        13
20.360        67
20.370        67
20.380        80
20.390        67
20.400        53
20.410        40
20.420        67
20.430        53
20.440        27
20.450        40
20.460        13
20.470        40
20.480        80
20.490         0
20.500        93
20.510        40
20.520        27
20.530        40
20.540        53
20.550        27
20.560        40
20.570        80
20.580        13
20.590        40
20.600        27
20.610        13
20.620        40
20.630        27
20.640        40
20.650        27
20.660        40
20.670        53
20.680        27
20.690        27
20.700        40
20.710        40
20.720        53
20.730        53
20.740        67
20.750        40
20.760        27
20.770        27
20.780        27
20.790        80
20.800        53
20.810        53
20.820        40
20.830        27
20.840        93
20.850        27
20.860        80
20.870        13
20.880        67
20.890        27
20.900        53
20.910        67
20.920        40
20.930        67
20.940        40
20.950        40
20.960        13
20.970        13
20.980        53
20.990         0
21.000        27
21.010        40
21.020        67
21.030        53
21.040        40
21.050        53
21.060        67
21.070        27
21.080        67
21.090        40
21.100        80
21.110        40
21.120        27
21.130        53
21.140        27
21.150        53
21.160         0
21.170        80
21.180        53
21.190        67
21.200        93
21.210        67
21.220        40
21.230        27
21.240        27
21.250        67
21.260        53
21.270        40
21.280        80
21.290        53
21.300        53
21.310        53
21.320        27
21.330        27
21.340        93
21.350        67
21.360        27
21.370        80
21.380        93
21.390        40
21.400        27
21.410        27
21.420        40
21.430        27
21.440        67
21.450        27
21.460        40
21.470        40
21.480        13
21.490       107
21.500        53
21.510        80
21.520        93
21.530        67
21.540        93
21.550        67
21.560        40
21.570        40
21.580        40
21.590        93
21.600        40
21.610        27
21.620        80
21.630        13
21.640        53
21.650        53
21.660        27
21.670        67
21.680        67
21.690        53
21.700        13
21.710        13
21.720        13
21.730        13
21.740        67
21.750        53
21.760        53
21.770        27
21.780        40
21.790        27
21.800        13
21.810        40
21.820        67
21.830        40
21.840        27
21.850        53
21.860        40
21.870        53
21.880        27
21.890        27
21.900        27
21.910        27
21.920        80
21.930        40
21.940        13
21.950        53
21.960        13
21.970        67
21.980        27
21.990        13
22.000        40
22.010        40
22.020        80
22.030        53
22.040        93
22.050         0
22.060        40
22.070        67
22.080        27
22.090        27
22.100        40
22.110        53
22.120       107
22.130        40
22.140        40
22.150        80
22.160         0
22.170        27
22.180       107
22.190        13
22.200        80
22.210        40
22.220        53
22.230        27
22.240        93
22.250        13
22.260        40
22.270        53
22.280        27
22.290        27
22.300        80
22.310        53
22.320        67
22.330        53
22.340        13
22.350        13
22.360        67
22.370        53
22.380        53
22.390        80
22.400        80
22.410        53
22.420        27
22.430        27
22.440        13
22.450        80
22.460         0
22.470        13
22.480        40
22.490        40
22.500        27
22.510        27
22.520        40
22.530        53
22.540        40
22.550        53
22.560        40
22.570        67
22.580        13
22.590        67
22.600        27
22.610       107
22.620        80
22.630        27
22.640        93
22.650        40
22.660       133
22.670        40
22.680        93
22.690        67
22.700        40
22.710        67
22.720        53
22.730        53
22.740        40
22.750        67
22.760        67
22.770       107
22.780        53
22.790        40
22.800        27
22.810        40
22.820       133
22.830        67
22.840        53
22.850        93
22.860        80
22.870        80
22.880        40
22.890        67
22.900        27
22.910        67
22.920        67
22.930        53
22.940        27
22.950        13
22.960        13
22.970        40
22.980        53
22.990         0
23.000        40
23.010        67
23.020        13
23.030        53
23.040        53
23.050        27
23.060        40
23.070        40
23.080        53
23.090        53
23.100        40
23.110        27
23.120        40
23.130        67
23.140        80
23.150        67
23.160        13
23.170        53
23.180        13
23.190        40
23.200        40
23.210        13
23.220        53
23.230        67
23.240        53
23.250        67
23.260        27
23.270        53
23.280        40
23.290        67
23.300        40
23.310        27
23.320        40
23.330        80
23.340        27
23.350        67
23.360        13
23.370        40
23.380        13
23.390        40
23.400        27
23.410        40
23.420        13
23.430        67
23.440        40
23.450        53
23.460        27
23.470        40
23.480        27
23.490        40
23.500        53
23.510        53
23.520        40
23.530        40
23.540        40
23.550        80
23.560        27
23.570        53
23.580        67
23.590        53
23.600        27
23.610        53
23.620        53
23.630        27
23.640        53
23.650        53
23.660        67
23.670        13
23.680        40
23.690        53
23.700        27
23.710        53
23.720        53
23.730        27
23.740        93
23.750        27
23.760        80
23.770        40
23.780        53
23.790        40
23.800        40
23.810        40
23.820        13
23.830         0
23.840        53
23.850        40
23.860        40
23.870        53
23.880        93
23.890         0
23.900        27
23.910         0
23.920        27
23.930         0
23.940        40
23.950        80
23.960        27
23.970        27
23.980        40
23.990        67
24.000         0
24.010        13
24.020         0
24.030        40
24.040        27
24.050        40
24.060        80
24.070        67
24.080        40
24.090        80
24.100        40
24.110        13
24.120        80
24.130        40
24.140        27
24.150        53
24.160        27
24.170         0
24.180        40
24.190        53
24.200        27
24.210        13
24.220        27
24.230        53
24.240        13
24.250        53
24.260        27
24.270         0
24.280        93
24.290        13
24.300        80
24.310        13
24.320        27
24.330        53
24.340        53
24.350        80
24.360        40
24.370        13
24.380        27
24.390        53
24.400        27
24.410        53
24.420        53
24.430        13
24.440        40
24.450        40
24.460        53
24.470        40
24.480        13
24.490        27
24.500        53
24.510        53
24.520        53
24.530        40
24.540        80
24.550        27
24.560        27
24.570        40
24.580        67
24.590        40
24.600        40
24.610         0
24.620        40
24.630        27
24.640        40
24.650        27
24.660        40
24.670        67
24.680        27
24.690        27
24.700        27
24.710        27
24.720        27
24.730        27
24.740        53
24.750        40
24.760        67
24.770        13
24.780        53
24.790         0
24.800        53
24.810        53
24.820        13
24.830        67
24.840        13
24.850        40
24.860        40
24.870         0
24.880         0
24.890        13
24.900        40
24.910        53
24.920        13
24.930        27
24.940        53
24.950        27
24.960        53
24.970        13
24.980        27
24.990        27
25.000        67
25.010        53
25.020        27
25.030        40
25.040        67
25.050        67
25.060        53
25.070        53
25.080        27
25.090        53
25.100        40
25.110        40
25.120        27
25.130        27
25.140        40
25.150        53
25.160        27
25.170        40
25.180        27
25.190        27
25.200        53
25.210        53
25.220        27
25.230        40
25.240         0
25.250        13
25.260         0
25.270        53
25.280        53
25.290        40
25.300        40
25.310        93
25.320        27
25.330        93
25.340        93
25.350       120
25.360        27
25.370       147
25.380        93
25.390        27
25.400        53
25.410        27
25.420        53
25.430        53
25.440        80
25.450        80
25.460        40
25.470        93
25.480        40
25.490        53
25.500        40
25.510        80
25.520        53
25.530        80
25.540        53
25.550        53
25.560       133
25.570       120
25.580       133
25.590       213
25.600       133
25.610       133
25.620       147
25.630        80
25.640       147
25.650       147
25.660        93
25.670       147
25.680        40
25.690        67
25.700        53
25.710        40
25.720        27
25.730        40
25.740        27
25.750        67
25.760       120
25.770        27
25.780        53
25.790        80
25.800        27
25.810        40
25.820        40
25.830        27
25.840        53
25.850        27
25.860        13
25.870        13
25.880        13
25.890         0
25.900        53
25.910       107
25.920        27
25.930        13
25.940        40
25.950        13
25.960        40
25.970        27
25.980        27
25.990        27
26.000        40
26.010        67
26.020        27
26.030        53
26.040        27
26.050         0
26.060        40
26.070        13
26.080         0
26.090        53
26.100        53
26.110        27
26.120        40
26.130        53
26.140        13
26.150        53
26.160         0
26.170        27
26.180        27
26.190         0
26.200        27
26.210        67
26.220        13
26.230        27
26.240        27
26.250        53
26.260        40
26.270        13
26.280         0
26.290        13
26.300        40
26.310        40
26.320        40
26.330        13
26.340        53
26.350        40
26.360        40
26.370        53
26.380        40
26.390        13
26.400        27
26.410        53
26.420        27
26.430        53
26.440        13
26.450        27
26.460        53
26.470        27
26.480        13
26.490        53
26.500        40
26.510        27
26.520        53
26.530        27
26.540        40
26.550        27
26.560        40
26.570         0
26.580        40
26.590        40
26.600        53
26.610         0
26.620         0
26.630         0
26.640         0
26.650        13
26.660        13
26.670        13
26.680        27
26.690        67
26.700        13
26.710        80
26.720        13
26.730        40
26.740        40
26.750         0
26.760        13
26.770        27
26.780        80
26.790        13
26.800        40
26.810        27
26.820        40
26.830         0
26.840        27
26.850        27
26.860        13
26.870        27
26.880        67
26.890        13
26.900        40
26.910        40
26.920        67
26.930        53
26.940        93
26.950        40
26.960        67
26.970        27
26.980        13
26.990        53
27.000        80
27.010        40
27.020        13
27.030        27
27.040        40
27.050        53
27.060        27
27.070        53
27.080        13
27.090        13
27.100        13
27.110        27
27.120        27
27.130        13
27.140        27
27.150        40
27.160        13
27.170        13
27.180        40
27.190        40
27.200        27
27.210        27
27.220        27
27.230        13
27.240        13
27.250        27
27.260        40
27.270        27
27.280        13
27.290        53
27.300        53
27.310        80
27.320        13
27.330        67
27.340        53
27.350        13
27.360         0
27.370        40
27.380         0
27.390        40
27.400         0
27.410        40
27.420        40
27.430        27
27.440        67
27.450         0
27.460        27
27.470         0
27.480        40
27.490        27
27.500        27
27.510        53
27.520        53
27.530        53
27.540        27
27.550         0
27.560        13
27.570        40
27.580        67
27.590        27
27.600        40
27.610         0
27.620         0
27.630        27
27.640        80
27.650        67
27.660        27
27.670        13
27.680        13
27.690        27
27.700        27
27.710         0
27.720        27
27.730        93
27.740         0
27.750        40
27.760        27
27.770        27
27.780        80
27.790        67
27.800        27
27.810        13
27.820        27
27.830        53
27.840        13
27.850        27
27.860        27
27.870        27
27.880         0
27.890        40
27.900        27
27.910        40
27.920        27
27.930        27
27.940        40
27.950        53
27.960        40
27.970        40
27.980         0
27.990         0
28.000        67
28.010         0
28.020        40
28.030        67
28.040        13
28.050         0
28.060        53
28.070         0
28.080        13
28.090        13
28.100        27
28.110        13
28.120        13
28.130        13
28.140        40
28.150        27
28.160        27
28.170        13
28.180        67
28.190        53
28.200        40
28.210        67
28.220        13
28.230        13
28.240        27
28.250        27
28.260        40
28.270        13
28.280        27
28.290        13
28.300        13
28.310        40
28.320        13
28.330        27
28.340        13
28.350        13
28.360        40
28.370        13
28.380        13
28.390        40
28.400        13
28.410        27
28.420        13
28.430        40
28.440        40
28.450        40
28.460        27
28.470        53
28.480        13
28.490         0
28.500        27
28.510        40
28.520        13
28.530        13
28.540        53
28.550        13
28.560         0
28.570        53
28.580        13
28.590        27
28.600         0
28.610        13
28.620        13
28.630        27
28.640        13
28.650        40
28.660        80
28.670        27
28.680        27
28.690         0
28.700        40
28.710        27
28.720        13
28.730        13
28.740        13
28.750        40
28.760        13
28.770        40
28.780         0
28.790        53
28.800        67
28.810        53
28.820        53
28.830        40
28.840         0
28.850        67
28.860        13
28.870        13
28.880        13
28.890        53
28.900        53
28.910        13
28.920         0
28.930        13
28.940        27
28.950        53
28.960        53
28.970        53
28.980        80
28.990        40
29.000        40
29.010        27
29.020        53
29.030        27
29.040        40
29.050        67
29.060        53
29.070        40
29.080        27
29.090        27
29.100        80
29.110        67
29.120        40
29.130        53
29.140        80
29.150        27
29.160        13
29.170        93
29.180        27
29.190        80
29.200        13
29.210        13
29.220        53
29.230        67
29.240        53
29.250        13
29.260        13
29.270        13
29.280        13
29.290        13
29.300        13
29.310        13
29.320        27
29.330        40
29.340         0
29.350        40
29.360        40
29.370        27
29.380        40
29.390        53
29.400        53
29.410        27
29.420        27
29.430        40
29.440        27
29.450        40
29.460        27
29.470        53
29.480        27
29.490        40
29.500        40
29.510        40
29.520        40
29.530        13
29.540        67
29.550        13
29.560        67
29.570         0
29.580        27
29.590        13
29.600        40
29.610        27
29.620         0
29.630        27
29.640        53
29.650        27
29.660        27
29.670        27
29.680        40
29.690         0
29.700        53
29.710        13
29.720         0
29.730        13
29.740        27
29.750        27
29.760        27
29.770        13
29.780        53
29.790        53
29.800        40
29.810         0
29.820        27
29.830        27
29.840        27
29.850        13
29.860        13
29.870        13
29.880        40
29.890        53
29.900        40
29.910        27
29.920        27
29.930        53
29.940        40
29.950        40
29.960        27
29.970        27
29.980        27
29.990         0
30.000        40
30.010        53
30.020        67
30.030        13
30.040        13
30.050        67
30.060         0
30.070         0
30.080        13
30.090        67
30.100        40
30.110        27
30.120        40
30.130        13
30.140        53
30.150        40
30.160        13
30.170        27
30.180         0
30.190        40
30.200        27
30.210        27
30.220        27
30.230        13
30.240        27
30.250        40
30.260        40
30.270         0
30.280        13
30.290        27
30.300        13
30.310        27
30.320        27
30.330        13
30.340        40
30.350        40
30.360        13
30.370        27
30.380        27
30.390        27
30.400         0
30.410        27
30.420        40
30.430        27
30.440        27
30.450         0
30.460         0
30.470        27
30.480        13
30.490         0
30.500        53
30.510        13
30.520        13
30.530        27
30.540        40
30.550        27
30.560        53
30.570        40
30.580        40
30.590        40
30.600        27
30.610        13
30.620        40
30.630        53
30.640        13
30.650        40
30.660        67
30.670        13
30.680        27
30.690         0
30.700        53
30.710        13
30.720         0
30.730        27
30.740        27
30.750        13
30.760        27
30.770        27
30.780        27
30.790        13
30.800        27
30.810        13
30.820        27
30.830        13
30.840        13
30.850         0
30.860        40
30.870        13
30.880        13
30.890        27
30.900         0
30.910        53
30.920        13
30.930        93
30.940        13
30.950        67
30.960        40
30.970        53
30.980        40
30.990        27
31.000        40
31.010        27
31.020        27
31.030        53
31.040        13
31.050        40
31.060        53
31.070        13
31.080         0
31.090        53
31.100        40
31.110        53
31.120        53
31.130        27
31.140        27
31.150        67
31.160        40
31.170        53
31.180        27
31.190         0
31.200        40
31.210        27
31.220        40
31.230        40
31.240        67
31.250        13
31.260        67
31.270        27
31.280         0
31.290        27
31.300        13
31.310        13
31.320        80
31.330        27
31.340        53
31.350        13
31.360        40
31.370        13
31.380        53
31.390        27
31.400        53
31.410        27
31.420        67
31.430        27
31.440        27
31.450        53
31.460        40
31.470        40
31.480        13
31.490         0
31.500        80
31.510        67
31.520       107
31.530        40
31.540        13
31.550        13
31.560        40
31.570        40
31.580        53
31.590        40
31.600        53
31.610        53
31.620        27
31.630        40
31.640         0
31.650        53
31.660       107
31.670        40
31.680        53
31.690        40
31.700       107
31.710        80
31.720        53
31.730        80
31.740       107
31.750        40
31.760        67
31.770        53
31.780       120
31.790        53
31.800       107
31.810        93
31.820        80
31.830        80
31.840        27
31.850       107
31.860        80
31.870       107
31.880        93
31.890       133
31.900        67
31.910       147
31.920       147
31.930        80
31.940       107
31.950       173
31.960       120
31.970        93
31.980       213
31.990       253
32.000       240
32.010        80
32.020       187
32.030       253
32.040       160
32.050       293
32.060       200
32.070       333
32.080       400
32.090       400
32.100       440
32.110       426
32.120       506
32.130       373
32.140       533
32.150       440
32.160       640
32.170       666
32.180       666
32.190       840
32.200       906
32.210       906
32.220      1066
32.230      1013
32.240      1120
32.250      1186
32.260      1240
32.270      1359
32.280      1106
32.290      1200
32.300      1359
32.310      1306
32.320      1439
32.330      1426
32.340      1426
32.350      1426
32.360      1399
32.370      1439
32.380      1573
32.390      1573
32.400      1399
32.410      1373
32.420      1613
32.430      1146
32.440      1346
32.450      1226
32.460      1133
32.470      1200
32.480      1093
32.490       706
32.500       773
32.510       693
32.520       720
32.530       680
32.540       560
32.550       520
32.560       640
32.570       573
32.580       413
32.590       293
32.600       387
32.610       307
32.620       333
32.630       307
32.640       347
32.650       267
32.660       280
32.670       227
32.680       133
32.690       160
32.700       173
32.710       133
32.720       200
32.730       120
32.740       107
32.750        93
32.760       120
32.770        93
32.780        67
32.790        80
32.800       120
32.810       107
32.820        93
32.830        93
32.840       107
32.850        93
32.860        53
32.870        93
32.880        80
32.890        80
32.900        80
32.910        53
32.920        27
32.930        67
32.940        93
32.950        53
32.960        27
32.970        40
32.980        80
32.990        13
33.000        80
33.010        53
33.020        80
33.030        13
33.040        27
33.050        67
33.060        13
33.070        67
33.080        53
33.090        40
33.100        80
33.110        67
33.120        40
33.130        53
33.140        67
33.150        53
33.160         0
33.170        27
33.180        27
33.190        67
33.200        40
33.210        13
33.220        67
33.230        27
33.240        53
33.250       120
33.260        27
33.270        40
33.280        27
33.290         0
33.300        40
33.310        13
33.320        53
33.330        67
33.340        27
33.350        53
33.360        93
33.370        27
33.380        67
33.390         0
33.400        40
33.410        13
33.420        40
33.430        67
33.440        40
33.450        27
33.460        40
33.470        27
33.480        93
33.490        80
33.500        27
33.510        93
33.520        27
33.530        53
33.540        40
33.550        53
33.560        40
33.570        40
33.580        27
33.590        80
33.600        13
33.610        40
33.620        40
33.630        13
33.640        67
33.650        27
33.660        53
33.670        53
33.680        40
33.690        27
33.700        27
33.710        53
33.720        40
33.730        13
33.740        67
33.750        67
33.760        13
33.770        40
33.780         0
33.790        27
33.800        67
33.810        13
33.820        27
33.830        53
33.840        27
33.850        40
33.860        40
33.870        27
33.880        40
33.890        27
33.900        27
33.910        27
33.920        27
33.930        40
33.940        80
33.950        53
33.960        27
33.970        27
33.980        53
33.990        27
34.000        40
34.010        27
34.020         0
34.030        53
34.040        40
34.050        27
34.060        53
34.070        40
34.080        27
34.090        53
34.100        40
34.110        53
34.120        40
34.130         0
34.140        13
34.150        27
34.160        67
34.170        53
34.180        13
34.190        40
34.200        13
34.210        67
34.220        53
34.230        27
34.240        13
34.250        27
34.260        27
34.270         0
34.280        40
34.290        27
34.300        27
34.310         0
34.320        13
34.330        53
34.340        13
34.350        53
34.360        27
34.370        40
34.380        27
34.390        27
34.400        40
34.410        13
34.420        27
34.430        13
34.440        27
34.450        40
34.460        27
34.470        53
34.480        53
34.490        40
34.500        40
34.510         0
34.520        40
34.530        40
34.540        40
34.550        53
34.560        40
34.570         0
34.580        53
34.590        13
34.600        27
34.610        13
34.620        40
34.630        13
34.640        40
34.650        53
34.660        13
34.670        13
34.680         0
34.690        67
34.700        40
34.710         0
34.720        27
34.730        40
34.740        27
34.750        27
34.760         0
34.770        13
34.780         0
34.790        27
34.800        27
34.810        40
34.820        53
34.830        13
34.840        40
34.850        80
34.860        27
34.870        27
34.880        27
34.890        27
34.900        13
34.910        40
34.920        53
34.930        40
34.940        93
34.950        13
34.960        53
34.970        40
34.980        53
34.990        80
35.000        80
35.010        40
35.020        67
35.030        93
35.040        27
35.050        53
35.060        67
35.070        40
35.080        93
35.090       187
35.100       120
35.110       133
35.120       173
35.130       240
35.140       173
35.150       333
35.160       267
35.170       213
35.180       200
35.190       227
35.200       293
35.210       320
35.220       227
35.230       173
35.240       240
35.250       147
35.260       187
35.270       240
35.280       213
35.290       173
35.300       160
35.310       133
35.320        53
35.330       187
35.340        40
35.350        67
35.360        40
35.370        40
35.380        53
35.390         0
35.400        40
35.410        27
35.420        13
35.430        13
35.440        13
35.450        67
35.460        13
35.470        13
35.480         0
35.490        13
35.500        40
35.510        27
35.520        53
35.530        53
35.540        13
35.550        53
35.560        13
35.570        67
35.580        27
35.590        53
35.600        67
35.610        67
35.620        13
35.630        27
35.640        27
35.650        27
35.660        53
35.670        13
35.680        40
35.690        27
35.700         0
35.710        27
35.720        27
35.730        27
35.740        27
35.750        67
35.760         0
35.770        40
35.780         0
35.790        13
35.800        13
35.810        53
35.820        13
35.830        13
35.840        27
35.850        13
35.860        40
35.870        13
35.880         0
35.890        13
35.900        27
35.910        27
35.920        53
35.930        13
35.940        53
35.950         0
35.960        27
35.970        27
35.980        40
35.990        27
36.000        80
36.010        53
36.020        13
36.030        40
36.040        40
36.050         0
36.060        27
36.070        40
36.080        13
36.090         0
36.100        27
36.110       107
36.120        27
36.130        40
36.140        13
36.150        13
36.160         0
36.170        53
36.180        67
36.190        13
36.200        27
36.210        13
36.220        40
36.230        13
36.240        53
36.250        27
36.260        27
36.270        27
36.280        27
36.290        40
36.300        67
36.310        13
36.320        13
36.330        27
36.340        27
36.350        67
36.360        53
36.370        13
36.380        13
36.390         0
36.400        13
36.410        13
36.420        27
36.430        27
36.440         0
36.450        13
36.460        40
36.470        40
36.480        27
36.490        40
36.500        13
36.510        13
36.520         0
36.530        13
36.540        40
36.550        13
36.560        27
36.570        13
36.580        27
36.590        13
36.600        53
36.610        27
36.620        27
36.630        13
36.640        40
36.650         0
36.660        13
36.670        27
36.680        40
36.690         0
36.700        13
36.710        40
36.720        53
36.730        27
36.740        53
36.750        93
36.760        13
36.770        40
36.780        27
36.790         0
36.800        27
36.810        13
36.820        67
36.830        27
36.840        13
36.850        27
36.860        40
36.870        27
36.880        93
36.890        27
36.900        53
36.910        27
36.920        53
36.930        67
36.940        40
36.950        53
36.960        27
36.970        13
36.980        13
36.990        67
37.000         0
37.010        13
37.020        27
37.030        27
37.040        13
37.050        40
37.060         0
37.070        27
37.080        13
37.090         0
37.100        27
37.110        40
37.120        40
37.130        40
37.140        67
37.150        13
37.160        13
37.170        13
37.180        27
37.190         0
37.200        40
37.210         0
37.220        40
37.230        53
37.240        13
37.250        27
37.260        40
37.270        27
37.280        13
37.290        13
37.300        40
37.310        40
37.320        13
37.330        27
37.340        40
37.350        13
37.360        13
37.370        13
37.380         0
37.390         0
37.400        40
37.410        13
37.420        27
37.430         0
37.440        27
37.450         0
37.460        13
37.470        27
37.480        27
37.490        53
37.500        40
37.510        53
37.520        27
37.530        27
37.540        13
37.550        53
37.560        40
37.570         0
37.580        13
37.590        13
37.600        13
37.610        13
37.620        27
37.630        13
37.640        67
37.650        13
37.660         0
37.670        13
37.680        27
37.690        40
37.700        27
37.710        27
37.720        13
37.730        40
37.740        53
37.750        40
37.760        53
37.770        67
37.780        93
37.790        93
37.800        80
37.810        67
37.820        13
37.830        80
37.840        27
37.850         0
37.860        27
37.870        13
37.880        53
37.890        40
37.900        13
37.910        40
37.920        40
37.930         0
37.940        13
37.950        40
37.960        27
37.970        27
37.980        27
37.990        27
38.000        13
38.010        27
38.020        13
38.030        27
38.040        13
38.050        40
38.060        13
38.070        27
38.080        13
38.090         0
38.100         0
38.110        13
38.120        27
38.130         0
38.140        40
38.150        40
38.160        27
38.170        27
38.180        40
38.190        13
38.200        40
38.210         0
38.220        13
38.230        13
38.240        40
38.250        27
38.260        40
38.270        27
38.280        13
38.290        27
38.300        13
38.310        13
38.320        13
38.330        13
38.340        13
38.350         0
38.360        13
38.370        67
38.380         0
38.390        27
38.400        13
38.410        27
38.420        27
38.430        13
38.440        27
38.450        53
38.460        27
38.470        40
38.480        27
38.490        67
38.500        40
38.510        27
38.520        27
38.530        13
38.540        27
38.550        27
38.560        40
38.570        40
38.580        13
38.590        80
38.600        27
38.610         0
38.620        67
38.630        27
38.640         0
38.650        40
38.660        80
38.670         0
38.680         0
38.690        27
38.700        53
38.710        13
38.720         0
38.730        40
38.740        13
38.750        13
38.760        13
38.770        27
38.780        40
38.790        13
38.800         0
38.810        27
38.820        40
38.830        13
38.840        67
38.850        27
38.860         0
38.870        13
38.880         0
38.890        40
38.900        13
38.910        27
38.920        27
38.930        13
38.940        13
38.950        40
38.960        13
38.970         0
38.980        40
38.990        40
39.000         0
39.010        67
39.020        40
39.030        40
39.040        27
39.050        13
39.060        27
39.070        13
39.080        27
39.090        13
39.100        53
39.110        27
39.120         0
39.130        40
39.140        67
39.150        27
39.160         0
39.170        13
39.180        40
39.190        13
39.200        27
39.210        13
39.220        13
39.230        40
39.240         0
39.250        13
39.260        13
39.270        67
39.280        27
39.290        13
39.300        13
39.310         0
39.320        13
39.330        13
39.340        13
39.350        53
39.360        27
39.370        53
39.380        40
39.390        13
39.400        40
39.410        27
39.420         0
39.430        40
39.440        13
39.450        40
39.460        40
39.470        53
39.480        40
39.490        13
39.500        27
39.510        13
39.520         0
39.530        53
39.540        13
39.550         0
39.560         0
39.570        27
39.580         0
39.590        27
39.600        13
39.610        67
39.620        13
39.630        13
39.640        13
39.650        13
39.660         0
39.670        13
39.680        40
39.690         0
39.700        27
39.710        27
39.720         0
39.730         0
39.740        27
39.750        40
39.760         0
39.770        53
39.780        13
39.790         0
39.800        27
39.810        27
39.820        53
39.830        13
39.840        40
39.850        27
39.860         0
39.870        40
39.880        27
39.890        13
39.900        13
39.910        40
39.920        40
39.930        13
39.940        13
39.950        13
39.960        67
39.970        27
39.980         0
39.990        40
40.000        13
40.010        27
40.020        53
40.030        27
40.040        53
40.050        40
40.060        27
40.070        67
40.080        67
40.090        13
40.100         0
40.110        13
40.120         0
40.130        27
40.140        13
40.150        40
40.160        53
40.170         0
40.180        27
40.190        13
40.200        13
40.210        13
40.220        80
40.230        13
40.240        27
40.250        13
40.260        27
40.270        40
40.280        13
40.290        40
40.300        53
40.310        27
40.320        67
40.330        13
40.340        40
40.350        40
40.360        27
40.370        27
40.380        27
40.390        27
40.400        53
40.410        13
40.420        27
40.430        40
40.440        13
40.450        53
40.460        53
40.470         0
40.480        53
40.490        27
40.500         0
40.510        40
40.520        40
40.530        27
40.540        40
40.550        27
40.560        13
40.570         0
40.580        13
40.590        27
40.600        53
40.610         0
40.620        13
40.630        13
40.640        27
40.650        27
40.660        40
40.670        27
40.680        13
40.690        27
40.700        13
40.710         0
40.720        13
40.730         0
40.740        27
40.750         0
40.760         0
40.770         0
40.780         0
40.790        40
40.800        13
40.810        27
40.820        13
40.830        40
40.840        67
40.850        13
40.860        27
40.870         0
40.880         0
40.890         0
40.900        13
40.910         0
40.920        40
40.930        27
40.940        40
40.950        13
40.960        40
40.970        40
40.980        13
40.990         0
41.000         0
41.010        13
41.020         0
41.030        40
41.040        13
41.050        13
41.060        40
41.070        53
41.080        27
41.090        13
41.100        27
41.110        13
41.120         0
41.130        53
41.140        13
41.150        40
41.160        13
41.170        40
41.180        40
41.190        13
41.200         0
41.210        13
41.220        13
41.230        27
41.240        27
41.250        27
41.260        27
41.270        13
41.280         0
41.290        13
41.300        27
41.310        40
41.320        13
41.330        40
41.340        27
41.350         0
41.360        40
41.370        27
41.380        53
41.390        53
41.400        13
41.410        27
41.420        40
41.430        40
41.440        40
41.450        27
41.460        40
41.470        27
41.480         0
41.490        53
41.500        67
41.510        53
41.520        53
41.530        67
41.540        67
41.550        53
41.560        40
41.570       120
41.580        93
41.590        40
41.600        67
41.610       107
41.620        67
41.630        93
41.640       213
41.650       120
41.660       213
41.670       187
41.680       173
41.690       133
41.700       187
41.710       133
41.720       173
41.730       133
41.740       147
41.750        80
41.760        53
41.770        80
41.780        93
41.790       147
41.800       120
41.810        53
41.820       147
41.830        80
41.840        13
41.850        53
41.860        40
41.870        27
41.880        27
41.890        27
41.900        13
41.910        13
41.920        27
41.930        27
41.940        40
41.950        67
41.960        27
41.970        27
41.980        27
41.990        13
42.000        13
42.010        13
42.020        53
42.030        40
42.040        40
42.050        13
42.060        13
42.070         0
42.080        40
42.090        27
42.100        27
42.110        40
42.120        40
42.130         0
42.140        13
42.150        13
42.160        13
42.170        40
42.180         0
42.190        13
42.200        13
42.210        40
42.220        27
42.230        40
42.240        27
42.250        27
42.260        13
42.270        40
42.280        67
42.290        40
42.300        13
42.310         0
42.320        27
42.330        27
42.340         0
42.350        13
42.360        13
42.370        27
42.380        27
42.390        13
42.400        13
42.410        27
42.420        27
42.430         0
42.440        27
42.450        27
42.460        13
42.470        40
42.480        27
42.490        53
42.500        13
42.510        27
42.520        13
42.530         0
42.540         0
42.550        27
42.560        13
42.570        53
42.580        27
42.590        27
42.600        27
42.610        27
42.620        40
42.630        40
42.640        27
42.650        53
42.660        53
42.670        40
42.680        27
42.690        27
42.700        13
42.710        27
42.720        13
42.730        27
42.740        53
42.750        40
42.760        40
42.770        13
42.780        40
42.790        40
42.800        27
42.810        40
42.820        53
42.830        27
42.840        13
42.850        27
42.860        40
42.870        13
42.880        53
42.890        27
42.900        40
42.910        13
42.920        27
42.930        27
42.940        13
42.950        40
42.960        27
42.970        13
42.980        53
42.990        53
43.000        27
43.010        40
43.020        13
43.030        13
43.040        27
43.050        13
43.060        13
43.070        13
43.080        13
43.090        40
43.100        40
43.110        27
43.120        27
43.130        53
43.140         0
43.150        27
43.160         0
43.170        53
43.180        13
43.190        27
43.200        40
43.210        13
43.220        67
43.230        13
43.240        13
43.250        40
43.260        67
43.270        53
43.280        53
43.290       107
43.300       133
43.310       200
43.320       200
43.330       240
43.340       373
43.350       267
43.360       320
43.370       400
43.380       227
43.390       253
43.400       213
43.410       160
43.420       107
43.430       120
43.440       160
43.450       133
43.460       160
43.470       213
43.480        80
43.490       133
43.500       120
43.510       107
43.520       107
43.530       107
43.540        40
43.550        40
43.560        27
43.570         0
43.580        67
43.590        40
43.600        13
43.610        27
43.620        13
43.630        40
43.640        80
43.650         0
43.660        13
43.670        27
43.680         0
43.690        13
43.700        27
43.710        27
43.720        27
43.730        40
43.740        13
43.750        67
43.760        67
43.770        53
43.780        67
43.790        27
43.800        27
43.810        13
43.820        13
43.830         0
43.840        13
43.850        40
43.860        27
43.870        67
43.880        27
43.890         0
43.900        40
43.910         0
43.920         0
43.930        13
43.940        13
43.950        13
43.960        13
43.970        13
43.980         0
43.990         0
44.000         0
44.010        27
44.020        40
44.030        27
44.040        27
44.050        53
44.060        67
44.070         0
44.080        27
44.090        40
44.100        53
44.110        13
44.120        13
44.130        13
44.140        27
44.150        13
44.160        13
44.170        53
44.180        13
44.190        27
44.200        13
44.210        27
44.220        13
44.230        13
44.240        13
44.250        27
44.260        13
44.270         0
44.280        27
44.290        13
44.300        80
44.310         0
44.320        27
44.330        40
44.340         0
44.350        53
44.360        53
44.370        13
44.380        27
44.390         0
44.400        13
44.410        13
44.420        27
44.430        27
44.440        40
44.450        27
44.460        27
44.470        53
44.480        13
44.490         0
44.500         0
44.510        40
44.520         0
44.530        13
44.540        27
44.550        40
44.560        13
44.570        27
44.580         0
44.590        67
44.600        53
44.610        13
44.620         0
44.630         0
44.640        13
44.650        40
44.660         0
44.670         0
44.680        53
44.690        27
44.700        67
44.710        40
44.720        67
44.730        27
44.740        40
44.750        13
44.760        27
44.770        27
44.780        13
44.790        40
44.800        13
44.810        13
44.820        27
44.830        40
44.840        27
44.850        27
44.860        27
44.870        13
44.880        27
44.890        13
44.900        40
44.910        13
44.920        13
44.930        13
44.940        13
44.950        13
44.960        53
44.970        40
44.980        13
44.990        13
45.000        40
45.010        13
45.020        13
45.030        40
45.040        13
45.050        80
45.060        27
45.070        67
45.080        67
45.090        27
45.100        27
45.110        27
45.120        27
45.130        67
45.140        27
45.150        27
45.160        13
45.170        13
45.180        13
45.190         0
45.200        27
45.210        13
45.220        13
45.230        13
45.240        27
45.250        27
45.260        13
45.270         0
45.280        13
45.290        27
45.300         0
45.310         0
45.320        13
45.330        13
45.340        27
45.350         0
45.360        53
45.370        67
45.380        13
45.390        40
45.400        27
45.410        13
45.420         0
45.430        40
45.440        80
45.450        53
45.460        40
45.470        67
45.480        13
45.490         0
45.500         0
45.510        40
45.520        40
45.530         0
45.540        27
45.550        53
45.560        13
45.570        13
45.580        13
45.590        53
45.600        27
45.610        27
45.620        40
45.630        40
45.640         0
45.650         0
45.660        27
45.670        40
45.680        13
45.690        13
45.700        67
45.710         0
45.720        27
45.730        27
45.740        53
45.750        40
45.760        27
45.770        40
45.780        13
45.790        13
45.800        40
45.810        67
45.820        53
45.830        53
45.840        27
45.850        67
45.860        40
45.870        67
45.880        53
45.890        80
45.900        67
45.910        40
45.920        27
45.930       107
45.940        67
45.950        80
45.960        40
45.970        13
45.980        27
45.990        80
46.000        53
46.010        53
46.020       107
46.030       133
46.040        93
46.050        40
46.060        80
46.070        80
46.080        67
46.090       133
46.100        67
46.110       120
46.120        93
46.130       133
46.140       120
46.150        93
46.160        93
46.170        93
46.180       147
46.190       120
46.200       133
46.210       120
46.220       133
46.230       120
46.240       160
46.250       120
46.260       133
46.270       120
46.280       227
46.290       187
46.300       173
46.310       160
46.320       133
46.330       147
46.340       200
46.350       227
46.360       147
46.370       200
46.380       267
46.390       173
46.400       200
46.410       120
46.420       120
46.430       240
46.440       160
46.450       120
46.460       280
46.470       187
46.480       200
46.490        93
46.500       200
46.510       133
46.520       160
46.530       200
46.540       120
46.550       213
46.560        93
46.570       200
46.580       107
46.590       240
46.600       133
46.610       147
46.620       187
46.630       120
46.640       133
46.650       133
46.660       173
46.670       200
46.680       120
46.690       120
46.700        80
46.710        93
46.720        80
46.730        93
46.740        67
46.750        53
46.760        80
46.770        27
46.780        40
46.790        53
46.800        40
46.810        40
46.820        93
46.830        67
46.840        40
46.850        67
46.860        27
46.870        53
46.880        67
46.890        67
46.900        27
46.910        27
46.920        40
46.930        27
46.940        53
46.950        67
46.960        13
46.970        13
46.980         0
46.990        53
47.000        13
47.010        27
47.020        27
47.030        13
47.040        27
47.050        40
47.060        40
47.070        27
47.080        40
47.090        27
47.100        27
47.110        27
47.120        13
47.130         0
47.140         0
47.150         0
47.160        67
47.170        53
47.180        53
47.190        40
47.200        13
47.210        40
47.220         0
47.230        53
47.240        40
47.250        27
47.260        13
47.270        53
47.280        40
47.290        53
47.300         0
47.310         0
47.320        40
47.330        13
47.340        27
47.350        13
47.360        27
47.370        27
47.380        53
47.390        27
47.400        13
47.410        40
47.420        13
47.430        27
47.440        13
47.450         0
47.460         0
47.470        53
47.480        27
47.490        40
47.500        13
47.510         0
47.520        13
47.530         0
47.540         0
47.550        13
47.560        13
47.570        53
47.580        13
47.590        13
47.600        40
47.610        40
47.620        40
47.630        40
47.640        13
47.650        27
47.660        27
47.670        13
47.680         0
47.690         0
47.700        13
47.710        13
47.720        27
47.730        27
47.740        40
47.750        13
47.760        13
47.770        13
47.780        40
47.790        27
47.800        40
47.810        27
47.820         0
47.830         0
47.840        67
47.850        27
47.860        27
47.870         0
47.880        13
47.890        27
47.900        27
47.910         0
47.920        13
47.930        27
47.940        40
47.950        40
47.960        13
47.970        53
47.980        13
47.990        27
48.000        27
48.010        13
48.020        13
48.030        40
48.040        27
48.050        13
48.060         0
48.070        40
48.080        13
48.090        27
48.100        13
48.110        27
48.120        13
48.130         0
48.140        40
48.150        27
48.160        13
48.170        53
48.180        13
48.190        67
48.200        13
48.210        13
48.220        53
48.230        13
48.240        27
48.250        40
48.260        40
48.270        40
48.280         0
48.290        13
48.300        13
48.310        13
48.320        13
48.330        13
48.340        13
48.350        13
48.360        27
48.370        13
48.380        40
48.390        13
48.400        40
48.410        13
48.420        13
48.430         0
48.440        13
48.450        53
48.460        27
48.470        27
48.480         0
48.490        40
48.500        27
48.510        40
48.520         0
48.530        40
48.540         0
48.550         0
48.560        27
48.570        13
48.580         0
48.590        40
48.600        27
48.610         0
48.620        40
48.630        27
48.640        13
48.650        13
48.660        27
48.670        13
48.680        27
48.690        13
48.700        40
48.710        13
48.720        40
48.730        40
48.740        27
48.750        13
48.760         0
48.770        27
48.780        27
48.790        13
48.800         0
48.810        27
48.820        27
48.830        27
48.840        53
48.850        13
48.860        13
48.870        27
48.880         0
48.890         0
48.900        13
48.910        27
48.920        13
48.930        13
48.940         0
48.950        13
48.960        40
48.970        13
48.980        27
48.990        40
49.000        40
49.010        13
49.020        13
49.030        27
49.040         0
49.050        40
49.060        13
49.070        13
49.080        13
49.090        13
49.100        13
49.110        40
49.120        40
49.130        27
49.140         0
49.150        27
49.160        27
49.170        13
49.180        13
49.190        53
49.200        13
49.210        27
49.220        13
49.230        13
49.240        13
49.250        27
49.260        13
49.270         0
49.280        53
49.290        27
49.300        40
49.310         0
49.320        27
49.330        13
49.340        27
49.350         0
49.360        13
49.370         0
49.380        53
49.390        13
49.400        40
49.410        13
49.420         0
49.430         0
49.440         0
49.450        13
49.460        13
49.470        13
49.480        27
49.490         0
49.500        27
49.510        13
49.520        13
49.530        13
49.540        13
49.550        13
49.560        27
49.570        40
49.580        13
49.590         0
49.600        27
49.610        40
49.620        13
49.630         0
49.640         0
49.650        27
49.660        13
49.670        27
49.680         0
49.690        13
49.700        13
49.710        13
49.720        13
49.730         0
49.740        27
49.750        13
49.760        40
49.770         0
49.780         0
49.790         0
49.800        13
49.810         0
49.820        27
49.830        27
49.840         0
49.850         0
49.860        13
49.870         0
49.880        13
49.890        13
49.900        27
49.910        13
49.920         0
49.930        27
49.940        13
49.950        27
49.960        13
49.970         0
49.980        27
49.990        13
50.000        13
50.010        13
50.020         0
50.030        13
50.040         0
50.050        13
50.060        40
50.070        13
50.080        13
50.090        13
50.100        13
50.110         0
50.120        13
50.130         0
50.140        13
50.150        13
50.160        27
50.170        13
50.180        13
50.190        40
50.200        27
50.210        13
50.220         0
50.230         0
50.240        13
50.250         0
50.260        40
50.270        27
50.280         0
50.290        13
50.300         0
50.310         0
50.320        13
50.330        40
50.340        27
50.350        27
50.360         0
50.370        13
50.380        27
50.390        13
50.400        93
50.410         0
50.420        27
50.430        40
50.440        13
50.450        27
50.460        40
50.470        13
50.480        27
50.490         0
50.500        27
50.510        13
50.520         0
50.530        13
50.540         0
50.550         0
50.560         0
50.570         0
50.580        40
50.590        40
50.600        13
50.610        27
50.620        27
50.630        13
50.640         0
50.650        13
50.660        27
50.670        13
50.680        13
50.690        27
50.700        27
50.710        27
50.720        27
50.730        40
50.740        13
50.750        13
50.760        53
50.770         0
50.780        53
50.790        13
50.800         0
50.810         0
50.820         0
50.830         0
50.840         0
50.850        40
50.860        13
50.870        53
50.880        13
50.890        13
50.900        40
50.910         0
50.920        27
50.930        13
50.940        27
50.950         0
50.960        27
50.970         0
50.980         0
50.990        13
51.000        13
51.010         0
51.020         0
51.030         0
51.040        13
51.050        27
51.060        27
51.070        13
51.080         0
51.090        40
51.100         0
51.110         0
51.120        27
51.130        13
51.140        40
51.150        40
51.160        27
51.170        27
51.180        13
51.190        13
51.200        13
51.210        27
51.220        67
51.230        13
51.240         0
51.250        27
51.260        13
51.270        27
51.280         0
51.290        40
51.300         0
51.310        27
51.320         0
51.330        13
51.340        13
51.350        40
51.360        27
51.370        13
51.380        13
51.390        13
51.400        27
51.410        13
51.420        40
51.430         0
51.440        40
51.450        27
51.460        13
51.470        13
51.480        13
51.490        13
51.500        27
51.510         0
51.520        53
51.530        27
51.540        27
51.550        27
51.560        13
51.570        13
51.580        27
51.590        53
51.600         0
51.610        13
51.620         0
51.630        27
51.640        27
51.650         0
51.660        27
51.670         0
51.680        27
51.690        40
51.700        27
51.710        40
51.720        13
51.730        13
51.740        13
51.750        27
51.760         0
51.770         0
51.780        13
51.790         0
51.800        27
51.810        27
51.820        13
51.830        13
51.840        13
51.850        27
51.860        40
51.870        27
51.880         0
51.890        13
51.900        13
51.910         0
51.920         0
51.930        13
51.940        40
51.950        13
51.960        40
51.970        13
51.980        27
51.990        13
52.000        13
52.010        27
52.020         0
52.030        53
52.040        40
52.050        40
52.060         0
52.070        27
52.080        53
52.090        27
52.100        13
52.110        27
52.120        13
52.130        13
52.140        13
52.150        13
52.160        40
52.170        13
52.180         0
52.190        27
52.200         0
52.210         0
52.220        13
52.230        13
52.240        40
52.250        13
52.260        27
52.270        13
52.280        40
52.290         0
52.300        40
52.310        27
52.320        40
52.330        13
52.340        13
52.350        13
52.360        13
52.370        53
52.380        27
52.390        80
52.400         0
52.410        27
52.420        53
52.430        53
52.440        27
52.450        27
52.460        13
52.470        27
52.480        13
52.490        13
52.500        53
52.510        53
52.520        67
52.530        40
52.540        27
52.550        80
52.560        67
52.570        53
52.580        67
52.590        67
52.600        80
52.610        13
52.620        40
52.630        53
52.640        40
52.650        27
52.660        27
52.670        40
52.680        67
52.690        13
52.700        67
52.710        40
52.720        27
52.730        13
52.740        53
52.750        13
52.760        27
52.770        27
52.780        27
52.790        67
52.800        27
52.810        13
52.820        27
52.830        13
52.840        13
52.850        13
52.860        13
52.870        27
52.880        27
52.890        27
52.900        13
52.910         0
52.920         0
52.930         0
52.940        13
52.950        13
52.960        13
52.970        13
52.980        13
52.990         0
53.000        27
53.010         0
53.020         0
53.030        13
53.040        13
53.050        13
53.060        27
53.070        13
53.080        67
53.090        13
53.100        13
53.110        13
53.120        40
53.130        27
53.140         0
53.150        27
53.160        40
53.170        13
53.180        13
53.190         0
53.200         0
53.210         0
53.220         0
53.230        13
53.240        13
53.250        27
53.260         0
53.270         0
53.280        13
53.290         0
53.300        27
53.310        67
53.320        27
53.330         0
53.340        27
53.350         0
53.360        27
53.370        27
53.380         0
53.390        13
53.400         0
53.410        53
53.420        13
53.430        13
53.440         0
53.450        13
53.460        27
53.470         0
53.480         0
53.490        13
53.500         0
53.510        13
53.520        27
53.530         0
53.540        13
53.550        13
53.560        13
53.570         0
53.580         0
53.590        27
53.600        53
53.610         0
53.620        40
53.630        27
53.640        27
53.650         0
53.660        27
53.670        13
53.680         0
53.690        27
53.700        13
53.710         0
53.720        13
53.730        13
53.740         0
53.750         0
53.760        27
53.770        27
53.780        27
53.790         0
53.800         0
53.810        53
53.820        13
53.830         0
53.840        40
53.850        13
53.860        13
53.870        27
53.880         0
53.890        13
53.900         0
53.910        27
53.920        13
53.930         0
53.940        40
53.950         0
53.960        13
53.970        27
53.980         0
53.990        13
54.000        13
54.010        27
54.020        13
54.030         0
54.040        27
54.050        80
54.060         0
54.070         0
54.080        13
54.090        13
54.100        13
54.110         0
54.120        13
54.130        27
54.140        13
54.150        27
54.160        27
54.170        13
54.180        40
54.190        27
54.200        13
54.210        40
54.220         0
54.230        13
54.240        27
54.250         0
54.260         0
54.270        13
54.280        13
54.290        27
54.300        13
54.310        13
54.320        27
54.330        40
54.340        40
54.350         0
54.360        27
54.370        13
54.380        13
54.390        27
54.400        13
54.410        13
54.420        27
54.430        13
54.440        40
54.450        13
54.460         0
54.470        13
54.480        13
54.490        13
54.500         0
54.510        27
54.520        13
54.530        27
54.540        27
54.550        13
54.560        13
54.570        27
54.580         0
54.590        13
54.600         0
54.610        13
54.620        13
54.630        27
54.640        13
54.650         0
54.660        53
54.670        13
54.680        27
54.690        27
54.700        27
54.710        13
54.720        40
54.730        13
54.740         0
54.750        13
54.760        13
54.770        13
54.780        13
54.790        13
54.800         0
54.810        27
54.820        27
54.830         0
54.840        40
54.850         0
54.860        13
54.870         0
54.880        13
54.890        53
54.900         0
54.910        27
54.920        13
54.930         0
54.940        40
54.950         0
54.960         0
54.970        40
54.980         0
54.990        27
55.000        40
55.010         0
55.020        13
55.030         0
55.040        27
55.050        40
55.060         0
55.070        13
55.080         0
55.090        13
55.100         0
55.110        27
55.120        40
55.130        13
55.140        13
55.150        13
55.160        13
55.170        13
55.180        13
55.190         0
55.200         0
55.210         0
55.220         0
55.230         0
55.240        13
55.250        53
55.260        27
55.270        27
55.280        27
55.290        27
55.300        27
55.310        13
55.320        27
55.330        27
55.340         0
55.350        27
55.360        27
55.370        13
55.380         0
55.390        13
55.400         0
55.410         0
55.420         0
55.430         0
55.440        27
55.450         0
55.460        27
55.470         0
55.480        13
55.490        13
55.500        13
55.510         0
55.520        40
55.530         0
55.540        13
55.550        13
55.560        13
55.570        13
55.580        13
55.590        13
55.600        13
55.610        27
55.620         0
55.630         0
55.640        13
55.650        13
55.660        53
55.670         0
55.680        13
55.690        13
55.700        27
55.710        13
55.720        53
55.730        27
55.740        13
55.750        27
55.760         0
55.770        13
55.780        27
55.790        40
55.800        27
55.810        40
55.820        13
55.830        27
55.840        13
55.850        13
55.860        13
55.870         0
55.880        27
55.890        67
55.900        13
55.910         0
55.920        13
55.930        40
55.940        13
55.950         0
55.960        27
55.970        13
55.980        13
55.990         0
56.000         0
56.010        27
56.020         0
56.030        13
56.040         0
56.050         0
56.060        27
56.070         0
56.080        13
56.090        40
56.100        13
56.110        27
56.120        13
56.130        13
56.140        13
56.150        27
56.160        13
56.170        40
56.180        27
56.190        27
56.200         0
56.210         0
56.220         0
56.230        13
56.240        13
56.250         0
56.260        40
56.270        40
56.280         0
56.290        13
56.300         0
56.310        13
56.320         0
56.330         0
56.340         0
56.350         0
56.360         0
56.370         0
56.380         0
56.390        27
56.400        13
56.410        13
56.420        27
56.430        27
56.440        13
56.450        13
56.460        13
56.470        27
56.480        40
56.490        13
56.500         0
56.510         0
56.520         0
56.530        13
56.540        13
56.550        13
56.560         0
56.570         0
56.580        40
56.590        27
56.600        13
56.610         0
56.620        27
56.630        13
56.640         0
56.650        27
56.660         0
56.670        27
56.680        13
56.690        27
56.700        13
56.710         0
56.720         0
56.730         0
56.740        13
56.750        40
56.760        27
56.770         0
56.780        40
56.790        27
56.800        13
56.810        53
56.820        13
56.830        27
56.840         0
56.850        13
56.860        13
56.870         0
56.880         0
56.890         0
56.900        13
56.910        40
56.920         0
56.930        13
56.940         0
56.950         0
56.960        40
56.970         0
56.980         0
56.990         0
57.000        13
57.010        27
57.020        13
57.030         0
57.040         0
57.050        13
57.060         0
57.070        13
57.080         0
57.090        93
57.100         0
57.110        27
57.120        13
57.130         0
57.140        40
57.150        13
57.160        13
57.170        13
57.180        40
57.190         0
57.200        53
57.210         0
57.220        40
57.230        27
57.240        27
57.250        67
57.260         0
57.270        13
57.280        53
57.290        27
57.300        13
57.310        13
57.320         0
57.330        13
57.340        40
57.350        40
57.360        27
57.370        13
57.380        27
57.390        40
57.400        53
57.410        53
57.420        67
57.430        93
57.440        67
57.450        93
57.460       187
57.470       213
57.480       120
57.490       227
57.500       173
57.510       253
57.520       253
57.530       253
57.540       187
57.550        93
57.560       173
57.570       160
57.580       120
57.590        93
57.600       147
57.610        80
57.620        67
57.630        67
57.640        53
57.650       160
57.660       120
57.670       173
57.680       107
57.690       120
57.700       133
57.710        67
57.720       107
57.730        53
57.740        40
57.750        40
57.760        40
57.770        13
57.780        13
57.790        53
57.800        40
57.810        40
57.820        93
57.830        13
57.840        53
57.850        40
57.860        13
57.870        27
57.880        13
57.890        13
57.900        53
57.910        13
57.920        40
57.930        13
57.940        27
57.950        67
57.960        13
57.970         0
57.980         0
57.990        13
58.000        67
58.010        27
58.020        53
58.030         0
58.040        27
58.050        13
58.060        13
58.070        27
58.080         0
58.090        13
58.100        13
58.110        13
58.120        27
58.130        13
58.140        40
58.150        53
58.160        27
58.170         0
58.180        13
58.190         0
58.200         0
58.210        53
58.220        13
58.230        27
58.240         0
58.250         0
58.260        13
58.270        13
58.280        40
58.290        13
58.300        13
58.310        13
58.320         0
58.330        13
58.340        13
58.350        13
58.360         0
58.370        27
58.380        13
58.390        27
58.400        13
58.410        27
58.420         0
58.430         0
58.440        13
58.450        13
58.460        13
58.470        40
58.480         0
58.490         0
58.500        27
58.510         0
58.520        13
58.530        40
58.540        27
58.550        27
58.560        27
58.570        40
58.580        27
58.590        13
58.600         0
58.610         0
58.620        27
58.630        67
58.640        27
58.650        27
58.660        40
58.670        40
58.680         0
58.690         0
58.700        27
58.710        27
58.720         0
58.730         0
58.740        27
58.750         0
58.760        53
58.770        13
58.780         0
58.790        27
58.800         0
58.810        13
58.820        13
58.830        13
58.840         0
58.850        27
58.860        13
58.870        13
58.880         0
58.890        67
58.900        13
58.910        27
58.920         0
58.930        27
58.940         0
58.950        40
58.960        27
58.970        13
58.980        27
58.990         0
59.000        40
59.010        27
59.020        13
59.030        13
59.040         0
59.050        13
59.060         0
59.070        13
59.080        27
59.090        13
59.100        13
59.110         0
59.120        40
59.130         0
59.140        40
59.150        13
59.160         0
59.170         0
59.180        13
59.190        13
59.200        40
59.210        13
59.220        27
59.230         0
59.240        13
59.250         0
59.260        13
59.270         0
59.280        13
59.290        27
59.300         0
59.310         0
59.320        40
59.330        40
59.340        27
59.350        27
59.360         0
59.370        13
59.380         0
59.390        13
59.400        27
59.410        13
59.420        13
59.430        27
59.440        40
59.450        13
59.460         0
59.470        27
59.480        40
59.490        27
59.500        40
59.510        27
59.520        27
59.530        27
59.540        27
59.550         0
59.560         0
59.570        13
59.580        27
59.590         0
59.600        27
59.610        27
59.620        13
59.630        13
59.640        13
59.650         0
59.660         0
59.670        27
59.680        27
59.690         0
59.700        13
59.710        13
59.720        53
59.730        13
59.740        67
59.750        27
59.760        27
59.770        13
59.780        13
59.790         0
59.800         0
59.810         0
59.820         0
59.830        13
59.840        40
59.850         0
59.860        13
59.870         0
59.880         0
59.890         0
59.900        13
59.910        27
59.920        13
59.930        40
59.940        53
59.950         0
59.960        27
59.970         0
59.980         0
59.990         0
60.000         0
