20.000        47
20.020        47
20.040        60
20.060        70
20.080        40
20.100        33
20.120        40
20.140        33
20.160        67
20.180        43
20.200        60
20.220        30
20.240        43
20.260        70
20.280        47
20.300        23
20.320        70
20.340        63
20.360        57
20.380        60
20.400        37
20.420        50
20.440        60
20.460        43
20.480        57
20.500        47
20.520        67
20.540        37
20.560        53
20.580        33
20.600        33
20.620        43
20.640        37
20.660        50
20.680        50
20.700        33
20.720        43
20.740        37
20.760        27
20.780        10
20.800        50
20.820        30
20.840        43
20.860        47
20.880        50
20.900        67
20.920        37
20.940        40
20.960        27
20.980        40
21.000        43
21.020        20
21.040        63
21.060        53
21.080        63
21.100        37
21.120        63
21.140        40
21.160        63
21.180        53
21.200        57
21.220        57
21.240        40
21.260        47
21.280        40
21.300        50
21.320        37
21.340        30
21.360        30
21.380        40
21.400        37
21.420        57
21.440        40
21.460        30
21.480        37
21.500        30
21.520        50
21.540        70
21.560        50
21.580        33
21.600        43
21.620        47
21.640        47
21.660        43
21.680        83
21.700        60
21.720        67
21.740        53
21.760        33
21.780        50
21.800        73
21.820        60
21.840        53
21.860        70
21.880        63
21.900        57
21.920        57
21.940        47
21.960        43
21.980        53
22.000        50
22.020        73
22.040        50
22.060        30
22.080        57
22.100        80
22.120        70
22.140        90
22.160        67
22.180        70
22.200        60
22.220        97
22.240        73
22.260        93
22.280       137
22.300       103
22.320        83
22.340       130
22.360       100
22.380        93
22.400       110
22.420       110
22.440       127
22.460        83
22.480        93
22.500       117
22.520        87
22.540       137
22.560       163
22.580       120
22.600       127
22.620       103
22.640       117
22.660       130
22.680       113
22.700       127
22.720       103
22.740       103
22.760       103
22.780       123
22.800        87
22.820        90
22.840        87
22.860        63
22.880        83
22.900        53
22.920        90
22.940        63
22.960        90
22.980        67
23.000        87
23.020       107
23.040        70
23.060        90
23.080        80
23.100        47
23.120        67
23.140        50
23.160        67
23.180        50
23.200        63
23.220        53
23.240        60
23.260        43
23.280        53
23.300        60
23.320        70
23.340        43
23.360        60
23.380        63
23.400        17
23.420        57
23.440        53
23.460        57
23.480        57
23.500        60
23.520        70
23.540        60
23.560        57
23.580        40
23.600        60
23.620        53
23.640        57
23.660        27
23.680        43
23.700        43
23.720        53
23.740        53
23.760        37
23.780        43
23.800        53
23.820        43
23.840        60
23.860        53
23.880        47
23.900        53
23.920        60
23.940        63
23.960        30
23.980        20
24.000        30
24.020        63
24.040        53
24.060        37
24.080        33
24.100        43
24.120        30
24.140        47
24.160        53
24.180        33
24.200        50
24.220        33
24.240        37
24.260        30
24.280        43
24.300        50
24.320        30
24.340        63
24.360        67
24.380        60
24.400        33
24.420        43
24.440        30
24.460        50
24.480        63
24.500        37
24.520        33
24.540        33
24.560        23
24.580        50
24.600        37
24.620        57
24.640        53
24.660        53
24.680        27
24.700        40
24.720        33
24.740        23
24.760        57
24.780        27
24.800        47
24.820        40
24.840        27
24.860        30
24.880        60
24.900        33
24.920        37
24.940        30
24.960        40
24.980        37
25.000        47
25.020        40
25.040        70
25.060        13
25.080        30
25.100        37
25.120        37
25.140        27
25.160        43
25.180        57
25.200        40
25.220        47
25.240        40
25.260        53
25.280        63
25.300        33
25.320        50
25.340        57
25.360        50
25.380        57
25.400        47
25.420        33
25.440        50
25.460        63
25.480        50
25.500        40
25.520        30
25.540        77
25.560        47
25.580        67
25.600        93
25.620       140
25.640       173
25.660       150
25.680       130
25.700       137
25.720        70
25.740       100
25.760        33
25.780        43
25.800        33
25.820        47
25.840        20
25.860        40
25.880        50
25.900        57
25.920        27
25.940        37
25.960        23
25.980        40
26.000        20
26.020        33
26.040        47
26.060        40
26.080        43
26.100        50
26.120        37
26.140        40
26.160        60
26.180        47
26.200        50
26.220        43
26.240        23
26.260        40
26.280        47
26.300        27
26.320        47
26.340        40
26.360        43
26.380        37
26.400        43
26.420        53
26.440        40
26.460        27
26.480        27
26.500        30
26.520        33
26.540        33
26.560        27
26.580        53
26.600        57
26.620        43
26.640        40
26.660        30
26.680        63
26.700        33
26.720        40
26.740        50
26.760        50
26.780        37
26.800        27
26.820        40
26.840        17
26.860        50
26.880        37
26.900        40
26.920        30
26.940        30
26.960        27
26.980        33
27.000        20
27.020        40
27.040        43
27.060        37
27.080        10
27.100        33
27.120        27
27.140        33
27.160        43
27.180        40
27.200        13
27.220        23
27.240        23
27.260        20
27.280        47
27.300        33
27.320        40
27.340        47
27.360        40
27.380        40
27.400        37
27.420        43
27.440        47
27.460        33
27.480        37
27.500        47
27.520        30
27.540        33
27.560        27
27.580        47
27.600        47
27.620        17
27.640        30
27.660        43
27.680        33
27.700        27
27.720        37
27.740         7
27.760        33
27.780        23
27.800        37
27.820        40
27.840        33
27.860        27
27.880        27
27.900        33
27.920        13
27.940        43
27.960        27
27.980        33
28.000        23
28.020        23
28.040        13
28.060        30
28.080        53
28.100        27
28.120        37
28.140        27
28.160        37
28.180        37
28.200        37
28.220        43
28.240        47
28.260        27
28.280        37
28.300        27
28.320        40
28.340        40
28.360        23
28.380        27
28.400        50
28.420        23
28.440        57
28.460        37
28.480        30
28.500        33
28.520        37
28.540        17
28.560        37
28.580        33
28.600        37
28.620        30
28.640        40
28.660        33
28.680        40
28.700        17
28.720        33
28.740         7
28.760        17
28.780        33
28.800        20
28.820        23
28.840        33
28.860        43
28.880        47
28.900        53
28.920        37
28.940        57
28.960        33
28.980        30
29.000        27
29.020        40
29.040        40
29.060        43
29.080        63
29.100        33
29.120        40
29.140        20
29.160        37
29.180        17
29.200        33
29.220        33
29.240        40
29.260        27
29.280        40
29.300        30
29.320        47
29.340        43
29.360        27
29.380        33
29.400        30
29.420        30
29.440        40
29.460        43
29.480        30
29.500        37
29.520        43
29.540        23
29.560        43
29.580        30
29.600        37
29.620        23
29.640        17
29.660        37
29.680        40
29.700        33
29.720        50
29.740        43
29.760        47
29.780        53
29.800        33
29.820        33
29.840        43
29.860        20
29.880        20
29.900        37
29.920        40
29.940        27
29.960        33
29.980        23
30.000        77
30.020        20
30.040        27
30.060        40
30.080        43
30.100        33
30.120        30
30.140        43
30.160        33
30.180        30
30.200        23
30.220        33
30.240        37
30.260        30
30.280        20
30.300        43
30.320        13
30.340        50
30.360        33
30.380        37
30.400        13
30.420        10
30.440        30
30.460        33
30.480        43
30.500        27
30.520        37
30.540        27
30.560        27
30.580        33
30.600        33
30.620        40
30.640        43
30.660        43
30.680        47
30.700        33
30.720        37
30.740        37
30.760        40
30.780        40
30.800        30
30.820        23
30.840        17
30.860        40
30.880        30
30.900        27
30.920        27
30.940        30
30.960        30
30.980        30
31.000        27
31.020        27
31.040        33
31.060        20
31.080        43
31.100        27
31.120        37
31.140        50
31.160        40
31.180        33
31.200        37
31.220        70
31.240        30
31.260        63
31.280        43
31.300        57
31.320        63
31.340        43
31.360        50
31.380        33
31.400        63
31.420        53
31.440        40
31.460        70
31.480        50
31.500        40
31.520        43
31.540        73
31.560        30
31.580        57
31.600        53
31.620        40
31.640        70
31.660        50
31.680        53
31.700        47
31.720        77
31.740        60
31.760        80
31.780        90
31.800        53
31.820        73
31.840        90
31.860       113
31.880        90
31.900       120
31.920        90
31.940       110
31.960       153
31.980       150
32.000       160
32.020       153
32.040       160
32.060       213
32.080       233
32.100       203
32.120       180
32.140       253
32.160       223
32.180       187
32.200       237
32.220       270
32.240       207
32.260       207
32.280       217
32.300       240
32.320       217
32.340       220
32.360       197
32.380       157
32.400       207
32.420       160
32.440       123
32.460       173
32.480       140
32.500       127
32.520       133
32.540       133
32.560        83
32.580        97
32.600        87
32.620       123
32.640        90
32.660        73
32.680        83
32.700        97
32.720        73
32.740        77
32.760        83
32.780        57
32.800        30
32.820        63
32.840        60
32.860        70
32.880        53
32.900        40
32.920        57
32.940        70
32.960        47
32.980        60
33.000        30
33.020        50
33.040        67
33.060        40
33.080        47
33.100        40
33.120        20
33.140        33
33.160        17
33.180        57
33.200        27
33.220        27
33.240        37
33.260        30
33.280        47
33.300        40
33.320        37
33.340        27
33.360        43
33.380        50
33.400        23
33.420        20
33.440        33
33.460        27
33.480        30
33.500        23
33.520        47
33.540        30
33.560        30
33.580        33
33.600        47
33.620        23
33.640        17
33.660        37
33.680        27
33.700        33
33.720        33
33.740        40
33.760        23
33.780        17
33.800        37
33.820        37
33.840        30
33.860        37
33.880        27
33.900        30
33.920        23
33.940        30
33.960        37
33.980        37
34.000        47
34.020        30
34.040        37
34.060        20
34.080        17
34.100        23
34.120        20
34.140        20
34.160        50
34.180        20
34.200        50
34.220        20
34.240        40
34.260        40
34.280        23
34.300        43
34.320        27
34.340        23
34.360        27
34.380        40
34.400        43
34.420        30
34.440        37
34.460        23
34.480        33
34.500        47
34.520        33
34.540        30
34.560        40
34.580        30
34.600        33
34.620        27
34.640        47
34.660        27
34.680        13
34.700        43
34.720        27
34.740        37
34.760        43
34.780        17
34.800        30
34.820        17
34.840        40
34.860        10
34.880        33
34.900        50
34.920        33
34.940        17
34.960        27
34.980        40
35.000        27
35.020        43
35.040        77
35.060        53
35.080        67
35.100        60
35.120        80
35.140       120
35.160       273
35.180       503
35.200       856
35.220       913
35.240       726
35.260       380
35.280       440
35.300       570
35.320       387
35.340       213
35.360        93
35.380        60
35.400        57
35.420        33
35.440        37
35.460        20
35.480        40
35.500        33
35.520        17
35.540        10
35.560        37
35.580        23
35.600        30
35.620        37
35.640        30
35.660        27
35.680        10
35.700        40
35.720        30
35.740        17
35.760        33
35.780        17
35.800        27
35.820        33
35.840        33
35.860        43
35.880        13
35.900        33
35.920        30
35.940        27
35.960        30
35.980        23
36.000        17
36.020        37
36.040        13
36.060        33
36.080        30
36.100        27
36.120        13
36.140        17
36.160        27
36.180        23
36.200        30
36.220        37
36.240        20
36.260        40
36.280        23
36.300        47
36.320        30
36.340        23
36.360        27
36.380        33
36.400        13
36.420        30
36.440        37
36.460        27
36.480        17
36.500        33
36.520        27
36.540        30
36.560        20
36.580        33
36.600        33
36.620        17
36.640        33
36.660        40
36.680        30
36.700        13
36.720        37
36.740        40
36.760        13
36.780        30
36.800        40
36.820        27
36.840        23
36.860        27
36.880        20
36.900        17
36.920        40
36.940        30
36.960        30
36.980        40
37.000        50
37.020        50
37.040        30
37.060        27
37.080        27
37.100        40
37.120        27
37.140        33
37.160        20
37.180        20
37.200        17
37.220        27
37.240        27
37.260        20
37.280        30
37.300        30
37.320        33
37.340        20
37.360        13
37.380        43
37.400        23
37.420        30
37.440        40
37.460         3
37.480        43
37.500        20
37.520        33
37.540        27
37.560        47
37.580        37
37.600        23
37.620        30
37.640        23
37.660        30
37.680        60
37.700        50
37.720        43
37.740        40
37.760        30
37.780        57
37.800        67
37.820        50
37.840        67
37.860        73
37.880        93
37.900        77
37.920        47
37.940        43
37.960        63
37.980        57
38.000        43
38.020        20
38.040        20
38.060        17
38.080        13
38.100        17
38.120        27
38.140        23
38.160        27
38.180        27
38.200        50
38.220        23
38.240        17
38.260        30
38.280        17
38.300        20
38.320        20
38.340        20
38.360        33
38.380        20
38.400        27
38.420        30
38.440        23
38.460        20
38.480        30
38.500        13
38.520        17
38.540        17
38.560        20
38.580        13
38.600        20
38.620        13
38.640        37
38.660        27
38.680        30
38.700        27
38.720        30
38.740        27
38.760        33
38.780        13
38.800        17
38.820        33
38.840        27
38.860        13
38.880        30
38.900        13
38.920        47
38.940        27
38.960        20
38.980        40
39.000        23
39.020        57
39.040        47
39.060        30
39.080        30
39.100        30
39.120        23
39.140        23
39.160        37
39.180        27
39.200        20
39.220        17
39.240        33
39.260        20
39.280        37
39.300        27
39.320        43
39.340        33
39.360        30
39.380        27
39.400        17
39.420        20
39.440        17
39.460        20
39.480        30
39.500        13
39.520        23
39.540        17
39.560        27
39.580        40
39.600        27
39.620        30
39.640         3
39.660        13
39.680        33
39.700        27
39.720        33
39.740        47
39.760        27
39.780        53
39.800        20
39.820        40
39.840        23
39.860        37
39.880        33
39.900        40
39.920        30
39.940        33
39.960        40
39.980        30
40.000        37
40.020        17
40.040        20
40.060        23
40.080        20
40.100        47
40.120        27
40.140        33
40.160        30
40.180        47
40.200        27
40.220        30
40.240        40
40.260        23
40.280        33
40.300        50
40.320        43
40.340        23
40.360        30
40.380        33
40.400        20
40.420        30
40.440        43
40.460        27
40.480        43
40.500        23
40.520        17
40.540        13
40.560        37
40.580        37
40.600        23
40.620        27
40.640        17
40.660        27
40.680        27
40.700        27
40.720        23
40.740        23
40.760        23
40.780        13
40.800        30
40.820        27
40.840        13
40.860        27
40.880        27
40.900        23
40.920        37
40.940        27
40.960        20
40.980        27
41.000        33
41.020        33
41.040        30
41.060        10
41.080        33
41.100        27
41.120        40
41.140        37
41.160        43
41.180        27
41.200        23
41.220        17
41.240        20
41.260        40
41.280        37
41.300        43
41.320        13
41.340        23
41.360        40
41.380        23
41.400        13
41.420        47
41.440        27
41.460        23
41.480        33
41.500        27
41.520        47
41.540        47
41.560        43
41.580        50
41.600        33
41.620        63
41.640        50
41.660        67
41.680        93
41.700       177
41.720       200
41.740       210
41.760       207
41.780       207
41.800       127
41.820        93
41.840       147
41.860       133
41.880        87
41.900       100
41.920        37
41.940        37
41.960        27
41.980        33
42.000        27
42.020        17
42.040        20
42.060        20
42.080        13
42.100        30
42.120        37
42.140        43
42.160        27
42.180        40
42.200        20
42.220        23
42.240        33
42.260        17
42.280        23
42.300        23
42.320        20
42.340        23
42.360        20
42.380        17
42.400        17
42.420        37
42.440        43
42.460        23
42.480        27
42.500        30
42.520        27
42.540        20
42.560        23
42.580        30
42.600        23
42.620        30
42.640        17
42.660        40
42.680        17
42.700        17
42.720        33
42.740        47
42.760        40
42.780        30
42.800        23
42.820        20
42.840        30
42.860        53
42.880        27
42.900        40
42.920        37
42.940        33
42.960        33
42.980        33
43.000        30
43.020        30
43.040        53
43.060        27
43.080        40
43.100        17
43.120        40
43.140        30
43.160        40
43.180        47
43.200        23
43.220        40
43.240        33
43.260        53
43.280        77
43.300       103
43.320        93
43.340       123
43.360       103
43.380       187
43.400       307
43.420       453
43.440       390
43.460       350
43.480       190
43.500       140
43.520       193
43.540       207
43.560       253
43.580       150
43.600        87
43.620        67
43.640        47
43.660        23
43.680        33
43.700        37
43.720        40
43.740        47
43.760        33
43.780        50
43.800        33
43.820        37
43.840        37
43.860        43
43.880        30
43.900        47
43.920        37
43.940        30
43.960        57
43.980        50
44.000        50
44.020        37
44.040        60
44.060        37
44.080        50
44.100        73
44.120        30
44.140        43
44.160        40
44.180        50
44.200        53
44.220        43
44.240        47
44.260        47
44.280        60
44.300        70
44.320        73
44.340        77
44.360        33
44.380        80
44.400        73
44.420        60
44.440        53
44.460        57
44.480        47
44.500        50
44.520        60
44.540        93
44.560        50
44.580        97
44.600        67
44.620        63
44.640        93
44.660        97
44.680        63
44.700        87
44.720        97
44.740        87
44.760       110
44.780        93
44.800        77
44.820       113
44.840       117
44.860       123
44.880       130
44.900       130
44.920       123
44.940       130
44.960       140
44.980       127
45.000       147
45.020       170
45.040       193
45.060       183
45.080       207
45.100       207
45.120       213
45.140       160
45.160       187
45.180       180
45.200       217
45.220       270
45.240       257
45.260       247
45.280       317
45.300       317
45.320       297
45.340       373
45.360       407
45.380       360
45.400       410
45.420       436
45.440       483
45.460       476
45.480       576
45.500       493
45.520       526
45.540       540
45.560       640
45.580       626
45.600       656
45.620       633
45.640       670
45.660       640
45.680       773
45.700       743
45.720       740
45.740       793
45.760       706
45.780       843
45.800       806
45.820       826
45.840       823
45.860       853
45.880       836
45.900       750
45.920       846
45.940       793
45.960       926
45.980       890
46.000       823
46.020       760
46.040       726
46.060       790
46.080       856
46.100       710
46.120       726
46.140       710
46.160       750
46.180       690
46.200       703
46.220       686
46.240       580
46.260       500
46.280       570
46.300       680
46.320       476
46.340       493
46.360       566
46.380       476
46.400       563
46.420       470
46.440       410
46.460       400
46.480       463
46.500       390
46.520       403
46.540       373
46.560       400
46.580       327
46.600       287
46.620       247
46.640       337
46.660       317
46.680       283
46.700       293
46.720       213
46.740       263
46.760       187
46.780       250
46.800       200
46.820       163
46.840       187
46.860       203
46.880       200
46.900       183
46.920       200
46.940       133
46.960       147
46.980       143
47.000       153
47.020       123
47.040       130
47.060       143
47.080       157
47.100       107
47.120       133
47.140       123
47.160       153
47.180        97
47.200        90
47.220       107
47.240       113
47.260       107
47.280        43
47.300        80
47.320       123
47.340       110
47.360        93
47.380        93
47.400        87
47.420        77
47.440        73
47.460        97
47.480        53
47.500       100
47.520        70
47.540        63
47.560        37
47.580        70
47.600        80
47.620        47
47.640        67
47.660        53
47.680        93
47.700        50
47.720        77
47.740        70
47.760        43
47.780        60
47.800        53
47.820        63
47.840        47
47.860        47
47.880        63
47.900        30
47.920        37
47.940        70
47.960        60
47.980        40
48.000        40
48.020        47
48.040        40
48.060        53
48.080        23
48.100        40
48.120        43
48.140        37
48.160        33
48.180        50
48.200        57
48.220        50
48.240        47
48.260        37
48.280        40
48.300        37
48.320        37
48.340        60
48.360        73
48.380        50
48.400        27
48.420        50
48.440        30
48.460        23
48.480        40
48.500        33
48.520        43
48.540        27
48.560        33
48.580        43
48.600        27
48.620        47
48.640        50
48.660        40
48.680        30
48.700        37
48.720        13
48.740        40
48.760        50
48.780        37
48.800        27
48.820        40
48.840        30
48.860        40
48.880        37
48.900        43
48.920        33
48.940        43
48.960        30
48.980        40
49.000        40
49.020        30
49.040        47
49.060        23
49.080        37
49.100        33
49.120        33
49.140        27
49.160        20
49.180        27
49.200        47
49.220        30
49.240        37
49.260        50
49.280        23
49.300        33
49.320        40
49.340        27
49.360        27
49.380        27
49.400        27
49.420        20
49.440        13
49.460        20
49.480        13
49.500        37
49.520        30
49.540        23
49.560        23
49.580        40
49.600        17
49.620        37
49.640        13
49.660        37
49.680        33
49.700        43
49.720        40
49.740        43
49.760        33
49.780        50
49.800        27
49.820        17
49.840        37
49.860        17
49.880        30
49.900        30
49.920        13
49.940        23
49.960        30
49.980        33
50.000        23
50.020        27
50.040        20
50.060        47
50.080        17
50.100        33
50.120        17
50.140        23
50.160        23
50.180        37
50.200        27
50.220        30
50.240        23
50.260        30
50.280        40
50.300        10
50.320        37
50.340        33
50.360        43
50.380        20
50.400        23
50.420        23
50.440        33
50.460        30
50.480        23
50.500        13
50.520        47
50.540        53
50.560        23
50.580        17
50.600        33
50.620        33
50.640        20
50.660        33
50.680         7
50.700        27
50.720        30
50.740        37
50.760        40
50.780        13
50.800        13
50.820        30
50.840        30
50.860        30
50.880        30
50.900        20
50.920        17
50.940        23
50.960        13
50.980        13
51.000        20
51.020        27
51.040        30
51.060        20
51.080        23
51.100        53
51.120        13
51.140        47
51.160        27
51.180        17
51.200        10
51.220        33
51.240        40
51.260        30
51.280        30
51.300         7
51.320        17
51.340        20
51.360        17
51.380        17
51.400        33
51.420        17
51.440        20
51.460        13
51.480        17
51.500        23
51.520        20
51.540        33
51.560        23
51.580        27
51.600        27
51.620        23
51.640        37
51.660        20
51.680        17
51.700        17
51.720        10
51.740        13
51.760        37
51.780        13
51.800        27
51.820        13
51.840        27
51.860        13
51.880        40
51.900        27
51.920        23
51.940        23
51.960        17
51.980        13
52.000        17
52.020        33
52.040        37
52.060        37
52.080        20
52.100        27
52.120        30
52.140        27
52.160        30
52.180        13
52.200        33
52.220        37
52.240        17
52.260        27
52.280        20
52.300        17
52.320        20
52.340        17
52.360        17
52.380        27
52.400        33
52.420        40
52.440        23
52.460        23
52.480        17
52.500        47
52.520        20
52.540        23
52.560        27
52.580        33
52.600        23
52.620        50
52.640        57
52.660        50
52.680        47
52.700        33
52.720        50
52.740        20
52.760        37
52.780        50
52.800        43
52.820        67
52.840        20
52.860        20
52.880        27
52.900        13
52.920        10
52.940        30
52.960        30
52.980        37
53.000        27
53.020        20
53.040        20
53.060        30
53.080        27
53.100        40
53.120        23
53.140        17
53.160        33
53.180        13
53.200        30
53.220        17
53.240        13
53.260        33
53.280        13
53.300        13
53.320        27
53.340        27
53.360        20
53.380        13
53.400        17
53.420        23
53.440        27
53.460        10
53.480        10
53.500         7
53.520        13
53.540         7
53.560        20
53.580        13
53.600        17
53.620        13
53.640        13
53.660        13
53.680        10
53.700        13
53.720        23
53.740        23
53.760        23
53.780        17
53.800        13
53.820        27
53.840        13
53.860         7
53.880        13
53.900        13
53.920        20
53.940        17
53.960         3
53.980        27
54.000        33
54.020        10
54.040        17
54.060         7
54.080        23
54.100        27
54.120        10
54.140        17
54.160        27
54.180        27
54.200        13
54.220        13
54.240        10
54.260        23
54.280        13
54.300        27
54.320        17
54.340        20
54.360        30
54.380        10
54.400        33
54.420        23
54.440        23
54.460        17
54.480        27
54.500        10
54.520        30
54.540        13
54.560        20
54.580        27
54.600        17
54.620        10
54.640        20
54.660        17
54.680        20
54.700        20
54.720        27
54.740        10
54.760        20
54.780        17
54.800        17
54.820        27
54.840         3
54.860        17
54.880        30
54.900        33
54.920        20
54.940        17
54.960        17
54.980        20
55.000        20
55.020        27
55.040        17
55.060        17
55.080        30
55.100        23
55.120        13
55.140        13
55.160        20
55.180        23
55.200        17
55.220        20
55.240        23
55.260        23
55.280        13
55.300        17
55.320        30
55.340        13
55.360        13
55.380        10
55.400        10
55.420        23
55.440        20
55.460        27
55.480        10
55.500        13
55.520        13
55.540        23
55.560        17
55.580        33
55.600        17
55.620        20
55.640         7
55.660         7
55.680        10
55.700        17
55.720        13
55.740        20
55.760         7
55.780        20
55.800        30
55.820        17
55.840        17
55.860        20
55.880        17
55.900        13
55.920        17
55.940        30
55.960        17
55.980        17
56.000        10
56.020        27
56.040        20
56.060        23
56.080        23
56.100         3
56.120        10
56.140        10
56.160        33
56.180        10
56.200        10
56.220        10
56.240        17
56.260        23
56.280        17
56.300        17
56.320        20
56.340        23
56.360         7
56.380        23
56.400        17
56.420        27
56.440        17
56.460         7
56.480        10
56.500        13
56.520         3
56.540        20
56.560        27
56.580        17
56.600        23
56.620        17
56.640        13
56.660         3
56.680        37
56.700        13
56.720        20
56.740        20
56.760        33
56.780        23
56.800        17
56.820        23
56.840        30
56.860        33
56.880        20
56.900        20
56.920        27
56.940        17
56.960        30
56.980        20
57.000         3
57.020        13
57.040         3
57.060        20
57.080        30
57.100        27
57.120        13
57.140        20
57.160        23
57.180        13
57.200        13
57.220        37
57.240        17
57.260        30
57.280        13
57.300        30
57.320        27
57.340        43
57.360        60
57.380        50
57.400        50
57.420        53
57.440        67
57.460        53
57.480        63
57.500       140
57.520       133
57.540       207
57.560       287
57.580       337
57.600       536
57.620       566
57.640       550
57.660       360
57.680       190
57.700       140
57.720       180
57.740       217
57.760       243
57.780       343
57.800       267
57.820       147
57.840        80
57.860        50
57.880        53
57.900        33
57.920        30
57.940        43
57.960        40
57.980        13
58.000        23
58.020        20
58.040        40
58.060        27
58.080        27
58.100        23
58.120        27
58.140        17
58.160         7
58.180        10
58.200        17
58.220        20
58.240        20
58.260        13
58.280        10
58.300        30
58.320        23
58.340        30
58.360        17
58.380        13
58.400        27
58.420        10
58.440        13
58.460        17
58.480        30
58.500        10
58.520        17
58.540         0
58.560        27
58.580        10
58.600         3
58.620        17
58.640        23
58.660        20
58.680        23
58.700        17
58.720        13
58.740        23
58.760        10
58.780        20
58.800        20
58.820        27
58.840        10
58.860        23
58.880        13
58.900        13
58.920         7
58.940        10
58.960        37
58.980        13
59.000        20
59.020         7
59.040        10
59.060        33
59.080        17
59.100        13
59.120        23
59.140        13
59.160        10
59.180        13
59.200        17
59.220        27
59.240        10
59.260        27
59.280        17
59.300        17
59.320        10
59.340        10
59.360        10
59.380        13
59.400        17
59.420         3
59.440        13
59.460        23
59.480        13
59.500        20
59.520        33
59.540        27
59.560        30
59.580        17
59.600         7
59.620        20
59.640        13
59.660        27
59.680        13
59.700        17
59.720        17
59.740        47
59.760        13
59.780        23
59.800        27
59.820        30
59.840        23
59.860        17
59.880        30
59.900        13
59.920        10
59.940        13
59.960        10
59.980        20
60.000        27
