20.000        67
20.010        67
20.020       153
20.030       113
20.040       167
20.050       100
20.060       113
20.070       147
20.080       133
20.090        87
20.100       120
20.110       147
20.120       133
20.130       113
20.140       113
20.150       147
20.160       133
20.170       140
20.180        80
20.190       120
20.200       120
20.210       207
20.220       167
20.230       127
20.240       133
20.250       133
20.260        73
20.270       133
20.280       147
20.290       153
20.300       107
20.310       140
20.320       133
20.330       100
20.340       133
20.350       120
20.360       100
20.370       153
20.380        80
20.390       133
20.400       113
20.410       147
20.420       193
20.430       120
20.440       113
20.450        87
20.460       100
20.470       107
20.480       173
20.490        87
20.500       107
20.510       133
20.520       120
20.530       127
20.540       133
20.550       240
20.560       187
20.570       113
20.580       160
20.590       167
20.600       187
20.610       107
20.620       107
20.630       147
20.640       160
20.650       120
20.660       180
20.670       173
20.680       140
20.690        93
20.700       127
20.710       173
20.720       133
20.730       100
20.740       200
20.750       100
20.760       120
20.770       127
20.780       160
20.790       127
20.800       160
20.810       147
20.820       193
20.830       127
20.840       120
20.850       140
20.860       193
20.870       113
20.880       153
20.890       133
20.900       173
20.910       180
20.920       147
20.930       113
20.940       107
20.950       133
20.960       127
20.970       113
20.980       113
20.990       153
21.000       187
21.010       153
21.020       147
21.030       187
21.040       113
21.050       147
21.060       173
21.070       167
21.080        67
21.090       153
21.100       153
21.110       133
21.120       187
21.130       160
21.140       180
21.150       140
21.160       173
21.170       113
21.180       120
21.190       120
21.200       153
21.210       180
21.220       180
21.230       140
21.240        93
21.250       193
21.260       127
21.270       173
21.280       167
21.290       147
21.300       133
21.310       107
21.320       193
21.330       127
21.340       133
21.350       140
21.360       120
21.370       200
21.380       127
21.390       120
21.400       160
21.410       153
21.420       133
21.430       167
21.440       153
21.450       133
21.460       153
21.470       140
21.480       173
21.490       133
21.500       127
21.510       107
21.520       167
21.530       153
21.540       147
21.550        87
21.560       140
21.570       153
21.580       153
21.590       200
21.600       127
21.610       140
21.620       100
21.630       153
21.640       153
21.650       153
21.660       140
21.670       113
21.680       107
21.690       107
21.700       167
21.710       160
21.720       213
21.730       187
21.740       173
21.750       127
21.760       140
21.770       173
21.780       153
21.790       187
21.800       133
21.810       127
21.820       113
21.830       193
21.840       120
21.850       133
21.860       140
21.870       207
21.880       153
21.890       160
21.900       173
21.910       180
21.920       207
21.930       153
21.940       173
21.950       160
21.960       200
21.970       193
21.980       153
21.990       133
22.000       127
22.010       167
22.020       147
22.030       140
22.040       173
22.050       153
22.060       160
22.070       180
22.080       167
22.090       220
22.100       207
22.110       153
22.120       127
22.130       140
22.140       153
22.150       153
22.160       140
22.170       207
22.180       140
22.190       153
22.200       153
22.210       147
22.220       227
22.230       180
22.240       180
22.250       187
22.260       107
22.270       133
22.280       133
22.290       220
22.300       173
22.310       193
22.320       193
22.330       167
22.340       167
22.350       227
22.360       153
22.370       147
22.380       140
22.390       253
22.400       180
22.410       180
22.420       200
22.430       267
22.440       240
22.450       273
22.460       240
22.470       160
22.480       180
22.490       220
22.500       193
22.510       193
22.520       147
22.530       173
22.540       153
22.550       200
22.560       160
22.570       160
22.580       127
22.590       233
22.600       193
22.610       160
22.620       240
22.630       253
22.640       127
22.650       240
22.660       227
22.670       247
22.680       253
22.690       300
22.700       280
22.710       293
22.720       280
22.730       353
22.740       313
22.750       493
22.760       400
22.770       506
22.780       440
22.790       493
22.800       480
22.810       600
22.820       560
22.830       367
22.840       493
22.850       573
22.860       486
22.870       493
22.880       446
22.890       513
22.900       593
22.910       387
22.920       387
22.930       433
22.940       420
22.950       380
22.960       320
22.970       333
22.980       393
22.990       333
23.000       347
23.010       307
23.020       373
23.030       300
23.040       347
23.050       360
23.060       400
23.070       407
23.080       546
23.090       893
23.100      1493
23.110      1759
23.120      1906
23.130      1666
23.140      1686
23.150      1773
23.160      1379
23.170       993
23.180       753
23.190       413
23.200       420
23.210       433
23.220       287
23.230       433
23.240       320
23.250       333
23.260       333
23.270       367
23.280       400
23.290       400
23.300       293
23.310       353
23.320       253
23.330       267
23.340       273
23.350       260
23.360       213
23.370       260
23.380       240
23.390       260
23.400       200
23.410       260
23.420       167
23.430       267
23.440       213
23.450       293
23.460       220
23.470       193
23.480       253
23.490       253
23.500       240
23.510       300
23.520       180
23.530       220
23.540       260
23.550       180
23.560       193
23.570       313
23.580       220
23.590       240
23.600       220
23.610       267
23.620       207
23.630       293
23.640       267
23.650       213
23.660       167
23.670       240
23.680       307
23.690       233
23.700       240
23.710       287
23.720       287
23.730       267
23.740       227
23.750       273
23.760       240
23.770       227
23.780       260
23.790       280
23.800       187
23.810       240
23.820       253
23.830       220
23.840       280
23.850       280
23.860       207
23.870       167
23.880       180
23.890       293
23.900       227
23.910       287
23.920       287
23.930       313
23.940       207
23.950       213
23.960       247
23.970       220
23.980       233
23.990       240
24.000       247
24.010       273
24.020       273
24.030       180
24.040       227
24.050       240
24.060       227
24.070       253
24.080       313
24.090       260
24.100       280
24.110       233
24.120       260
24.130       227
24.140       273
24.150       207
24.160       340
24.170       220
24.180       267
24.190       240
24.200       240
24.210       320
24.220       213
24.230       280
24.240       360
24.250       280
24.260       233
24.270       260
24.280       280
24.290       273
24.300       267
24.310       133
24.320       200
24.330       207
24.340       293
24.350       153
24.360       213
24.370       260
24.380       213
24.390       247
24.400       207
24.410       253
24.420       253
24.430       227
24.440       240
24.450       220
24.460       293
24.470       213
24.480       253
24.490       287
24.500       240
24.510       273
24.520       280
24.530       240
24.540       280
24.550       327
24.560       193
24.570       280
24.580       240
24.590       227
24.600       207
24.610       253
24.620       240
24.630       340
24.640       213
24.650       200
24.660       287
24.670       240
24.680       260
24.690       247
24.700       313
24.710       307
24.720       367
24.730       500
24.740       433
24.750       533
24.760       733
24.770       860
24.780       753
24.790       833
24.800       986
24.810      1073
24.820      1000
24.830      1000
24.840       926
24.850       960
24.860       860
24.870      1060
24.880       753
24.890       980
24.900      1000
24.910       940
24.920       980
24.930      1033
24.940      1086
24.950       993
24.960      1000
24.970       993
24.980       980
24.990       886
25.000      1000
25.010      1093
25.020       966
25.030      1080
25.040      1080
25.050       960
25.060      1000
25.070      1113
25.080       966
25.090       973
25.100      1013
25.110       906
25.120       900
25.130       913
25.140      1066
25.150      1080
25.160      1020
25.170      1013
25.180      1033
25.190      1093
25.200      1000
25.210       993
25.220      1120
25.230      1073
25.240       980
25.250      1033
25.260      1160
25.270      1086
25.280      1246
25.290      1080
25.300      1313
25.310      1160
25.320      1393
25.330      1259
25.340      1293
25.350      1240
25.360      1339
25.370      1353
25.380      1373
25.390      1473
25.400      1446
25.410      1686
25.420      1653
25.430      1853
25.440      2206
25.450      2572
25.460      2979
25.470      3952
25.480      4658
25.490      5951
25.500      7024
25.510      7970
25.520      9263
25.530      9829
25.540     11049
25.550     13495
25.560     16020
25.570     22751
25.580     42490
25.590     86152
25.600    134113
25.610    171098
25.620    185826
25.630    187538
25.640    189198
25.650    188251
25.660    183667
25.670    166327
25.680    142283
25.690    126609
25.700    118286
25.710    113241
25.720    101399
25.730     82114
25.740     55778
25.750     33766
25.760     23117
25.770     18959
25.780     17426
25.790     15121
25.800     12848
25.810     11322
25.820      9903
25.830      8163
25.840      7204
25.850      5678
25.860      4985
25.870      4065
25.880      3199
25.890      2479
25.900      2166
25.910      2086
25.920      1806
25.930      1599
25.940      1593
25.950      1673
25.960      1573
25.970      1459
25.980      1426
25.990      1453
26.000      1333
26.010      1259
26.020      1040
26.030      1253
26.040      1279
26.050      1273
26.060      1240
26.070      1173
26.080      1133
26.090      1113
26.100      1046
26.110      1166
26.120      1133
26.130      1033
26.140      1066
26.150       980
26.160      1066
26.170      1026
26.180      1133
26.190       973
26.200      1120
26.210       980
26.220       853
26.230      1060
26.240       906
26.250       906
26.260      1033
26.270       866
26.280       980
26.290       853
26.300       866
26.310       953
26.320      1046
26.330       880
26.340       886
26.350       960
26.360       766
26.370       820
26.380       906
26.390       833
26.400       826
26.410       906
26.420       713
26.430       853
26.440       860
26.450       906
26.460       846
26.470       773
26.480       793
26.490       793
26.500       640
26.510       740
26.520       813
26.530       686
26.540       760
26.550       826
26.560       766
26.570       866
26.580       693
26.590       800
26.600       633
26.610       886
26.620       746
26.630       800
26.640       860
26.650       793
26.660       853
26.670       693
26.680       740
26.690       680
26.700       713
26.710       746
26.720       760
26.730       720
26.740       666
26.750       780
26.760       713
26.770       800
26.780       666
26.790       700
26.800       713
26.810       606
26.820       686
26.830       746
26.840       726
26.850       700
26.860       733
26.870       753
26.880       780
26.890       673
26.900       660
26.910       626
26.920       660
26.930       580
26.940       666
26.950       653
26.960       660
26.970       693
26.980       793
26.990       820
27.000       786
27.010       680
27.020       686
27.030       646
27.040       753
27.050       553
27.060       673
27.070       706
27.080       793
27.090       706
27.100       760
27.110       633
27.120       500
27.130       713
27.140       573
27.150       633
27.160       620
27.170       740
27.180       686
27.190       573
27.200       573
27.210       646
27.220       580
27.230       626
27.240       620
27.250       660
27.260       606
27.270       646
27.280       533
27.290       666
27.300       633
27.310       660
27.320       626
27.330       593
27.340       586
27.350       606
27.360       606
27.370       600
27.380       546
27.390       646
27.400       786
27.410       666
27.420       700
27.430       633
27.440       520
27.450       606
27.460       533
27.470       620
27.480       660
27.490       540
27.500       653
27.510       640
27.520       626
27.530       526
27.540       673
27.550       613
27.560       620
27.570       646
27.580       593
27.590       600
27.600       660
27.610       533
27.620       493
27.630       713
27.640       700
27.650       600
27.660       560
27.670       653
27.680       466
27.690       480
27.700       606
27.710       573
27.720       673
27.730       566
27.740       533
27.750       620
27.760       580
27.770       633
27.780       526
27.790       586
27.800       560
27.810       600
27.820       613
27.830       533
27.840       633
27.850       480
27.860       586
27.870       640
27.880       680
27.890       560
27.900       553
27.910       560
27.920       593
27.930       540
27.940       546
27.950       553
27.960       433
27.970       533
27.980       493
27.990       506
28.000       506
28.010       566
28.020       380
28.030       446
28.040       673
28.050       400
28.060       480
28.070       560
28.080       506
28.090       620
28.100       520
28.110       486
28.120       566
28.130       620
28.140       560
28.150       526
28.160       546
28.170       407
28.180       580
28.190       540
28.200       500
28.210       586
28.220       526
28.230       540
28.240       526
28.250       580
28.260       593
28.270       566
28.280       606
28.290       560
28.300       486
28.310       493
28.320       480
28.330       480
28.340       460
28.350       600
28.360       546
28.370       526
28.380       460
28.390       560
28.400       540
28.410       526
28.420       453
28.430       480
28.440       540
28.450       473
28.460       493
28.470       560
28.480       420
28.490       586
28.500       660
28.510       360
28.520       393
28.530       486
28.540       526
28.550       480
28.560       560
28.570       433
28.580       420
28.590       513
28.600       493
28.610       573
28.620       506
28.630       440
28.640       446
28.650       433
28.660       493
28.670       387
28.680       446
28.690       460
28.700       380
28.710       493
28.720       440
28.730       660
28.740       446
28.750       526
28.760       533
28.770       493
28.780       500
28.790       367
28.800       460
28.810       446
28.820       533
28.830       493
28.840       533
28.850       566
28.860       493
28.870       486
28.880       500
28.890       586
28.900       413
28.910       426
28.920       560
28.930       407
28.940       440
28.950       380
28.960       560
28.970       433
28.980       566
28.990       540
29.000       453
29.010       373
29.020       540
29.030       493
29.040       546
29.050       433
29.060       426
29.070       453
29.080       500
29.090       486
29.100       473
29.110       446
29.120       500
29.130       560
29.140       473
29.150       473
29.160       433
29.170       413
29.180       460
29.190       373
29.200       520
29.210       380
29.220       420
29.230       493
29.240       400
29.250       566
29.260       593
29.270       453
29.280       373
29.290       453
29.300       440
29.310       453
29.320       426
29.330       420
29.340       466
29.350       400
29.360       360
29.370       520
29.380       420
29.390       440
29.400       380
29.410       446
29.420       400
29.430       400
29.440       466
29.450       453
29.460       480
29.470       493
29.480       380
29.490       520
29.500       440
29.510       446
29.520       446
29.530       440
29.540       453
29.550       347
29.560       373
29.570       426
29.580       426
29.590       360
29.600       486
29.610       506
29.620       573
29.630       387
29.640       400
29.650       533
29.660       407
29.670       466
29.680       460
29.690       486
29.700       426
29.710       300
29.720       353
29.730       533
29.740       466
29.750       320
29.760       347
29.770       486
29.780       493
29.790       480
29.800       433
29.810       367
29.820       466
29.830       340
29.840       433
29.850       387
29.860       433
29.870       380
29.880       453
29.890       347
29.900       460
29.910       473
29.920       387
29.930       367
29.940       407
29.950       500
29.960       340
29.970       407
29.980       407
29.990       480
30.000       433
30.010       393
30.020       426
30.030       393
30.040       387
30.050       420
30.060       420
30.070       340
30.080       353
30.090       440
30.100       453
30.110       540
30.120       446
30.130       353
30.140       353
30.150       333
30.160       347
30.170       380
30.180       300
30.190       460
30.200       367
30.210       340
30.220       373
30.230       333
30.240       433
30.250       373
30.260       360
30.270       413
30.280       247
30.290       393
30.300       440
30.310       400
30.320       393
30.330       407
30.340       413
30.350       420
30.360       480
30.370       420
30.380       433
30.390       273
30.400       426
30.410       453
30.420       473
30.430       347
30.440       360
30.450       320
30.460       367
30.470       327
30.480       347
30.490       380
30.500       453
30.510       347
30.520       433
30.530       340
30.540       273
30.550       460
30.560       367
30.570       300
30.580       313
30.590       340
30.600       393
30.610       393
30.620       360
30.630       300
30.640       367
30.650       313
30.660       387
30.670       360
30.680       446
30.690       327
30.700       380
30.710       387
30.720       400
30.730       360
30.740       320
30.750       393
30.760       280
30.770       307
30.780       247
30.790       353
30.800       407
30.810       353
30.820       433
30.830       240
30.840       260
30.850       380
30.860       240
30.870       260
30.880       267
30.890       393
30.900       347
30.910       347
30.920       466
30.930       313
30.940       307
30.950       267
30.960       333
30.970       320
30.980       347
30.990       300
31.000       287
31.010       260
31.020       287
31.030       340
31.040       320
31.050       253
31.060       287
31.070       327
31.080       360
31.090       347
31.100       373
31.110       307
31.120       380
31.130       320
31.140       373
31.150       320
31.160       320
31.170       320
31.180       280
31.190       460
31.200       333
31.210       220
31.220       333
31.230       287
31.240       333
31.250       293
31.260       293
31.270       320
31.280       333
31.290       313
31.300       313
31.310       267
31.320       320
31.330       353
31.340       313
31.350       227
31.360       340
31.370       233
31.380       233
31.390       287
31.400       300
31.410       307
31.420       247
31.430       373
31.440       260
31.450       340
31.460       260
31.470       247
31.480       260
31.490       293
31.500       313
31.510       320
31.520       247
31.530       240
31.540       293
31.550       273
31.560       207
31.570       267
31.580       220
31.590       413
31.600       267
31.610       220
31.620       273
31.630       353
31.640       287
31.650       327
31.660       273
31.670       233
31.680       280
31.690       273
31.700       287
31.710       320
31.720       327
31.730       253
31.740       327
31.750       327
31.760       220
31.770       293
31.780       347
31.790       307
31.800       340
31.810       267
31.820       287
31.830       260
31.840       333
31.850       287
31.860       247
31.870       260
31.880       240
31.890       293
31.900       213
31.910       373
31.920       287
31.930       307
31.940       260
31.950       180
31.960       280
31.970       313
31.980       273
31.990       280
32.000       320
32.010       240
32.020       287
32.030       233
32.040       213
32.050       267
32.060       273
32.070       247
32.080       200
32.090       207
32.100       253
32.110       327
32.120       273
32.130       287
32.140       340
32.150       327
32.160       227
32.170       273
32.180       220
32.190       307
32.200       193
32.210       253
32.220       260
32.230       260
32.240       253
32.250       280
32.260       287
32.270       287
32.280       280
32.290       293
32.300       220
32.310       253
32.320       287
32.330       300
32.340       307
32.350       267
32.360       327
32.370       360
32.380       293
32.390       347
32.400       313
32.410       333
32.420       380
32.430       347
32.440       526
32.450       513
32.460       440
32.470       433
32.480       653
32.490       493
32.500       673
32.510       653
32.520       600
32.530       520
32.540       486
32.550       520
32.560       473
32.570       466
32.580       413
32.590       407
32.600       433
32.610       393
32.620       393
32.630       267
32.640       260
32.650       333
32.660       253
32.670       273
32.680       273
32.690       233
32.700       280
32.710       247
32.720       227
32.730       253
32.740       180
32.750       193
32.760       253
32.770       193
32.780       260
32.790       353
32.800       240
32.810       213
32.820       253
32.830       300
32.840       293
32.850       213
32.860       207
32.870       307
32.880       253
32.890       267
32.900       213
32.910       207
32.920       173
32.930       180
32.940       167
32.950       213
32.960       200
32.970       287
32.980       140
32.990       167
33.000       207
33.010       247
33.020       160
33.030       227
33.040       147
33.050       233
33.060       193
33.070       220
33.080       207
33.090       213
33.100       200
33.110       207
33.120       207
33.130       233
33.140       207
33.150       247
33.160       160
33.170       193
33.180       207
33.190       260
33.200       187
33.210       220
33.220       233
33.230       153
33.240       200
33.250       193
33.260       193
33.270       200
33.280       147
33.290       220
33.300       200
33.310       207
33.320       207
33.330       213
33.340       200
33.350       213
33.360       220
33.370       233
33.380       180
33.390       193
33.400       173
33.410       200
33.420       147
33.430       153
33.440       160
33.450       187
33.460       187
33.470       160
33.480       247
33.490       220
33.500       193
33.510       220
33.520       207
33.530       227
33.540       193
33.550       160
33.560       300
33.570       187
33.580       160
33.590       207
33.600       273
33.610       227
33.620       240
33.630       227
33.640       173
33.650       180
33.660       167
33.670       247
33.680       173
33.690       120
33.700       180
33.710       180
33.720       167
33.730       193
33.740       167
33.750       247
33.760       180
33.770       113
33.780       173
33.790       167
33.800       213
33.810       187
33.820       213
33.830       160
33.840       140
33.850       147
33.860       153
33.870       160
33.880       200
33.890       187
33.900       173
33.910       233
33.920       127
33.930       133
33.940       187
33.950       180
33.960       207
33.970       147
33.980       173
33.990       227
34.000       187
34.010       160
34.020       160
34.030       167
34.040       200
34.050       200
34.060       180
34.070       160
34.080       193
34.090       153
34.100       247
34.110       200
34.120       260
34.130       193
34.140       113
34.150       180
34.160       127
34.170       200
34.180       233
34.190       173
34.200       193
34.210       200
34.220       180
34.230       140
34.240       160
34.250       193
34.260       120
34.270       173
34.280       133
34.290       140
34.300       173
34.310       140
34.320       153
34.330       187
34.340       207
34.350       120
34.360       173
34.370       247
34.380       213
34.390       147
34.400       173
34.410       133
34.420       167
34.430       220
34.440       173
34.450       200
34.460       193
34.470       173
34.480       140
34.490       120
34.500       173
34.510       147
34.520       147
34.530        87
34.540       140
34.550       140
34.560       227
34.570       133
34.580       147
34.590       187
34.600       187
34.610       133
34.620       140
34.630       187
34.640       153
34.650       207
34.660       240
34.670       133
34.680       187
34.690       133
34.700       200
34.710       140
34.720       147
34.730       227
34.740       153
34.750       167
34.760       133
34.770       140
34.780       133
34.790       160
34.800       200
34.810       140
34.820       107
34.830       167
34.840       180
34.850       180
34.860       107
34.870       167
34.880       167
34.890       127
34.900       127
34.910       233
34.920       173
34.930       160
34.940        93
34.950       227
34.960       160
34.970       147
34.980       147
34.990       127
35.000       147
35.010       220
35.020       227
35.030       147
35.040       140
35.050       180
35.060       173
35.070       147
35.080       107
35.090       127
35.100       127
35.110       147
35.120       233
35.130       120
35.140       127
35.150       113
35.160       180
35.170       193
35.180       173
35.190       173
35.200       160
35.210       113
35.220       113
35.230       127
35.240       200
35.250       133
35.260       160
35.270       180
35.280        73
35.290       127
35.300       147
35.310       120
35.320        80
35.330       133
35.340       160
35.350       133
35.360        93
35.370       180
35.380       147
35.390        87
35.400       140
35.410       140
35.420       193
35.430       113
35.440       133
35.450       100
35.460       100
35.470       173
35.480       120
35.490       167
35.500       120
35.510       167
35.520       107
35.530       173
35.540       107
35.550       133
35.560       167
35.570       113
35.580       113
35.590       127
35.600       133
35.610        93
35.620       107
35.630       133
35.640       133
35.650       133
35.660        73
35.670       107
35.680       100
35.690       133
35.700       160
35.710       133
35.720       127
35.730        87
35.740       173
35.750       113
35.760        80
35.770       107
35.780        93
35.790       133
35.800       160
35.810       147
35.820       113
35.830       113
35.840       100
35.850       147
35.860        87
35.870       120
35.880       127
35.890       120
35.900       100
35.910       120
35.920       120
35.930       120
35.940       100
35.950       180
35.960       133
35.970       127
35.980       107
35.990       160
36.000       133
36.010       127
36.020       167
36.030       107
36.040       113
36.050       133
36.060       153
36.070        93
36.080       167
36.090       100
36.100       100
36.110        93
36.120       127
36.130       127
36.140       147
36.150       153
36.160       107
36.170       120
36.180       153
36.190       227
36.200       120
36.210       180
36.220        87
36.230        67
36.240        80
36.250       107
36.260        93
36.270       127
36.280       140
36.290       147
36.300       113
36.310       193
36.320       180
36.330        73
36.340       113
36.350        93
36.360        80
36.370        73
36.380       127
36.390        60
36.400       160
36.410       160
36.420       107
36.430        93
36.440       140
36.450       160
36.460        87
36.470       153
36.480       160
36.490       127
36.500       100
36.510       200
36.520       127
36.530       107
36.540        87
36.550       113
36.560       133
36.570        80
36.580       100
36.590       140
36.600        80
36.610       100
36.620        80
36.630        73
36.640        93
36.650        87
36.660       107
36.670        60
36.680       120
36.690        93
36.700       140
36.710       113
36.720       107
36.730       113
36.740        87
36.750        93
36.760        93
36.770       133
36.780        60
36.790        80
36.800       100
36.810       127
36.820        73
36.830       113
36.840       127
36.850       100
36.860       133
36.870        93
36.880       160
36.890       127
36.900       107
36.910        80
36.920       140
36.930       153
36.940       160
36.950        80
36.960        80
36.970       127
36.980       107
36.990       147
37.000       100
37.010       113
37.020       100
37.030        73
37.040       107
37.050       147
37.060       113
37.070       120
37.080       127
37.090        73
37.100       147
37.110        93
37.120       100
37.130        73
37.140       147
37.150       127
37.160       113
37.170       173
37.180       120
37.190        87
37.200        73
37.210       140
37.220       127
37.230       107
37.240        80
37.250        80
37.260        93
37.270       133
37.280       100
37.290        73
37.300        80
37.310       100
37.320       113
37.330        87
37.340       100
37.350       133
37.360       120
37.370        67
37.380        80
37.390       107
37.400       100
37.410       120
37.420        87
37.430        53
37.440        80
37.450        93
37.460        80
37.470       133
37.480       113
37.490        80
37.500        73
37.510        93
37.520        93
37.530       120
37.540        73
37.550        73
37.560        80
37.570       120
37.580       100
37.590        67
37.600        67
37.610        73
37.620        73
37.630       127
37.640       133
37.650        80
37.660        73
37.670        80
37.680       133
37.690        67
37.700        80
37.710       113
37.720       120
37.730        60
37.740        67
37.750       113
37.760        87
37.770       100
37.780        60
37.790       127
37.800        80
37.810        80
37.820        60
37.830        87
37.840        67
37.850        80
37.860       120
37.870        73
37.880        80
37.890       120
37.900       100
37.910        93
37.920        93
37.930       100
37.940        67
37.950        53
37.960        93
37.970        80
37.980        80
37.990       113
38.000        80
38.010       107
38.020       113
38.030        87
38.040        87
38.050       113
38.060        67
38.070        87
38.080        93
38.090        40
38.100        67
38.110        60
38.120        93
38.130        73
38.140        73
38.150        60
38.160       100
38.170        87
38.180        73
38.190        87
38.200        80
38.210        87
38.220       107
38.230        53
38.240        80
38.250        73
38.260        87
38.270        93
38.280        87
38.290        87
38.300       120
38.310        60
38.320        93
38.330       100
38.340        87
38.350        73
38.360        93
38.370        47
38.380        33
38.390        73
38.400        73
38.410       120
38.420        80
38.430       100
38.440        73
38.450        53
38.460        73
38.470        53
38.480        53
38.490        67
38.500       107
38.510        73
38.520        67
38.530       127
38.540        87
38.550        80
38.560        80
38.570        87
38.580       100
38.590        33
38.600        93
38.610        80
38.620        53
38.630        93
38.640        47
38.650       100
38.660        67
38.670       113
38.680       107
38.690        20
38.700        87
38.710        53
38.720        93
38.730        47
38.740        67
38.750       107
38.760        80
38.770        93
38.780        67
38.790       107
38.800        67
38.810        53
38.820        93
38.830        93
38.840        87
38.850        53
38.860        93
38.870        40
38.880        73
38.890        40
38.900        60
38.910        53
38.920        73
38.930        80
38.940        80
38.950        73
38.960        13
38.970        87
38.980        53
38.990        93
39.000        87
39.010        53
39.020        87
39.030        87
39.040        67
39.050        93
39.060        87
39.070        60
39.080        80
39.090        93
39.100        47
39.110        80
39.120        67
39.130        80
39.140        60
39.150        53
39.160        73
39.170        87
39.180        80
39.190        40
39.200        53
39.210        47
39.220        60
39.230        73
39.240        87
39.250        60
39.260        60
39.270        60
39.280       100
39.290       100
39.300        33
39.310        87
39.320        73
39.330        87
39.340        40
39.350        80
39.360        60
39.370       100
39.380        67
39.390        47
39.400        60
39.410        93
39.420        93
39.430       100
39.440        80
39.450        33
39.460       100
39.470        67
39.480       100
39.490        80
39.500       107
39.510       113
39.520        53
39.530        87
39.540        60
39.550        80
39.560        53
39.570        53
39.580        40
39.590        60
39.600        47
39.610        87
39.620        80
39.630        67
39.640        80
39.650        60
39.660        47
39.670        60
39.680        53
39.690        80
39.700        93
39.710        60
39.720        87
39.730        67
39.740        53
39.750        73
39.760        53
39.770        80
39.780        67
39.790        93
39.800        60
39.810        67
39.820        73
39.830        53
39.840       107
39.850        67
39.860        67
39.870        40
39.880        87
39.890        73
39.900        87
39.910       133
39.920        73
39.930        87
39.940        80
39.950        87
39.960       107
39.970        87
39.980        73
39.990        60
40.000        87
40.010       100
40.020        80
40.030       127
40.040       107
40.050       107
40.060        93
40.070       100
40.080       107
40.090        80
40.100       120
40.110       120
40.120       133
40.130       107
40.140        60
40.150       100
40.160        80
40.170       153
40.180        87
40.190       107
40.200        87
40.210        87
40.220        33
40.230        60
40.240        87
40.250        60
40.260        67
40.270        40
40.280        40
40.290        47
40.300        87
40.310       100
40.320        53
40.330        47
40.340        60
40.350        80
40.360        33
40.370        33
40.380        73
40.390       113
40.400        53
40.410        60
40.420       113
40.430        53
40.440        87
40.450        40
40.460        53
40.470        27
40.480        53
40.490        33
40.500       113
40.510        40
40.520        27
40.530        47
40.540        67
40.550        40
40.560        53
40.570        67
40.580        60
40.590        60
40.600        60
40.610        60
40.620        60
40.630        33
40.640        47
40.650        80
40.660        73
40.670        53
40.680        73
40.690       100
40.700        60
40.710       127
40.720        60
40.730        73
40.740        73
40.750        67
40.760        40
40.770        60
40.780        47
40.790        80
40.800        27
40.810        40
40.820        33
40.830        53
40.840        93
40.850        53
40.860        73
40.870        67
40.880        60
40.890        60
40.900        60
40.910        53
40.920        80
40.930        67
40.940        87
40.950        40
40.960        67
40.970        53
40.980        60
40.990        87
41.000        40
41.010        73
41.020        40
41.030        40
41.040        33
41.050        53
41.060        40
41.070        53
41.080        53
41.090        93
41.100        80
41.110        67
41.120        47
41.130        53
41.140        60
41.150        73
41.160        67
41.170       100
41.180        47
41.190        47
41.200        27
41.210        67
41.220        47
41.230        60
41.240       113
41.250        53
41.260        47
41.270        47
41.280        33
41.290        73
41.300        40
41.310        40
41.320        33
41.330        53
41.340        73
41.350        53
41.360        67
41.370        40
41.380        27
41.390        80
41.400        20
41.410        87
41.420        53
41.430        47
41.440        47
41.450        60
41.460        40
41.470        67
41.480        67
41.490        53
41.500        60
41.510        73
41.520        33
41.530        80
41.540        53
41.550        40
41.560        87
41.570        60
41.580        73
41.590        33
41.600        27
41.610        40
41.620        40
41.630        80
41.640        53
41.650        73
41.660        47
41.670        80
41.680        60
41.690        33
41.700        60
41.710        87
41.720        67
41.730        47
41.740        73
41.750        53
41.760        87
41.770        80
41.780        87
41.790        87
41.800        47
41.810        53
41.820        80
41.830       100
41.840        87
41.850        73
41.860        87
41.870       107
41.880        80
41.890        73
41.900        87
41.910        80
41.920        47
41.930        87
41.940        47
41.950        60
41.960        33
41.970        33
41.980        33
41.990        47
42.000        40
42.010        60
42.020        87
42.030        40
42.040        53
42.050        53
42.060        33
42.070        40
42.080        87
42.090        27
42.100        67
42.110        80
42.120        73
42.130        73
42.140        27
42.150        67
42.160        27
42.170        20
42.180        60
42.190        53
42.200        73
42.210        73
42.220        60
42.230        73
42.240        13
42.250        47
42.260        53
42.270        87
42.280        33
42.290        40
42.300        47
42.310        40
42.320        27
42.330        33
42.340        20
42.350        80
42.360        40
42.370        33
42.380        40
42.390        60
42.400        80
42.410        73
42.420        73
42.430        20
42.440        33
42.450        53
42.460        67
42.470        13
42.480        60
42.490        33
42.500        47
42.510        60
42.520        27
42.530        53
42.540        60
42.550        33
42.560        20
42.570        40
42.580        60
42.590        53
42.600        73
42.610        40
42.620        80
42.630        73
42.640        67
42.650        47
42.660        80
42.670        27
42.680        53
42.690        60
42.700        53
42.710        47
42.720        53
42.730        13
42.740        67
42.750        47
42.760        47
42.770        47
42.780        53
42.790        33
42.800        40
42.810        80
42.820        73
42.830        67
42.840        80
42.850        47
42.860        67
42.870        73
42.880        60
42.890        27
42.900        27
42.910        40
42.920       113
42.930        60
42.940        53
42.950        53
42.960        73
42.970        87
42.980        67
42.990        80
43.000        67
43.010        73
43.020        40
43.030        80
43.040        53
43.050        33
43.060        53
43.070        93
43.080        60
43.090        40
43.100        40
43.110        73
43.120        67
43.130        87
43.140        60
43.150        60
43.160        40
43.170        53
43.180        60
43.190        60
43.200       100
43.210        67
43.220       100
43.230        13
43.240        87
43.250        53
43.260        53
43.270        40
43.280        60
43.290        87
43.300        47
43.310        53
43.320        47
43.330         7
43.340        40
43.350        40
43.360        60
43.370        80
43.380        40
43.390        40
43.400        40
43.410        47
43.420        40
43.430        40
43.440        40
43.450        67
43.460        20
43.470        47
43.480        33
43.490        47
43.500        47
43.510        40
43.520        47
43.530        13
43.540        53
43.550        40
43.560        73
43.570        60
43.580        27
43.590        40
43.600        33
43.610        67
43.620        47
43.630        47
43.640        53
43.650        47
43.660        33
43.670        53
43.680         7
43.690        47
43.700        60
43.710        33
43.720        47
43.730        53
43.740        60
43.750        27
43.760        27
43.770        40
43.780        60
43.790        73
43.800        53
43.810        27
43.820        53
43.830        53
43.840        40
43.850        47
43.860        73
43.870        60
43.880        47
43.890        47
43.900         7
43.910        87
43.920        53
43.930        47
43.940        60
43.950        40
43.960        27
43.970        27
43.980        93
43.990        47
44.000        53
44.010        40
44.020        33
44.030        47
44.040        33
44.050        40
44.060        67
44.070        53
44.080        73
44.090        93
44.100        67
44.110        53
44.120        27
44.130        47
44.140        33
44.150        53
44.160        27
44.170        33
44.180        33
44.190        53
44.200        33
44.210        47
44.220        33
44.230        40
44.240        73
44.250        60
44.260        33
44.270        40
44.280        40
44.290        93
44.300        60
44.310        60
44.320        80
44.330        40
44.340        53
44.350        67
44.360        53
44.370        47
44.380        33
44.390        73
44.400        33
44.410        33
44.420        40
44.430        20
44.440        40
44.450        33
44.460        93
44.470        73
44.480        53
44.490        53
44.500        53
44.510        53
44.520        53
44.530        60
44.540        67
44.550        53
44.560        40
44.570        67
44.580        13
44.590        67
44.600        47
44.610        87
44.620        53
44.630        47
44.640        87
44.650        40
44.660        20
44.670        40
44.680        40
44.690        53
44.700        40
44.710        40
44.720       113
44.730        33
44.740        73
44.750        20
44.760        53
44.770        53
44.780        53
44.790        33
44.800        33
44.810        67
44.820        80
44.830        60
44.840        93
44.850        53
44.860        73
44.870        53
44.880        53
44.890        53
44.900        73
44.910        33
44.920       113
44.930        67
44.940        40
44.950        47
44.960        67
44.970        73
44.980        60
44.990        47
45.000        80
45.010        27
45.020        53
45.030        33
45.040        40
45.050        40
45.060        53
45.070        67
45.080        60
45.090        80
45.100        53
45.110        53
45.120        73
45.130        67
45.140        60
45.150        67
45.160        53
45.170        80
45.180        67
45.190        73
45.200        53
45.210        73
45.220        67
45.230        53
45.240        47
45.250        53
45.260        73
45.270        73
45.280        73
45.290        80
45.300        60
45.310        47
45.320        80
45.330        67
45.340        47
45.350        60
45.360        80
45.370        87
45.380       133
45.390        60
45.400        60
45.410        80
45.420        47
45.430        47
45.440        93
45.450        73
45.460        33
45.470        67
45.480        73
45.490        60
45.500        67
45.510        47
45.520        53
45.530        60
45.540        60
45.550        53
45.560        73
45.570        93
45.580        47
45.590        60
45.600        60
45.610        80
45.620        67
45.630        60
45.640        47
45.650        27
45.660        67
45.670       107
45.680        33
45.690        80
45.700        53
45.710        80
45.720        87
45.730        73
45.740        73
45.750        53
45.760        60
45.770        73
45.780        60
45.790        80
45.800        40
45.810        87
45.820        93
45.830        33
45.840       100
45.850       107
45.860        67
45.870        93
45.880        80
45.890        80
45.900        60
45.910        73
45.920        47
45.930        60
45.940        67
45.950       120
45.960        87
45.970       100
45.980       113
45.990       120
46.000        73
46.010        87
46.020        73
46.030       120
46.040        73
46.050        93
46.060        93
46.070       127
46.080       153
46.090        93
46.100       100
46.110       147
46.120       180
46.130       187
46.140       107
46.150       167
46.160       127
46.170       207
46.180       187
46.190       140
46.200       193
46.210       220
46.220       247
46.230       167
46.240       233
46.250       313
46.260       327
46.270       313
46.280       320
46.290       367
46.300       440
46.310       347
46.320       426
46.330       453
46.340       593
46.350       766
46.360       633
46.370       713
46.380       886
46.390       833
46.400       953
46.410      1013
46.420      1066
46.430      1299
46.440      1333
46.450      1466
46.460      1666
46.470      1633
46.480      1966
46.490      2026
46.500      1939
46.510      2359
46.520      2346
46.530      2686
46.540      2626
46.550      2759
46.560      2619
46.570      2952
46.580      3045
46.590      3119
46.600      3079
46.610      3065
46.620      2959
46.630      2972
46.640      2919
46.650      2879
46.660      2906
46.670      2759
46.680      2532
46.690      2366
46.700      2199
46.710      2419
46.720      2066
46.730      2112
46.740      2013
46.750      1593
46.760      1593
46.770      1379
46.780      1513
46.790      1093
46.800      1326
46.810      1020
46.820       853
46.830      1140
46.840       846
46.850       673
46.860       720
46.870       506
46.880       513
46.890       533
46.900       520
46.910       526
46.920       413
46.930       413
46.940       440
46.950       340
46.960       320
46.970       187
46.980       307
46.990       327
47.000       313
47.010       213
47.020       220
47.030       253
47.040       227
47.050       213
47.060       193
47.070       307
47.080       207
47.090       287
47.100       213
47.110       293
47.120       320
47.130       340
47.140       387
47.150       446
47.160       526
47.170       666
47.180       966
47.190      1366
47.200      1919
47.210      1646
47.220      2039
47.230      1919
47.240      1833
47.250      1613
47.260      1406
47.270       926
47.280       713
47.290       606
47.300       473
47.310       360
47.320       287
47.330       460
47.340       267
47.350       273
47.360       240
47.370       293
47.380       240
47.390       267
47.400       180
47.410       187
47.420       173
47.430       100
47.440       147
47.450       180
47.460       113
47.470        80
47.480       173
47.490        73
47.500       140
47.510        93
47.520       107
47.530       113
47.540        93
47.550        93
47.560       120
47.570       107
47.580       120
47.590        73
47.600        80
47.610        87
47.620       153
47.630       140
47.640        80
47.650       120
47.660       107
47.670        93
47.680       100
47.690        87
47.700       127
47.710        87
47.720        67
47.730        87
47.740       113
47.750        93
47.760       127
47.770        93
47.780       100
47.790        87
47.800       140
47.810        87
47.820        73
47.830        87
47.840        53
47.850        93
47.860       107
47.870        73
47.880        93
47.890        87
47.900        67
47.910        40
47.920        53
47.930        73
47.940        87
47.950        67
47.960        93
47.970        60
47.980        53
47.990        73
48.000        73
48.010        80
48.020        53
48.030        73
48.040       100
48.050        47
48.060        53
48.070        93
48.080        80
48.090        93
48.100       100
48.110        67
48.120        80
48.130        53
48.140       147
48.150        60
48.160        80
48.170        40
48.180        73
48.190        40
48.200        87
48.210        60
48.220        80
48.230        60
48.240        73
48.250        67
48.260        53
48.270        53
48.280        47
48.290        67
48.300        60
48.310        67
48.320        80
48.330        87
48.340        67
48.350        67
48.360        47
48.370        87
48.380        40
48.390        87
48.400        80
48.410        67
48.420        33
48.430        93
48.440        87
48.450       100
48.460        40
48.470        67
48.480       107
48.490        53
48.500        73
48.510        40
48.520        67
48.530        33
48.540        87
48.550        67
48.560        67
48.570        40
48.580        53
48.590        60
48.600        60
48.610        60
48.620        60
48.630        53
48.640        73
48.650        87
48.660        47
48.670       113
48.680        40
48.690        87
48.700        47
48.710        40
48.720        33
48.730        47
48.740        67
48.750        53
48.760        47
48.770        47
48.780        40
48.790        47
48.800        47
48.810        67
48.820        33
48.830        67
48.840        53
48.850        60
48.860        87
48.870        53
48.880        60
48.890        53
48.900        80
48.910        60
48.920        80
48.930        53
48.940        73
48.950        13
48.960        80
48.970        53
48.980        40
48.990        73
49.000        40
49.010        73
49.020        40
49.030        47
49.040        60
49.050        53
49.060        47
49.070        40
49.080        47
49.090        40
49.100        67
49.110        60
49.120        33
49.130        53
49.140        93
49.150        53
49.160        60
49.170        33
49.180        33
49.190        73
49.200       100
49.210        33
49.220        60
49.230        73
49.240        53
49.250        40
49.260        33
49.270       107
49.280        53
49.290       107
49.300        67
49.310        73
49.320        53
49.330        40
49.340        87
49.350        87
49.360        47
49.370        60
49.380        60
49.390       100
49.400        47
49.410        47
49.420        40
49.430        40
49.440        73
49.450        53
49.460        53
49.470        53
49.480        53
49.490        53
49.500        67
49.510        40
49.520        67
49.530        67
49.540        60
49.550        60
49.560        67
49.570        53
49.580        60
49.590        93
49.600        67
49.610        33
49.620        80
49.630        40
49.640        60
49.650        40
49.660        53
49.670        67
49.680        80
49.690        20
49.700        73
49.710        67
49.720        60
49.730        47
49.740        67
49.750        47
49.760        20
49.770        27
49.780        60
49.790        40
49.800        33
49.810        67
49.820        27
49.830        53
49.840        60
49.850        53
49.860        80
49.870        67
49.880        60
49.890        40
49.900        53
49.910        73
49.920        73
49.930        53
49.940        80
49.950        53
49.960        40
49.970        53
49.980        67
49.990        40
50.000        53
50.010        67
50.020        33
50.030        27
50.040        67
50.050        20
50.060        47
50.070        80
50.080        40
50.090        40
50.100        60
50.110        80
50.120        53
50.130        47
50.140        27
50.150        53
50.160        47
50.170        73
50.180        47
50.190        67
50.200        20
50.210        67
50.220        53
50.230        47
50.240        93
50.250        47
50.260        60
50.270        93
50.280        47
50.290        73
50.300        60
50.310        27
50.320        67
50.330        47
50.340        67
50.350        53
50.360        60
50.370        47
50.380        53
50.390        47
50.400        47
50.410        33
50.420        33
50.430        73
50.440        60
50.450        33
50.460        47
50.470        73
50.480        53
50.490        80
50.500        47
50.510        73
50.520        73
50.530        67
50.540        60
50.550        40
50.560        53
50.570        53
50.580        47
50.590        53
50.600        80
50.610        67
50.620        80
50.630        93
50.640        87
50.650       120
50.660       127
50.670       180
50.680       207
50.690       287
50.700       267
50.710       393
50.720       347
50.730       466
50.740       393
50.750       513
50.760       460
50.770       480
50.780       520
50.790       486
50.800       500
50.810       446
50.820       560
50.830       520
50.840       387
50.850       513
50.860       500
50.870       486
50.880       506
50.890       546
50.900       466
50.910       466
50.920       453
50.930       480
50.940       387
50.950       473
50.960       500
50.970       393
50.980       480
50.990       453
51.000       426
51.010       453
51.020       473
51.030       500
51.040       500
51.050       440
51.060       460
51.070       466
51.080       540
51.090       573
51.100       500
51.110       513
51.120       493
51.130       433
51.140       480
51.150       453
51.160       520
51.170       500
51.180       453
51.190       473
51.200       473
51.210       553
51.220       540
51.230       466
51.240       333
51.250       440
51.260       506
51.270       493
51.280       440
51.290       506
51.300       460
51.310       520
51.320       506
51.330       520
51.340       533
51.350       460
51.360       453
51.370       420
51.380       506
51.390       533
51.400       420
51.410       506
51.420       480
51.430       486
51.440       560
51.450       453
51.460       460
51.470       500
51.480       620
51.490       460
51.500       580
51.510       546
51.520       393
51.530       426
51.540       540
51.550       500
51.560       553
51.570       580
51.580       546
51.590       560
51.600       493
51.610       593
51.620       513
51.630       526
51.640       413
51.650       460
51.660       473
51.670       493
51.680       586
51.690       553
51.700       486
51.710       453
51.720       480
51.730       700
51.740       513
51.750       546
51.760       466
51.770       566
51.780       526
51.790       520
51.800       513
51.810       473
51.820       600
51.830       506
51.840       566
51.850       613
51.860       533
51.870       606
51.880       606
51.890       560
51.900       526
51.910       720
51.920       626
51.930       686
51.940       686
51.950       566
51.960       573
51.970       660
51.980       653
51.990       706
52.000       600
52.010       633
52.020       626
52.030       713
52.040       653
52.050       733
52.060       766
52.070       666
52.080       680
52.090       653
52.100       773
52.110       726
52.120       840
52.130       846
52.140       840
52.150       766
52.160       820
52.170       846
52.180       873
52.190       946
52.200       966
52.210       900
52.220      1259
52.230      1093
52.240      1186
52.250       993
52.260      1173
52.270      1359
52.280      1326
52.290      1519
52.300      1706
52.310      2053
52.320      2166
52.330      2592
52.340      2746
52.350      3252
52.360      3798
52.370      3679
52.380      3905
52.390      3958
52.400      4018
52.410      4438
52.420      4671
52.430      4925
52.440      5731
52.450      6391
52.460      7850
52.470      9150
52.480     10183
52.490     11202
52.500     14168
52.510     15600
52.520     18253
52.530     20965
52.540     27222
52.550     36672
52.560     54685
52.570     86752
52.580    126636
52.590    159336
52.600    180661
52.610    191603
52.620    193922
52.630    190497
52.640    174950
52.650    144076
52.660    108197
52.670     73597
52.680     53932
52.690     46135
52.700     49394
52.710     61895
52.720     81634
52.730     98274
52.740    112002
52.750    118886
52.760    120712
52.770    115474
52.780    104951
52.790     84273
52.800     61715
52.810     40364
52.820     26050
52.830     18599
52.840     14667
52.850     12981
52.860     11342
52.870     10149
52.880      8863
52.890      8010
52.900      7617
52.910      6844
52.920      6018
52.930      4785
52.940      4052
52.950      3359
52.960      2786
52.970      2286
52.980      2272
52.990      1993
53.000      1753
53.010      1859
53.020      1559
53.030      1653
53.040      1586
53.050      1493
53.060      1473
53.070      1233
53.080      1446
53.090      1319
53.100      1226
53.110      1206
53.120      1126
53.130      1066
53.140      1206
53.150       986
53.160      1080
53.170      1093
53.180       946
53.190       900
53.200       820
53.210       866
53.220       833
53.230       806
53.240       726
53.250       973
53.260       713
53.270       800
53.280       866
53.290       753
53.300       860
53.310       693
53.320       800
53.330       686
53.340       706
53.350       820
53.360       766
53.370       873
53.380       800
53.390       640
53.400       540
53.410       766
53.420       666
53.430       613
53.440       646
53.450       620
53.460       480
53.470       520
53.480       600
53.490       580
53.500       600
53.510       613
53.520       533
53.530       580
53.540       480
53.550       606
53.560       580
53.570       460
53.580       546
53.590       613
53.600       400
53.610       506
53.620       633
53.630       520
53.640       493
53.650       526
53.660       673
53.670       460
53.680       560
53.690       480
53.700       473
53.710       526
53.720       473
53.730       506
53.740       500
53.750       486
53.760       500
53.770       486
53.780       413
53.790       446
53.800       400
53.810       453
53.820       473
53.830       327
53.840       480
53.850       387
53.860       360
53.870       367
53.880       426
53.890       460
53.900       446
53.910       466
53.920       400
53.930       393
53.940       500
53.950       446
53.960       480
53.970       387
53.980       426
53.990       400
54.000       380
54.010       433
54.020       407
54.030       440
54.040       367
54.050       480
54.060       500
54.070       466
54.080       466
54.090       413
54.100       446
54.110       367
54.120       407
54.130       367
54.140       340
54.150       373
54.160       413
54.170       486
54.180       340
54.190       466
54.200       380
54.210       453
54.220       407
54.230       347
54.240       333
54.250       387
54.260       420
54.270       320
54.280       300
54.290       407
54.300       273
54.310       393
54.320       413
54.330       373
54.340       413
54.350       367
54.360       300
54.370       473
54.380       413
54.390       293
54.400       413
54.410       287
54.420       273
54.430       267
54.440       327
54.450       320
54.460       360
54.470       380
54.480       500
54.490       287
54.500       387
54.510       380
54.520       327
54.530       400
54.540       353
54.550       340
54.560       300
54.570       273
54.580       320
54.590       360
54.600       367
54.610       526
54.620       373
54.630       300
54.640       420
54.650       340
54.660       313
54.670       426
54.680       227
54.690       313
54.700       393
54.710       433
54.720       320
54.730       413
54.740       353
54.750       300
54.760       400
54.770       373
54.780       320
54.790       293
54.800       313
54.810       400
54.820       307
54.830       347
54.840       287
54.850       387
54.860       313
54.870       307
54.880       247
54.890       273
54.900       347
54.910       267
54.920       287
54.930       260
54.940       367
54.950       293
54.960       327
54.970       367
54.980       267
54.990       293
55.000       340
55.010       327
55.020       353
55.030       213
55.040       347
55.050       327
55.060       273
55.070       327
55.080       240
55.090       313
55.100       387
55.110       253
55.120       307
55.130       353
55.140       293
55.150       347
55.160       293
55.170       353
55.180       353
55.190       300
55.200       273
55.210       307
55.220       260
55.230       460
55.240       280
55.250       280
55.260       273
55.270       333
55.280       293
55.290       293
55.300       213
55.310       273
55.320       260
55.330       300
55.340       313
55.350       260
55.360       240
55.370       280
55.380       360
55.390       213
55.400       347
55.410       240
55.420       260
55.430       240
55.440       347
55.450       313
55.460       240
55.470       253
55.480       273
55.490       287
55.500       340
55.510       280
55.520       260
55.530       307
55.540       233
55.550       207
55.560       280
55.570       280
55.580       280
55.590       253
55.600       260
55.610       247
55.620       313
55.630       353
55.640       200
55.650       247
55.660       233
55.670       273
55.680       220
55.690       300
55.700       313
55.710       320
55.720       280
55.730       240
55.740       300
55.750       213
55.760       313
55.770       227
55.780       273
55.790       327
55.800       327
55.810       280
55.820       207
55.830       233
55.840       193
55.850       273
55.860       267
55.870       293
55.880       300
55.890       253
55.900       247
55.910       260
55.920       280
55.930       273
55.940       273
55.950       227
55.960       253
55.970       267
55.980       247
55.990       260
56.000       260
56.010       327
56.020       233
56.030       200
56.040       220
56.050       193
56.060       233
56.070       267
56.080       260
56.090       333
56.100       220
56.110       227
56.120       213
56.130       207
56.140       287
56.150       213
56.160       173
56.170       253
56.180       233
56.190       273
56.200       253
56.210       273
56.220       167
56.230       267
56.240       240
56.250       300
56.260       213
56.270       260
56.280       273
56.290       300
56.300       240
56.310       233
56.320       280
56.330       187
56.340       247
56.350       300
56.360       207
56.370       207
56.380       213
56.390       287
56.400       240
56.410       200
56.420       200
56.430       193
56.440       207
56.450       253
56.460       307
56.470       207
56.480       253
56.490       207
56.500       200
56.510       247
56.520       227
56.530       300
56.540       240
56.550       227
56.560       193
56.570       327
56.580       253
56.590       193
56.600       300
56.610       200
56.620       213
56.630       213
56.640       233
56.650       213
56.660       233
56.670       280
56.680       187
56.690       220
56.700       207
56.710       153
56.720       233
56.730       180
56.740       247
56.750       273
56.760       220
56.770       240
56.780       260
56.790       153
56.800       233
56.810       280
56.820       213
56.830       273
56.840       193
56.850       173
56.860       233
56.870       240
56.880       233
56.890       227
56.900       193
56.910       287
56.920       227
56.930       207
56.940       187
56.950       233
56.960       287
56.970       293
56.980       220
56.990       220
57.000       167
57.010       253
57.020       140
57.030       160
57.040       207
57.050       240
57.060       193
57.070       193
57.080       160
57.090       113
57.100       213
57.110       233
57.120       233
57.130       200
57.140       260
57.150       133
57.160       220
57.170       227
57.180       213
57.190       140
57.200       213
57.210       260
57.220       247
57.230       153
57.240       233
57.250       187
57.260       233
57.270       187
57.280       260
57.290       160
57.300       240
57.310       160
57.320       220
57.330       240
57.340       200
57.350       213
57.360       293
57.370       247
57.380       200
57.390       140
57.400       233
57.410       227
57.420       167
57.430       200
57.440       140
57.450       220
57.460       207
57.470       253
57.480       220
57.490       153
57.500       193
57.510       267
57.520       187
57.530       160
57.540       193
57.550       207
57.560       247
57.570       160
57.580       133
57.590       200
57.600       220
57.610       220
57.620       147
57.630       207
57.640       207
57.650       280
57.660       173
57.670       280
57.680       300
57.690       200
57.700       213
57.710       213
57.720       207
57.730       260
57.740       160
57.750       167
57.760       140
57.770       220
57.780       213
57.790       160
57.800       160
57.810       193
57.820       153
57.830       167
57.840       147
57.850       167
57.860       193
57.870       213
57.880       220
57.890       207
57.900       193
57.910       160
57.920       200
57.930       180
57.940       167
57.950       173
57.960       187
57.970       213
57.980       147
57.990       173
58.000       253
58.010       173
58.020       193
58.030       200
58.040       253
58.050       247
58.060       153
58.070       200
58.080       127
58.090       173
58.100       213
58.110       273
58.120       173
58.130       193
58.140       180
58.150       240
58.160       227
58.170       207
58.180       240
58.190       213
58.200       160
58.210       160
58.220       140
58.230       187
58.240       120
58.250       207
58.260       140
58.270       187
58.280       200
58.290       193
58.300       120
58.310       180
58.320       167
58.330       173
58.340       153
58.350       187
58.360       133
58.370       107
58.380       153
58.390       147
58.400       213
58.410       173
58.420       220
58.430       233
58.440       113
58.450       253
58.460       167
58.470       173
58.480       180
58.490       100
58.500       153
58.510       160
58.520       213
58.530       167
58.540       153
58.550       213
58.560       120
58.570       200
58.580       180
58.590       213
58.600       253
58.610       207
58.620       160
58.630       187
58.640       213
58.650       120
58.660       187
58.670       233
58.680       153
58.690       133
58.700       267
58.710       207
58.720       180
58.730       200
58.740       160
58.750       200
58.760       207
58.770       167
58.780       153
58.790       200
58.800       200
58.810       140
58.820       187
58.830       173
58.840       160
58.850       193
58.860       153
58.870       167
58.880       187
58.890       140
58.900       140
58.910       133
58.920       147
58.930       147
58.940       213
58.950       100
58.960       207
58.970       180
58.980       140
58.990       167
59.000       193
59.010       180
59.020       153
59.030       167
59.040       273
59.050       107
59.060       140
59.070       160
59.080       187
59.090       200
59.100       220
59.110       107
59.120       160
59.130       127
59.140       147
59.150       100
59.160       160
59.170       140
59.180       147
59.190       180
59.200       153
59.210       107
59.220       133
59.230       207
59.240       100
59.250       160
59.260       133
59.270       107
59.280       153
59.290       147
59.300        73
59.310       167
59.320       213
59.330       133
59.340       140
59.350       200
59.360       167
59.370       207
59.380       207
59.390       227
59.400       173
59.410       133
59.420       160
59.430       100
59.440       107
59.450       167
59.460       180
59.470       233
59.480       187
59.490       127
59.500       147
59.510       187
59.520       207
59.530       180
59.540       113
59.550       227
59.560       173
59.570       187
59.580       133
59.590       207
59.600       167
59.610       167
59.620       180
59.630       160
59.640       213
59.650       173
59.660       180
59.670       127
59.680       220
59.690       160
59.700       133
59.710       167
59.720       207
59.730       167
59.740       200
59.750       140
59.760       187
59.770       200
59.780       120
59.790       107
59.800       113
59.810       100
59.820       160
59.830       140
59.840       187
59.850       173
59.860       187
59.870       140
59.880       173
59.890       147
59.900       127
59.910       240
59.920       193
59.930       147
59.940       100
59.950       153
59.960       193
59.970       120
59.980       120
59.990       107
60.000       147
