20.000        27
20.010        40
20.020        27
20.030        67
20.040        33
20.050        47
20.060        53
20.070        20
20.080        47
20.090       113
20.100        33
20.110        33
20.120        47
20.130        60
20.140        40
20.150        40
20.160        40
20.170        27
20.180        27
20.190        60
20.200        67
20.210        27
20.220        33
20.230        47
20.240        33
20.250        53
20.260        53
20.270        47
20.280        40
20.290        60
20.300        13
20.310        67
20.320        27
20.330        40
20.340        73
20.350        53
20.360        73
20.370        27
20.380        33
20.390        40
20.400        53
20.410        60
20.420        87
20.430        33
20.440        73
20.450        40
20.460        80
20.470        47
20.480        67
20.490        87
20.500        40
20.510        80
20.520        47
20.530        33
20.540        47
20.550        47
20.560        33
20.570        53
20.580        27
20.590        33
20.600        47
20.610        67
20.620        53
20.630        67
20.640        47
20.650        27
20.660        40
20.670        20
20.680        47
20.690        20
20.700        53
20.710        27
20.720        47
20.730        40
20.740       133
20.750        40
20.760        80
20.770        60
20.780        47
20.790        40
20.800        67
20.810        13
20.820        87
20.830        60
20.840        47
20.850        13
20.860        33
20.870        60
20.880        60
20.890        33
20.900        53
20.910        53
20.920        40
20.930        40
20.940        40
20.950        40
20.960        47
20.970        67
20.980        67
20.990        53
21.000        33
21.010        47
21.020        93
21.030        33
21.040        53
21.050        27
21.060        20
21.070        80
21.080        40
21.090        33
21.100        47
21.110         7
21.120        67
21.130        40
21.140        47
21.150        53
21.160        20
21.170        53
21.180        73
21.190        60
21.200        33
21.210        60
21.220        60
21.230        40
21.240        40
21.250        27
21.260        73
21.270        53
21.280        53
21.290        27
21.300        33
21.310       100
21.320        47
21.330        60
21.340        47
21.350        47
21.360        27
21.370        40
21.380        53
21.390        67
21.400        80
21.410        67
21.420        93
21.430        73
21.440        60
21.450        53
21.460        60
21.470        47
21.480        60
21.490        33
21.500        80
21.510        20
21.520        60
21.530        53
21.540        40
21.550        80
21.560        47
21.570        40
21.580        47
21.590        27
21.600        60
21.610        60
21.620        40
21.630        60
21.640        40
21.650        33
21.660        20
21.670        47
21.680        27
21.690        73
21.700        67
21.710        73
21.720        27
21.730        27
21.740        13
21.750        60
21.760        13
21.770        40
21.780        93
21.790        47
21.800        47
21.810        73
21.820        33
21.830        67
21.840        40
21.850        67
21.860        47
21.870        80
21.880        47
21.890        40
21.900        40
21.910        20
21.920        33
21.930        47
21.940        47
21.950        53
21.960        67
21.970        33
21.980        47
21.990        73
22.000        40
22.010        47
22.020        67
22.030        67
22.040        47
22.050        33
22.060        20
22.070        53
22.080        60
22.090        33
22.100        27
22.110        60
22.120        47
22.130        40
22.140        53
22.150        53
22.160        27
22.170        27
22.180        33
22.190        47
22.200        40
22.210        80
22.220        87
22.230        67
22.240        53
22.250        80
22.260        67
22.270        40
22.280        93
22.290        20
22.300        53
22.310        47
22.320       107
22.330        93
22.340        60
22.350        20
22.360        53
22.370        73
22.380       100
22.390        53
22.400        53
22.410        67
22.420        53
22.430        67
22.440        47
22.450        67
22.460        73
22.470        73
22.480        87
22.490        60
22.500        87
22.510        73
22.520        93
22.530        73
22.540       120
22.550       153
22.560       153
22.570       100
22.580       120
22.590        80
22.600       160
22.610       153
22.620       113
22.630       180
22.640       240
22.650       240
22.660       240
22.670       213
22.680       300
22.690       307
22.700       320
22.710       227
22.720       473
22.730       506
22.740       433
22.750       360
22.760       433
22.770       433
22.780       453
22.790       446
22.800       506
22.810       333
22.820       440
22.830       393
22.840       300
22.850       360
22.860       313
22.870       300
22.880       300
22.890       207
22.900       193
22.910       227
22.920       260
22.930       187
22.940       160
22.950       120
22.960       167
22.970       173
22.980        40
22.990       147
23.000        93
23.010        67
23.020        93
23.030        87
23.040        67
23.050        67
23.060        73
23.070        80
23.080        33
23.090       107
23.100        80
23.110        73
23.120       120
23.130        73
23.140       153
23.150       100
23.160       100
23.170        60
23.180        53
23.190        60
23.200        93
23.210        53
23.220        60
23.230        73
23.240        60
23.250        60
23.260        80
23.270        80
23.280        40
23.290        93
23.300        27
23.310        33
23.320       113
23.330        53
23.340        53
23.350        80
23.360       107
23.370        73
23.380        80
23.390       100
23.400        80
23.410        73
23.420        73
23.430        60
23.440        53
23.450        73
23.460        53
23.470        53
23.480        60
23.490        47
23.500        87
23.510        87
23.520        80
23.530        53
23.540        93
23.550        80
23.560        53
23.570        80
23.580        53
23.590        33
23.600        93
23.610        73
23.620        67
23.630        87
23.640        67
23.650        60
23.660        60
23.670        67
23.680         0
23.690        33
23.700        73
23.710        87
23.720        40
23.730        40
23.740        47
23.750       100
23.760        67
23.770        40
23.780        67
23.790        60
23.800        40
23.810        60
23.820        40
23.830       107
23.840       100
23.850        53
23.860        40
23.870        93
23.880       100
23.890        47
23.900        27
23.910        80
23.920        67
23.930        47
23.940        47
23.950        60
23.960        53
23.970        60
23.980        53
23.990        67
24.000        53
24.010        80
24.020        73
24.030        60
24.040        47
24.050        80
24.060        73
24.070        80
24.080        27
24.090        53
24.100        80
24.110        60
24.120        73
24.130        80
24.140        53
24.150        73
24.160        53
24.170        47
24.180        93
24.190        20
24.200        47
24.210        73
24.220        93
24.230        60
24.240        73
24.250        53
24.260        27
24.270        60
24.280       100
24.290        60
24.300        33
24.310        47
24.320        80
24.330        40
24.340        47
24.350        73
24.360        73
24.370        47
24.380        47
24.390        67
24.400        80
24.410        73
24.420        33
24.430        53
24.440        73
24.450        80
24.460        33
24.470        53
24.480        87
24.490        80
24.500        93
24.510        73
24.520        53
24.530        53
24.540       113
24.550        87
24.560        80
24.570        53
24.580        53
24.590       100
24.600        60
24.610        93
24.620       120
24.630        67
24.640        80
24.650        80
24.660       113
24.670        87
24.680        80
24.690       147
24.700       113
24.710       113
24.720        80
24.730       187
24.740       107
24.750       187
24.760       133
24.770       120
24.780        87
24.790       180
24.800       133
24.810       180
24.820       147
24.830       147
24.840       233
24.850       160
24.860       173
24.870       167
24.880       153
24.890       187
24.900       107
24.910       153
24.920       167
24.930       200
24.940       180
24.950       133
24.960       167
24.970       173
24.980       133
24.990       167
25.000       107
25.010        80
25.020       187
25.030       127
25.040       133
25.050       173
25.060       167
25.070       207
25.080       207
25.090       147
25.100        73
25.110       127
25.120       187
25.130       173
25.140       153
25.150        93
25.160       200
25.170       180
25.180       167
25.190       167
25.200       187
25.210       120
25.220       147
25.230       160
25.240       247
25.250       193
25.260       240
25.270       287
25.280       253
25.290       320
25.300       373
25.310       593
25.320       733
25.330      1046
25.340      1126
25.350      1633
25.360      2059
25.370      2272
25.380      2812
25.390      3492
25.400      3719
25.410      4465
25.420      5365
25.430      5145
25.440      5418
25.450      5924
25.460      5844
25.470      6064
25.480      5944
25.490      5351
25.500      5165
25.510      5065
25.520      4745
25.530      3905
25.540      4098
25.550      4078
25.560      4192
25.570      4505
25.580      6191
25.590      8570
25.600     11562
25.610     14707
25.620     18593
25.630     22278
25.640     23384
25.650     19659
25.660     14181
25.670     11202
25.680     10869
25.690     11435
25.700     12215
25.710     10796
25.720      6851
25.730      4405
25.740      2226
25.750      1273
25.760       833
25.770       713
25.780       540
25.790       407
25.800       480
25.810       473
25.820       413
25.830       340
25.840       267
25.850       273
25.860       273
25.870       327
25.880       247
25.890       273
25.900       253
25.910       327
25.920       253
25.930       340
25.940       207
25.950       280
25.960       220
25.970       220
25.980       240
25.990       207
26.000       213
26.010       327
26.020       213
26.030       300
26.040       207
26.050       180
26.060       173
26.070       193
26.080       240
26.090       153
26.100       253
26.110       173
26.120       187
26.130       187
26.140       293
26.150       220
26.160       167
26.170       267
26.180       193
26.190       233
26.200       187
26.210       173
26.220       207
26.230       193
26.240       187
26.250       260
26.260       233
26.270       240
26.280       280
26.290        93
26.300       253
26.310       207
26.320       200
26.330       200
26.340       220
26.350       227
26.360       247
26.370       193
26.380       173
26.390       260
26.400       253
26.410       140
26.420       220
26.430       233
26.440       220
26.450       220
26.460       160
26.470       147
26.480       227
26.490       220
26.500       200
26.510       153
26.520       313
26.530       200
26.540       160
26.550       187
26.560       253
26.570       160
26.580       233
26.590       207
26.600       253
26.610       193
26.620       213
26.630       227
26.640       240
26.650       193
26.660       160
26.670       253
26.680       200
26.690       140
26.700       193
26.710       347
26.720       227
26.730       173
26.740       193
26.750       193
26.760       180
26.770       260
26.780       267
26.790       280
26.800       213
26.810       247
26.820       233
26.830       260
26.840       240
26.850       227
26.860       227
26.870       220
26.880       247
26.890       240
26.900       180
26.910       273
26.920       200
26.930       227
26.940       227
26.950       313
26.960       273
26.970       227
26.980       187
26.990       253
27.000       193
27.010       227
27.020       187
27.030       233
27.040       207
27.050       207
27.060       213
27.070       287
27.080       253
27.090       260
27.100       287
27.110       220
27.120       187
27.130       213
27.140       233
27.150       233
27.160       233
27.170       167
27.180       260
27.190       253
27.200       267
27.210       220
27.220       227
27.230       253
27.240       253
27.250       240
27.260       160
27.270       187
27.280       233
27.290       213
27.300       233
27.310       220
27.320       280
27.330       273
27.340       267
27.350       300
27.360       287
27.370       273
27.380       207
27.390       233
27.400       207
27.410       307
27.420       273
27.430       213
27.440       227
27.450       213
27.460       247
27.470       300
27.480       260
27.490       193
27.500       200
27.510       233
27.520       207
27.530       247
27.540       227
27.550       227
27.560       220
27.570       200
27.580       247
27.590       240
27.600       253
27.610       287
27.620       247
27.630       160
27.640       187
27.650       213
27.660       240
27.670       260
27.680       240
27.690       220
27.700       280
27.710       187
27.720       253
27.730       253
27.740       247
27.750       187
27.760       253
27.770       213
27.780       253
27.790       240
27.800       293
27.810       180
27.820       267
27.830       300
27.840       300
27.850       233
27.860       267
27.870       253
27.880       253
27.890       227
27.900       227
27.910       207
27.920       227
27.930       253
27.940       227
27.950       420
27.960       253
27.970       307
27.980       227
27.990       293
28.000       273
28.010       413
28.020       360
28.030       293
28.040       313
28.050       347
28.060       207
28.070       260
28.080       333
28.090       333
28.100       293
28.110       267
28.120       273
28.130       267
28.140       313
28.150       287
28.160       280
28.170       280
28.180       253
28.190       333
28.200       247
28.210       240
28.220       313
28.230       340
28.240       300
28.250       227
28.260       360
28.270       360
28.280       420
28.290       307
28.300       227
28.310       233
28.320       327
28.330       287
28.340       287
28.350       373
28.360       327
28.370       253
28.380       307
28.390       353
28.400       320
28.410       233
28.420       187
28.430       300
28.440       347
28.450       320
28.460       180
28.470       267
28.480       320
28.490       300
28.500       300
28.510       267
28.520       300
28.530       320
28.540       240
28.550       247
28.560       353
28.570       360
28.580       380
28.590       313
28.600       340
28.610       267
28.620       340
28.630       466
28.640       260
28.650       333
28.660       253
28.670       220
28.680       267
28.690       293
28.700       413
28.710       247
28.720       187
28.730       287
28.740       267
28.750       353
28.760       313
28.770       353
28.780       333
28.790       340
28.800       240
28.810       300
28.820       233
28.830       373
28.840       367
28.850       253
28.860       260
28.870       307
28.880       240
28.890       307
28.900       307
28.910       267
28.920       327
28.930       347
28.940       287
28.950       220
28.960       287
28.970       300
28.980       280
28.990       273
29.000       293
29.010       247
29.020       280
29.030       320
29.040       300
29.050       240
29.060       320
29.070       240
29.080       307
29.090       220
29.100       293
29.110       253
29.120       320
29.130       327
29.140       300
29.150       340
29.160       287
29.170       333
29.180       280
29.190       287
29.200       327
29.210       353
29.220       253
29.230       213
29.240       293
29.250       240
29.260       280
29.270       307
29.280       300
29.290       287
29.300       313
29.310       347
29.320       273
29.330       267
29.340       320
29.350       307
29.360       347
29.370       333
29.380       227
29.390       327
29.400       293
29.410       313
29.420       313
29.430       273
29.440       267
29.450       340
29.460       333
29.470       273
29.480       260
29.490       253
29.500       273
29.510       267
29.520       280
29.530       313
29.540       307
29.550       280
29.560       233
29.570       267
29.580       280
29.590       253
29.600       240
29.610       260
29.620       267
29.630       320
29.640       280
29.650       213
29.660       227
29.670       213
29.680       313
29.690       360
29.700       267
29.710       327
29.720       280
29.730       333
29.740       300
29.750       247
29.760       253
29.770       367
29.780       307
29.790       260
29.800       247
29.810       273
29.820       253
29.830       307
29.840       387
29.850       240
29.860       253
29.870       293
29.880       247
29.890       327
29.900       287
29.910       280
29.920       353
29.930       240
29.940       360
29.950       287
29.960       273
29.970       260
29.980       320
29.990       220
30.000       307
30.010       280
30.020       373
30.030       260
30.040       240
30.050       340
30.060       293
30.070       273
30.080       380
30.090       333
30.100       387
30.110       220
30.120       340
30.130       260
30.140       207
30.150       247
30.160       307
30.170       227
30.180       347
30.190       200
30.200       280
30.210       340
30.220       393
30.230       293
30.240       320
30.250       333
30.260       253
30.270       287
30.280       300
30.290       240
30.300       293
30.310       260
30.320       280
30.330       287
30.340       313
30.350       160
30.360       400
30.370       287
30.380       300
30.390       327
30.400       253
30.410       327
30.420       313
30.430       367
30.440       300
30.450       227
30.460       260
30.470       233
30.480       260
30.490       293
30.500       227
30.510       287
30.520       253
30.530       320
30.540       200
30.550       260
30.560       320
30.570       307
30.580       287
30.590       273
30.600       333
30.610       287
30.620       220
30.630       233
30.640       267
30.650       233
30.660       227
30.670       253
30.680       247
30.690       260
30.700       300
30.710       247
30.720       280
30.730       253
30.740       273
30.750       287
30.760       293
30.770       213
30.780       280
30.790       280
30.800       267
30.810       247
30.820       220
30.830       340
30.840       247
30.850       333
30.860       287
30.870       300
30.880       280
30.890       320
30.900       240
30.910       253
30.920       247
30.930       173
30.940       307
30.950       213
30.960       280
30.970       233
30.980       200
30.990       260
31.000       253
31.010       300
31.020       240
31.030       220
31.040       240
31.050       220
31.060       267
31.070       260
31.080       273
31.090       233
31.100       247
31.110       260
31.120       320
31.130       280
31.140       293
31.150       260
31.160       287
31.170       187
31.180       213
31.190       280
31.200       193
31.210       233
31.220       233
31.230       307
31.240       240
31.250       267
31.260       287
31.270       200
31.280       220
31.290       293
31.300       240
31.310       280
31.320       267
31.330       240
31.340       233
31.350       260
31.360       200
31.370       227
31.380       200
31.390       213
31.400       280
31.410       260
31.420       280
31.430       200
31.440       207
31.450       260
31.460       200
31.470       213
31.480       200
31.490       120
31.500       293
31.510       293
31.520       253
31.530       287
31.540       207
31.550       273
31.560       293
31.570       267
31.580       280
31.590       247
31.600       227
31.610       200
31.620       260
31.630       253
31.640       193
31.650       280
31.660       180
31.670       273
31.680       313
31.690       213
31.700       253
31.710       233
31.720       213
31.730       260
31.740       260
31.750       200
31.760       273
31.770       213
31.780       187
31.790       253
31.800       320
31.810       193
31.820       200
31.830       247
31.840       207
31.850       247
31.860       240
31.870       227
31.880       207
31.890       173
31.900       200
31.910       273
31.920       340
31.930       187
31.940       240
31.950       213
31.960       220
31.970       260
31.980       200
31.990       213
32.000       280
32.010       233
32.020       213
32.030       233
32.040       253
32.050       213
32.060       247
32.070       293
32.080       280
32.090       260
32.100       247
32.110       180
32.120       247
32.130       293
32.140       220
32.150       267
32.160       293
32.170       307
32.180       200
32.190       220
32.200       273
32.210       240
32.220       280
32.230       227
32.240       280
32.250       360
32.260       247
32.270       400
32.280       440
32.290       280
32.300       253
32.310       307
32.320       380
32.330       367
32.340       353
32.350       413
32.360       373
32.370       466
32.380       407
32.390       446
32.400       360
32.410       393
32.420       433
32.430       480
32.440       453
32.450       426
32.460       480
32.470       426
32.480       433
32.490       387
32.500       360
32.510       380
32.520       387
32.530       347
32.540       373
32.550       393
32.560       313
32.570       273
32.580       327
32.590       313
32.600       400
32.610       340
32.620       307
32.630       213
32.640       273
32.650       233
32.660       307
32.670       253
32.680       267
32.690       213
32.700       280
32.710       220
32.720       213
32.730       227
32.740       167
32.750       213
32.760       180
32.770       167
32.780       207
32.790       273
32.800       180
32.810       180
32.820       167
32.830       180
32.840       300
32.850       273
32.860       180
32.870       227
32.880       107
32.890       233
32.900       200
32.910       240
32.920       213
32.930       220
32.940       207
32.950       220
32.960       200
32.970       193
32.980       160
32.990       227
33.000       200
33.010       287
33.020       233
33.030       167
33.040       187
33.050       233
33.060       260
33.070       187
33.080       253
33.090       167
33.100       207
33.110       153
33.120       147
33.130       153
33.140       120
33.150       180
33.160       200
33.170       187
33.180       213
33.190       180
33.200       180
33.210       127
33.220       160
33.230       213
33.240       173
33.250       200
33.260       173
33.270       127
33.280       187
33.290       227
33.300       167
33.310       160
33.320       173
33.330       160
33.340       273
33.350       220
33.360       233
33.370       227
33.380       267
33.390       260
33.400       107
33.410       147
33.420       173
33.430       153
33.440       200
33.450       167
33.460       173
33.470       213
33.480       187
33.490       140
33.500       113
33.510       173
33.520       160
33.530       127
33.540       153
33.550       160
33.560       167
33.570       207
33.580       133
33.590       140
33.600       227
33.610       193
33.620       167
33.630       140
33.640       193
33.650       147
33.660       200
33.670       167
33.680       173
33.690       127
33.700       207
33.710       233
33.720       167
33.730       200
33.740       147
33.750       200
33.760       147
33.770       233
33.780       147
33.790       153
33.800       187
33.810       193
33.820       200
33.830       193
33.840       153
33.850       120
33.860       173
33.870       180
33.880       133
33.890       180
33.900       207
33.910       160
33.920       153
33.930       180
33.940       167
33.950       153
33.960       167
33.970       180
33.980       147
33.990       180
34.000       113
34.010       153
34.020       193
34.030       133
34.040       153
34.050       127
34.060       187
34.070        93
34.080       193
34.090       187
34.100       147
34.110       180
34.120       173
34.130       200
34.140       167
34.150       153
34.160       120
34.170       127
34.180       173
34.190       187
34.200       147
34.210       173
34.220       100
34.230       180
34.240       140
34.250       167
34.260       160
34.270       187
34.280       167
34.290       160
34.300       147
34.310       193
34.320       140
34.330       213
34.340       113
34.350       193
34.360       173
34.370       133
34.380       153
34.390       220
34.400       100
34.410       160
34.420       133
34.430       220
34.440       140
34.450        80
34.460       127
34.470       207
34.480       133
34.490       193
34.500       140
34.510       100
34.520       193
34.530       187
34.540       267
34.550       180
34.560       160
34.570       213
34.580       133
34.590       127
34.600       127
34.610       100
34.620       180
34.630       193
34.640       193
34.650       153
34.660       187
34.670       147
34.680       153
34.690       193
34.700       113
34.710       187
34.720       140
34.730       120
34.740       147
34.750       140
34.760       160
34.770       100
34.780       100
34.790       153
34.800       140
34.810       187
34.820       140
34.830       200
34.840       187
34.850       120
34.860       173
34.870       160
34.880       107
34.890       153
34.900       127
34.910       153
34.920       127
34.930       133
34.940       107
34.950       120
34.960        93
34.970       193
34.980        93
34.990       153
35.000       133
35.010       153
35.020       127
35.030       153
35.040        93
35.050       147
35.060       127
35.070       193
35.080       147
35.090       140
35.100       147
35.110       147
35.120       127
35.130       220
35.140       153
35.150       113
35.160       127
35.170       147
35.180       160
35.190       113
35.200       107
35.210       180
35.220       180
35.230       160
35.240       153
35.250       140
35.260       180
35.270       193
35.280       160
35.290       113
35.300       160
35.310       100
35.320       167
35.330       107
35.340       127
35.350       107
35.360       133
35.370        93
35.380       113
35.390       120
35.400       180
35.410       153
35.420       100
35.430       113
35.440       127
35.450       147
35.460       147
35.470       133
35.480       120
35.490       120
35.500       133
35.510       160
35.520       113
35.530       173
35.540       193
35.550        80
35.560       100
35.570       120
35.580       133
35.590       120
35.600       120
35.610       180
35.620        60
35.630       133
35.640       173
35.650        87
35.660       107
35.670       147
35.680       160
35.690       113
35.700       113
35.710       147
35.720       107
35.730       100
35.740       180
35.750       160
35.760       173
35.770       107
35.780       140
35.790       140
35.800       100
35.810       133
35.820       167
35.830        87
35.840       147
35.850       173
35.860        93
35.870       133
35.880       140
35.890       220
35.900       120
35.910       120
35.920       127
35.930       107
35.940       127
35.950       100
35.960       160
35.970       133
35.980        80
35.990       140
36.000       173
36.010       113
36.020        87
36.030       140
36.040       120
36.050       187
36.060       153
36.070       180
36.080       113
36.090       180
36.100       100
36.110       120
36.120       153
36.130       100
36.140       153
36.150       147
36.160       140
36.170       113
36.180       167
36.190       120
36.200       173
36.210       107
36.220       127
36.230       113
36.240       100
36.250        93
36.260       153
36.270       133
36.280       120
36.290       140
36.300       107
36.310        93
36.320       100
36.330        87
36.340        87
36.350       127
36.360       127
36.370       100
36.380        80
36.390       120
36.400       127
36.410       100
36.420       160
36.430        80
36.440       100
36.450       113
36.460       120
36.470       193
36.480       173
36.490       140
36.500        87
36.510       127
36.520       100
36.530        87
36.540       113
36.550       113
36.560       140
36.570       113
36.580       100
36.590       167
36.600       127
36.610        73
36.620       160
36.630        80
36.640       113
36.650       153
36.660       113
36.670       127
36.680       167
36.690       107
36.700       107
36.710        93
36.720       133
36.730        73
36.740       113
36.750        53
36.760       107
36.770       107
36.780       127
36.790       120
36.800        53
36.810       107
36.820       133
36.830        73
36.840       113
36.850       113
36.860       133
36.870        93
36.880       120
36.890       100
36.900       127
36.910       147
36.920       160
36.930        73
36.940        73
36.950       107
36.960       107
36.970        67
36.980        87
36.990        73
37.000        93
37.010       120
37.020       113
37.030        93
37.040       100
37.050       153
37.060       113
37.070        73
37.080        47
37.090       113
37.100       120
37.110       107
37.120        67
37.130       100
37.140       120
37.150        93
37.160       113
37.170        87
37.180        67
37.190       100
37.200       120
37.210        60
37.220       133
37.230       107
37.240        93
37.250        60
37.260       100
37.270       100
37.280       107
37.290        47
37.300       140
37.310        53
37.320       147
37.330       107
37.340       100
37.350       113
37.360       133
37.370       120
37.380       107
37.390        93
37.400       100
37.410        87
37.420       120
37.430       113
37.440        93
37.450       100
37.460        80
37.470       127
37.480       127
37.490        93
37.500        67
37.510       107
37.520       107
37.530       100
37.540        60
37.550       113
37.560       100
37.570        73
37.580       120
37.590       100
37.600        80
37.610        67
37.620        93
37.630       127
37.640        93
37.650       113
37.660        80
37.670       133
37.680        87
37.690        87
37.700       107
37.710       120
37.720       127
37.730        80
37.740       107
37.750       133
37.760        93
37.770        73
37.780        67
37.790       113
37.800       120
37.810       127
37.820       120
37.830        40
37.840       127
37.850        80
37.860        40
37.870        73
37.880        87
37.890        73
37.900        93
37.910       100
37.920        87
37.930       107
37.940        47
37.950       120
37.960       100
37.970       120
37.980        87
37.990        87
38.000        67
38.010        80
38.020       140
38.030        93
38.040        93
38.050        67
38.060        80
38.070       127
38.080       113
38.090        87
38.100       100
38.110       100
38.120        80
38.130        80
38.140        93
38.150       107
38.160        67
38.170       100
38.180        60
38.190       127
38.200        87
38.210       107
38.220       107
38.230        80
38.240        73
38.250       113
38.260        87
38.270        87
38.280       113
38.290        93
38.300        93
38.310        67
38.320       107
38.330        73
38.340       120
38.350        73
38.360       100
38.370       107
38.380       120
38.390        67
38.400       140
38.410        93
38.420       133
38.430        80
38.440       100
38.450       107
38.460        73
38.470       160
38.480       100
38.490       100
38.500        53
38.510        67
38.520        47
38.530        40
38.540       140
38.550        67
38.560       100
38.570       120
38.580       100
38.590       107
38.600       120
38.610        60
38.620        80
38.630        80
38.640        93
38.650        87
38.660        80
38.670        93
38.680        87
38.690        80
38.700       127
38.710        87
38.720        33
38.730        60
38.740       100
38.750       127
38.760        93
38.770        47
38.780        73
38.790        73
38.800        73
38.810        53
38.820       113
38.830        60
38.840        67
38.850        93
38.860        67
38.870       107
38.880       100
38.890        67
38.900       133
38.910        73
38.920       120
38.930        80
38.940        93
38.950       113
38.960        53
38.970        47
38.980       100
38.990        80
39.000        73
39.010        73
39.020       100
39.030       120
39.040        80
39.050        73
39.060       107
39.070        67
39.080       107
39.090        67
39.100        60
39.110        53
39.120        87
39.130        53
39.140        67
39.150       120
39.160        93
39.170       113
39.180        80
39.190        93
39.200       100
39.210       120
39.220        60
39.230        80
39.240        60
39.250       107
39.260       100
39.270        87
39.280       120
39.290        67
39.300        53
39.310        73
39.320        80
39.330        60
39.340        60
39.350        80
39.360        67
39.370       100
39.380        87
39.390        93
39.400        33
39.410       120
39.420        80
39.430        47
39.440        80
39.450        60
39.460        93
39.470        87
39.480        73
39.490        93
39.500       100
39.510        33
39.520        80
39.530        80
39.540        73
39.550       100
39.560       100
39.570       100
39.580        87
39.590        53
39.600        60
39.610        80
39.620        73
39.630        53
39.640        40
39.650       113
39.660       113
39.670        67
39.680        73
39.690        93
39.700        87
39.710       133
39.720        93
39.730       100
39.740        73
39.750        80
39.760        73
39.770        40
39.780        87
39.790        80
39.800        93
39.810        87
39.820        67
39.830        73
39.840        73
39.850       120
39.860        87
39.870        87
39.880        60
39.890       113
39.900       133
39.910       107
39.920       133
39.930        53
39.940        87
39.950        87
39.960       120
39.970        73
39.980        87
39.990        93
40.000        67
40.010        93
40.020       107
40.030       107
40.040       100
40.050       113
40.060        87
40.070       120
40.080        67
40.090       107
40.100        80
40.110        93
40.120        93
40.130        87
40.140       147
40.150        53
40.160        60
40.170        60
40.180        73
40.190        87
40.200        53
40.210        60
40.220        60
40.230        60
40.240       100
40.250        80
40.260        67
40.270        27
40.280        87
40.290       100
40.300        80
40.310        87
40.320        87
40.330        60
40.340        73
40.350        47
40.360        73
40.370        33
40.380        60
40.390        27
40.400        67
40.410        60
40.420        67
40.430        60
40.440        80
40.450        93
40.460        67
40.470        73
40.480        67
40.490        67
40.500       113
40.510        53
40.520        53
40.530        47
40.540        67
40.550        53
40.560        60
40.570        40
40.580        53
40.590        93
40.600        60
40.610        60
40.620        40
40.630        87
40.640        53
40.650        40
40.660        73
40.670        47
40.680        47
40.690       100
40.700       107
40.710        47
40.720        53
40.730        40
40.740        53
40.750        27
40.760        67
40.770        47
40.780        53
40.790        53
40.800        47
40.810        67
40.820        80
40.830       100
40.840        53
40.850        60
40.860        40
40.870        80
40.880        60
40.890        53
40.900        60
40.910        73
40.920        60
40.930       127
40.940        67
40.950        60
40.960        87
40.970        67
40.980        47
40.990        80
41.000        47
41.010        27
41.020       120
41.030        60
41.040        87
41.050        40
41.060        87
41.070        27
41.080        67
41.090        53
41.100        47
41.110        53
41.120        53
41.130        47
41.140        67
41.150        53
41.160        87
41.170       107
41.180        47
41.190        60
41.200        47
41.210        87
41.220        73
41.230        67
41.240        40
41.250        47
41.260        67
41.270        73
41.280        87
41.290        53
41.300        40
41.310        47
41.320        73
41.330        53
41.340        40
41.350        47
41.360        47
41.370        67
41.380        60
41.390        67
41.400        53
41.410       107
41.420        80
41.430        47
41.440        67
41.450        87
41.460        67
41.470        67
41.480        67
41.490        47
41.500        40
41.510        80
41.520        67
41.530        87
41.540        40
41.550       173
41.560        80
41.570        93
41.580        53
41.590       127
41.600        73
41.610        53
41.620        53
41.630        73
41.640        67
41.650       107
41.660        47
41.670        87
41.680        80
41.690        53
41.700        87
41.710       113
41.720        20
41.730        87
41.740        80
41.750        73
41.760        80
41.770       113
41.780       113
41.790        73
41.800        53
41.810        60
41.820        53
41.830       113
41.840       100
41.850        80
41.860        60
41.870        93
41.880        47
41.890        40
41.900        87
41.910       107
41.920        73
41.930       127
41.940        67
41.950        87
41.960        53
41.970        60
41.980        53
41.990        67
42.000       100
42.010        47
42.020        93
42.030       113
42.040        60
42.050        60
42.060       100
42.070        33
42.080        73
42.090        47
42.100       107
42.110        47
42.120        60
42.130        53
42.140        27
42.150        33
42.160        73
42.170        93
42.180        40
42.190        60
42.200        60
42.210        80
42.220        47
42.230        67
42.240        87
42.250        53
42.260        33
42.270        73
42.280        67
42.290        73
42.300        53
42.310        60
42.320        40
42.330        33
42.340        47
42.350        40
42.360        73
42.370       100
42.380        40
42.390        53
42.400        80
42.410        87
42.420        60
42.430        67
42.440        53
42.450        93
42.460        53
42.470        47
42.480        13
42.490        40
42.500        73
42.510        93
42.520        73
42.530        80
42.540        47
42.550        27
42.560        40
42.570        60
42.580        73
42.590        60
42.600        27
42.610        53
42.620        60
42.630        53
42.640        67
42.650        60
42.660        73
42.670        33
42.680        67
42.690        87
42.700        67
42.710        60
42.720        47
42.730        67
42.740        53
42.750        60
42.760        27
42.770        33
42.780        60
42.790        73
42.800        40
42.810        40
42.820        47
42.830        67
42.840        47
42.850        67
42.860        13
42.870        67
42.880        40
42.890        40
42.900        80
42.910        53
42.920        33
42.930        60
42.940        40
42.950        33
42.960        20
42.970        60
42.980       100
42.990        20
43.000        80
43.010        60
43.020        53
43.030        47
43.040        40
43.050        67
43.060       107
43.070        73
43.080        60
43.090        67
43.100        80
43.110        73
43.120        27
43.130        60
43.140        40
43.150       107
43.160        80
43.170        40
43.180        87
43.190        60
43.200        53
43.210        73
43.220        47
43.230        60
43.240        80
43.250        67
43.260        53
43.270        87
43.280        53
43.290        67
43.300        47
43.310       100
43.320        20
43.330        67
43.340        47
43.350        67
43.360        53
43.370        53
43.380        60
43.390        47
43.400        27
43.410        67
43.420        67
43.430        67
43.440        47
43.450        73
43.460        67
43.470        93
43.480        73
43.490        53
43.500        93
43.510        27
43.520        87
43.530        47
43.540        80
43.550        47
43.560        53
43.570       107
43.580        27
43.590        40
43.600        53
43.610        60
43.620        67
43.630        73
43.640        27
43.650        80
43.660        73
43.670        40
43.680        53
43.690        33
43.700        47
43.710        53
43.720        33
43.730        80
43.740        73
43.750        93
43.760        20
43.770        53
43.780        80
43.790        33
43.800        80
43.810        27
43.820        47
43.830        27
43.840        40
43.850        47
43.860        67
43.870        67
43.880        73
43.890        60
43.900        33
43.910        40
43.920        27
43.930        60
43.940        53
43.950        60
43.960        47
43.970        47
43.980        73
43.990        33
44.000        53
44.010        33
44.020        40
44.030        53
44.040        40
44.050        53
44.060        53
44.070        33
44.080        47
44.090        67
44.100        47
44.110        47
44.120        80
44.130        60
44.140        40
44.150        73
44.160        27
44.170        93
44.180        53
44.190        13
44.200        40
44.210        53
44.220        60
44.230        80
44.240        60
44.250        73
44.260        60
44.270        60
44.280        67
44.290        47
44.300        47
44.310        47
44.320        40
44.330        67
44.340        60
44.350        47
44.360       100
44.370        73
44.380        20
44.390        53
44.400        67
44.410        40
44.420        53
44.430       100
44.440        73
44.450        53
44.460        67
44.470        47
44.480        33
44.490        27
44.500        87
44.510        33
44.520        47
44.530        20
44.540        40
44.550        73
44.560        73
44.570        60
44.580        47
44.590        60
44.600        47
44.610        40
44.620        60
44.630        47
44.640       113
44.650        40
44.660        73
44.670        40
44.680        60
44.690        33
44.700        87
44.710        60
44.720        13
44.730        73
44.740        53
44.750        87
44.760        53
44.770        60
44.780       140
44.790        60
44.800       100
44.810        60
44.820        60
44.830        60
44.840        47
44.850       120
44.860        87
44.870       107
44.880        73
44.890       100
44.900        67
44.910        60
44.920       107
44.930        47
44.940        87
44.950        73
44.960        47
44.970        73
44.980        53
44.990        67
45.000        80
45.010        80
45.020        53
45.030       100
45.040        47
45.050        60
45.060        87
45.070        73
45.080        80
45.090       107
45.100        87
45.110        40
45.120       120
45.130       113
45.140        80
45.150        87
45.160       127
45.170       120
45.180       113
45.190        73
45.200        40
45.210        67
45.220        73
45.230        67
45.240        47
45.250        87
45.260        80
45.270        87
45.280       120
45.290       127
45.300        87
45.310        80
45.320       140
45.330        80
45.340       113
45.350        93
45.360       100
45.370        93
45.380       100
45.390       147
45.400       120
45.410       100
45.420        93
45.430       120
45.440       133
45.450        73
45.460       107
45.470       107
45.480        87
45.490       113
45.500        87
45.510        60
45.520        53
45.530       107
45.540        80
45.550        80
45.560        80
45.570       180
45.580        87
45.590        73
45.600       100
45.610       120
45.620       140
45.630       127
45.640       200
45.650       173
45.660       140
45.670       180
45.680       173
45.690       160
45.700       120
45.710       127
45.720       160
45.730       200
45.740       153
45.750       167
45.760       147
45.770       147
45.780       213
45.790       133
45.800       140
45.810       187
45.820       193
45.830       133
45.840       207
45.850       167
45.860       193
45.870       193
45.880       187
45.890       173
45.900       173
45.910       240
45.920       247
45.930       220
45.940       353
45.950       327
45.960       220
45.970       333
45.980       300
45.990       373
46.000       373
46.010       387
46.020       340
46.030       353
46.040       453
46.050       393
46.060       393
46.070       526
46.080       533
46.090       600
46.100       640
46.110       826
46.120       753
46.130       673
46.140       840
46.150       940
46.160       933
46.170       906
46.180       920
46.190      1040
46.200      1286
46.210      1419
46.220      1419
46.230      1379
46.240      1366
46.250      1619
46.260      1553
46.270      1886
46.280      2013
46.290      2246
46.300      2172
46.310      2426
46.320      2432
46.330      2566
46.340      2672
46.350      2939
46.360      3159
46.370      3159
46.380      3305
46.390      3339
46.400      3419
46.410      3605
46.420      3725
46.430      3858
46.440      3865
46.450      3805
46.460      3898
46.470      4058
46.480      3645
46.490      3712
46.500      3758
46.510      3778
46.520      3472
46.530      3692
46.540      3332
46.550      3565
46.560      3539
46.570      3105
46.580      2985
46.590      2819
46.600      2732
46.610      2806
46.620      2479
46.630      2472
46.640      2166
46.650      2166
46.660      1999
46.670      1899
46.680      1679
46.690      1719
46.700      1766
46.710      1473
46.720      1479
46.730      1426
46.740      1306
46.750      1120
46.760      1053
46.770       906
46.780      1040
46.790       973
46.800       900
46.810       813
46.820       673
46.830       720
46.840       713
46.850       566
46.860       686
46.870       553
46.880       533
46.890       553
46.900       526
46.910       426
46.920       440
46.930       407
46.940       466
46.950       320
46.960       440
46.970       380
46.980       333
46.990       473
47.000       400
47.010       353
47.020       333
47.030       293
47.040       307
47.050       387
47.060       420
47.070       360
47.080       413
47.090       307
47.100       440
47.110       446
47.120       546
47.130       566
47.140       860
47.150       926
47.160      1306
47.170      1813
47.180      2179
47.190      2013
47.200      2452
47.210      2419
47.220      2332
47.230      2139
47.240      1719
47.250      1379
47.260      1006
47.270       740
47.280       580
47.290       413
47.300       300
47.310       407
47.320       320
47.330       333
47.340       247
47.350       260
47.360       227
47.370       320
47.380       193
47.390       233
47.400       160
47.410       280
47.420       280
47.430       173
47.440       127
47.450       173
47.460       247
47.470       140
47.480       187
47.490       227
47.500       207
47.510       180
47.520       213
47.530       153
47.540       180
47.550       153
47.560       153
47.570       107
47.580       153
47.590       160
47.600       173
47.610       107
47.620       107
47.630       120
47.640        87
47.650       180
47.660       153
47.670       133
47.680        80
47.690       127
47.700       127
47.710        93
47.720       147
47.730        93
47.740       127
47.750       113
47.760        93
47.770        80
47.780       113
47.790       113
47.800       107
47.810       127
47.820        93
47.830       140
47.840        73
47.850       127
47.860       107
47.870       100
47.880       120
47.890       113
47.900       100
47.910       100
47.920        93
47.930       100
47.940        87
47.950       120
47.960       113
47.970       113
47.980        80
47.990       100
48.000       100
48.010       120
48.020       107
48.030       120
48.040       100
48.050        80
48.060        93
48.070        93
48.080       107
48.090        67
48.100       127
48.110       107
48.120        87
48.130        80
48.140        40
48.150        73
48.160       107
48.170       107
48.180       120
48.190        87
48.200        93
48.210        47
48.220        53
48.230       113
48.240        47
48.250        80
48.260        73
48.270        93
48.280       147
48.290        80
48.300       120
48.310        40
48.320        60
48.330       107
48.340        80
48.350       107
48.360        87
48.370        87
48.380        73
48.390        87
48.400       100
48.410       113
48.420        87
48.430       107
48.440        93
48.450       140
48.460        93
48.470        93
48.480       113
48.490       107
48.500        67
48.510        67
48.520        73
48.530        47
48.540       107
48.550        47
48.560        80
48.570        80
48.580        67
48.590       100
48.600        93
48.610        80
48.620        60
48.630        93
48.640        80
48.650       113
48.660        87
48.670        53
48.680        80
48.690        80
48.700        80
48.710       107
48.720        73
48.730        47
48.740        87
48.750        93
48.760        67
48.770        67
48.780        87
48.790       120
48.800        80
48.810        67
48.820        93
48.830        73
48.840        53
48.850       107
48.860        80
48.870        47
48.880        47
48.890        60
48.900        60
48.910        60
48.920        80
48.930        67
48.940        67
48.950       120
48.960        33
48.970        53
48.980        73
48.990        80
49.000        60
49.010       100
49.020        87
49.030        60
49.040        93
49.050        87
49.060        33
49.070        40
49.080        53
49.090        60
49.100        80
49.110        47
49.120        47
49.130        53
49.140        80
49.150       100
49.160        27
49.170       113
49.180        73
49.190        80
49.200       107
49.210        53
49.220        80
49.230       100
49.240        53
49.250        80
49.260        80
49.270        60
49.280        60
49.290        80
49.300        73
49.310        67
49.320        67
49.330        33
49.340        33
49.350        93
49.360        40
49.370        53
49.380        47
49.390        60
49.400        40
49.410        60
49.420        47
49.430        47
49.440        80
49.450        53
49.460        80
49.470        33
49.480        80
49.490        73
49.500        33
49.510        13
49.520        27
49.530        53
49.540        33
49.550        47
49.560        80
49.570        67
49.580        67
49.590        53
49.600        53
49.610        80
49.620        40
49.630        27
49.640        73
49.650        40
49.660       107
49.670        53
49.680        40
49.690        67
49.700        47
49.710        47
49.720        87
49.730        60
49.740       120
49.750        47
49.760        87
49.770        33
49.780        47
49.790        67
49.800        67
49.810        60
49.820        33
49.830        47
49.840        27
49.850        27
49.860        40
49.870        53
49.880        33
49.890        27
49.900        40
49.910        33
49.920        20
49.930        73
49.940        73
49.950        73
49.960        47
49.970        40
49.980        93
49.990        67
50.000        80
50.010        40
50.020        53
50.030        33
50.040        73
50.050        40
50.060        40
50.070        67
50.080        47
50.090        47
50.100        47
50.110        73
50.120        33
50.130        33
50.140        40
50.150        40
50.160        87
50.170        80
50.180        47
50.190        53
50.200        53
50.210        67
50.220        67
50.230        53
50.240        67
50.250        33
50.260        73
50.270        73
50.280        80
50.290        53
50.300        40
50.310        47
50.320        53
50.330        93
50.340        67
50.350        80
50.360        53
50.370        53
50.380        40
50.390        60
50.400        33
50.410        40
50.420        60
50.430        20
50.440        40
50.450        67
50.460        60
50.470        87
50.480        47
50.490        80
50.500        33
50.510        67
50.520        53
50.530        27
50.540        67
50.550        87
50.560        47
50.570        93
50.580        87
50.590       113
50.600        80
50.610        87
50.620        80
50.630       140
50.640       147
50.650       173
50.660       267
50.670       287
50.680       347
50.690       426
50.700       433
50.710       473
50.720       613
50.730       573
50.740       420
50.750       600
50.760       513
50.770       600
50.780       600
50.790       500
50.800       646
50.810       613
50.820       513
50.830       533
50.840       433
50.850       546
50.860       546
50.870       700
50.880       526
50.890       513
50.900       473
50.910       653
50.920       546
50.930       533
50.940       473
50.950       506
50.960       500
50.970       620
50.980       506
50.990       453
51.000       660
51.010       573
51.020       526
51.030       640
51.040       633
51.050       560
51.060       513
51.070       726
51.080       660
51.090       660
51.100       553
51.110       613
51.120       640
51.130       540
51.140       586
51.150       606
51.160       553
51.170       560
51.180       526
51.190       553
51.200       520
51.210       586
51.220       540
51.230       560
51.240       493
51.250       566
51.260       633
51.270       540
51.280       573
51.290       640
51.300       600
51.310       540
51.320       626
51.330       580
51.340       526
51.350       553
51.360       526
51.370       566
51.380       606
51.390       646
51.400       573
51.410       566
51.420       680
51.430       640
51.440       680
51.450       573
51.460       673
51.470       680
51.480       653
51.490       693
51.500       560
51.510       620
51.520       733
51.530       626
51.540       606
51.550       633
51.560       573
51.570       606
51.580       713
51.590       533
51.600       673
51.610       640
51.620       680
51.630       560
51.640       593
51.650       686
51.660       593
51.670       513
51.680       573
51.690       633
51.700       640
51.710       793
51.720       813
51.730       646
51.740       733
51.750       673
51.760       593
51.770       560
51.780       560
51.790       633
51.800       733
51.810       746
51.820       646
51.830       680
51.840       666
51.850       713
51.860       706
51.870       800
51.880       753
51.890       706
51.900       726
51.910       773
51.920       700
51.930       873
51.940       733
51.950       753
51.960       740
51.970       620
51.980       806
51.990       860
52.000       880
52.010       900
52.020       866
52.030       726
52.040       986
52.050       873
52.060       793
52.070       986
52.080       913
52.090      1106
52.100      1220
52.110      1106
52.120      1173
52.130       886
52.140      1200
52.150      1186
52.160      1093
52.170      1339
52.180      1406
52.190      1246
52.200      1459
52.210      1526
52.220      1579
52.230      1446
52.240      1586
52.250      1999
52.260      2026
52.270      2172
52.280      2439
52.290      2959
52.300      3699
52.310      4098
52.320      4891
52.330      5305
52.340      6224
52.350      7117
52.360      7923
52.370      8423
52.380      9376
52.390     10096
52.400     10256
52.410     11182
52.420     11929
52.430     12428
52.440     12415
52.450     13361
52.460     14414
52.470     15487
52.480     16693
52.490     18999
52.500     22638
52.510     28395
52.520     35446
52.530     49020
52.540     72611
52.550    109396
52.560    148607
52.570    186719
52.580    208323
52.590    223017
52.600    225417
52.610    221605
52.620    206631
52.630    179601
52.640    138631
52.650    102092
52.660     73291
52.670     58323
52.680     59943
52.690     72531
52.700     92856
52.710    112635
52.720    125770
52.730    137039
52.740    137918
52.750    136645
52.760    123377
52.770    104538
52.780     79628
52.790     55744
52.800     35999
52.810     23850
52.820     16560
52.830     11969
52.840      8650
52.850      7144
52.860      6431
52.870      5225
52.880      4705
52.890      4252
52.900      3998
52.910      3425
52.920      3192
52.930      2786
52.940      2426
52.950      2566
52.960      2386
52.970      2312
52.980      2166
52.990      2279
53.000      1866
53.010      1873
53.020      1673
53.030      1713
53.040      1686
53.050      1499
53.060      1266
53.070      1493
53.080      1353
53.090      1379
53.100      1466
53.110      1273
53.120      1206
53.130      1226
53.140      1160
53.150      1319
53.160      1066
53.170      1086
53.180      1026
53.190      1040
53.200      1013
53.210      1033
53.220      1193
53.230       953
53.240       953
53.250       980
53.260       913
53.270       933
53.280       866
53.290      1000
53.300       866
53.310       966
53.320       966
53.330       886
53.340       933
53.350       873
53.360       826
53.370       853
53.380       826
53.390       773
53.400       746
53.410       926
53.420       706
53.430       806
53.440       726
53.450       733
53.460       786
53.470       700
53.480       760
53.490       660
53.500       646
53.510       633
53.520       746
53.530       720
53.540       586
53.550       706
53.560       613
53.570       640
53.580       566
53.590       753
53.600       673
53.610       560
53.620       606
53.630       686
53.640       606
53.650       593
53.660       700
53.670       633
53.680       526
53.690       546
53.700       560
53.710       546
53.720       473
53.730       533
53.740       566
53.750       486
53.760       593
53.770       493
53.780       526
53.790       500
53.800       486
53.810       593
53.820       526
53.830       513
53.840       586
53.850       473
53.860       573
53.870       620
53.880       546
53.890       593
53.900       586
53.910       453
53.920       546
53.930       426
53.940       580
53.950       566
53.960       473
53.970       513
53.980       473
53.990       413
54.000       460
54.010       613
54.020       513
54.030       407
54.040       720
54.050       486
54.060       460
54.070       526
54.080       480
54.090       420
54.100       493
54.110       480
54.120       400
54.130       486
54.140       380
54.150       520
54.160       493
54.170       453
54.180       493
54.190       513
54.200       446
54.210       400
54.220       393
54.230       433
54.240       407
54.250       446
54.260       506
54.270       480
54.280       426
54.290       446
54.300       420
54.310       407
54.320       446
54.330       393
54.340       426
54.350       453
54.360       466
54.370       540
54.380       466
54.390       473
54.400       400
54.410       453
54.420       433
54.430       360
54.440       293
54.450       460
54.460       440
54.470       500
54.480       393
54.490       433
54.500       473
54.510       393
54.520       453
54.530       486
54.540       393
54.550       426
54.560       333
54.570       333
54.580       453
54.590       446
54.600       320
54.610       380
54.620       400
54.630       486
54.640       340
54.650       460
54.660       400
54.670       387
54.680       500
54.690       333
54.700       320
54.710       320
54.720       327
54.730       400
54.740       353
54.750       367
54.760       367
54.770       387
54.780       353
54.790       367
54.800       380
54.810       453
54.820       387
54.830       400
54.840       380
54.850       473
54.860       480
54.870       420
54.880       453
54.890       320
54.900       440
54.910       333
54.920       320
54.930       433
54.940       387
54.950       313
54.960       413
54.970       347
54.980       453
54.990       327
55.000       466
55.010       347
55.020       393
55.030       367
55.040       440
55.050       340
55.060       413
55.070       420
55.080       466
55.090       253
55.100       320
55.110       307
55.120       373
55.130       327
55.140       373
55.150       426
55.160       460
55.170       393
55.180       460
55.190       373
55.200       420
55.210       347
55.220       407
55.230       380
55.240       360
55.250       400
55.260       307
55.270       347
55.280       300
55.290       353
55.300       407
55.310       307
55.320       347
55.330       373
55.340       367
55.350       260
55.360       387
55.370       426
55.380       413
55.390       287
55.400       393
55.410       347
55.420       387
55.430       340
55.440       320
55.450       300
55.460       300
55.470       313
55.480       353
55.490       273
55.500       413
55.510       347
55.520       380
55.530       293
55.540       400
55.550       300
55.560       360
55.570       367
55.580       347
55.590       307
55.600       360
55.610       307
55.620       353
55.630       307
55.640       347
55.650       320
55.660       233
55.670       247
55.680       280
55.690       267
55.700       320
55.710       327
55.720       367
55.730       287
55.740       333
55.750       280
55.760       253
55.770       360
55.780       267
55.790       307
55.800       360
55.810       267
55.820       340
55.830       287
55.840       307
55.850       340
55.860       267
55.870       387
55.880       340
55.890       446
55.900       280
55.910       260
55.920       287
55.930       373
55.940       293
55.950       267
55.960       273
55.970       307
55.980       353
55.990       273
56.000       367
56.010       340
56.020       347
56.030       387
56.040       253
56.050       253
56.060       267
56.070       293
56.080       340
56.090       273
56.100       280
56.110       340
56.120       227
56.130       280
56.140       260
56.150       307
56.160       313
56.170       307
56.180       393
56.190       287
56.200       313
56.210       280
56.220       360
56.230       353
56.240       313
56.250       213
56.260       327
56.270       280
56.280       340
56.290       287
56.300       307
56.310       240
56.320       313
56.330       293
56.340       320
56.350       227
56.360       347
56.370       333
56.380       333
56.390       327
56.400       313
56.410       213
56.420       333
56.430       273
56.440       307
56.450       227
56.460       333
56.470       307
56.480       333
56.490       280
56.500       260
56.510       247
56.520       253
56.530       287
56.540       287
56.550       253
56.560       280
56.570       293
56.580       313
56.590       227
56.600       267
56.610       253
56.620       293
56.630       353
56.640       293
56.650       340
56.660       240
56.670       267
56.680       207
56.690       333
56.700       293
56.710       293
56.720       327
56.730       200
56.740       220
56.750       320
56.760       260
56.770       227
56.780       273
56.790       247
56.800       200
56.810       313
56.820       267
56.830       247
56.840       267
56.850       200
56.860       267
56.870       260
56.880       260
56.890       267
56.900       280
56.910       227
56.920       260
56.930       187
56.940       273
56.950       300
56.960       247
56.970       267
56.980       207
56.990       313
57.000       227
57.010       260
57.020       267
57.030       313
57.040       287
57.050       247
57.060       287
57.070       233
57.080       280
57.090       260
57.100       280
57.110       233
57.120       267
57.130       267
57.140       327
57.150       300
57.160       247
57.170       193
57.180       247
57.190       300
57.200       220
57.210       227
57.220       287
57.230       300
57.240       267
57.250       213
57.260       267
57.270       267
57.280       280
57.290       253
57.300       247
57.310       227
57.320       253
57.330       207
57.340       313
57.350       267
57.360       280
57.370       220
57.380       260
57.390       187
57.400       247
57.410       320
57.420       233
57.430       253
57.440       233
57.450       247
57.460       280
57.470       300
57.480       233
57.490       300
57.500       227
57.510       280
57.520       320
57.530       240
57.540       260
57.550       287
57.560       233
57.570       173
57.580       233
57.590       233
57.600       180
57.610       200
57.620       247
57.630       213
57.640       240
57.650       240
57.660       233
57.670       247
57.680       267
57.690       213
57.700       267
57.710       227
57.720       173
57.730       280
57.740       227
57.750       200
57.760       253
57.770       213
57.780       220
57.790       300
57.800       173
57.810       173
57.820       207
57.830       220
57.840       233
57.850       300
57.860       240
57.870       247
57.880       247
57.890       220
57.900       280
57.910       213
57.920       320
57.930       193
57.940       207
57.950       287
57.960       260
57.970       227
57.980       200
57.990       173
58.000       213
58.010       280
58.020       287
58.030       227
58.040       293
58.050       193
58.060       247
58.070       227
58.080       280
58.090       180
58.100       227
58.110       193
58.120       227
58.130       233
58.140       233
58.150       153
58.160       247
58.170       180
58.180       267
58.190       180
58.200       287
58.210       153
58.220       307
58.230       187
58.240       247
58.250       220
58.260       213
58.270       240
58.280       193
58.290       253
58.300       240
58.310       213
58.320       207
58.330       200
58.340       167
58.350       220
58.360       187
58.370       207
58.380       193
58.390       220
58.400       253
58.410       180
58.420       313
58.430       153
58.440       273
58.450       240
58.460       160
58.470       280
58.480       307
58.490       187
58.500       220
58.510       227
58.520       200
58.530       160
58.540       180
58.550       160
58.560       240
58.570       227
58.580       260
58.590       233
58.600       207
58.610       313
58.620       213
58.630       247
58.640       187
58.650       173
58.660       227
58.670       200
58.680       187
58.690       247
58.700       220
58.710       173
58.720       180
58.730       247
58.740       220
58.750       187
58.760       180
58.770       280
58.780       200
58.790       227
58.800       173
58.810       213
58.820       213
58.830       207
58.840       147
58.850       200
58.860       233
58.870       213
58.880       147
58.890       227
58.900       220
58.910       220
58.920       187
58.930       180
58.940       160
58.950       193
58.960       280
58.970       167
58.980       273
58.990       153
59.000       193
59.010       187
59.020       167
59.030       160
59.040       207
59.050       240
59.060       247
59.070       160
59.080       220
59.090       253
59.100       207
59.110       200
59.120       260
59.130       253
59.140       180
59.150       180
59.160       133
59.170       173
59.180       253
59.190       207
59.200       127
59.210       220
59.220       200
59.230       173
59.240       167
59.250       273
59.260       140
59.270       187
59.280       193
59.290       187
59.300       187
59.310       227
59.320       213
59.330       280
59.340       213
59.350       233
59.360       227
59.370       200
59.380       193
59.390       147
59.400       187
59.410       180
59.420       200
59.430       193
59.440       233
59.450       193
59.460       147
59.470       207
59.480       153
59.490       140
59.500       207
59.510       247
59.520       173
59.530       140
59.540       167
59.550       193
59.560       127
59.570       233
59.580       147
59.590       120
59.600       253
59.610       207
59.620       187
59.630       140
59.640       260
59.650       153
59.660       227
59.670       167
59.680       153
59.690       120
59.700       220
59.710       227
59.720       140
59.730       193
59.740       247
59.750       227
59.760       153
59.770       200
59.780       167
59.790       167
59.800       207
59.810       213
59.820       153
59.830       140
59.840       213
59.850       213
59.860       220
59.870       240
59.880       180
59.890       200
59.900       160
59.910       167
59.920       140
59.930       240
59.940       207
59.950       207
59.960       107
59.970       180
59.980       193
59.990        67
60.000        67
