20.000       413
20.020       403
20.040       493
20.060       410
20.080       460
20.100       446
20.120       433
20.140       430
20.160       436
20.180       423
20.200       430
20.220       456
20.240       373
20.260       410
20.280       440
20.300       397
20.320       407
20.340       436
20.360       383
20.380       433
20.400       417
20.420       413
20.440       390
20.460       430
20.480       407
20.500       410
20.520       390
20.540       363
20.560       436
20.580       333
20.600       380
20.620       380
20.640       390
20.660       380
20.680       426
20.700       373
20.720       456
20.740       470
20.760       387
20.780       417
20.800       360
20.820       367
20.840       410
20.860       373
20.880       377
20.900       353
20.920       417
20.940       367
20.960       543
20.980       377
21.000       430
21.020       383
21.040       340
21.060       390
21.080       420
21.100       340
21.120       380
21.140       410
21.160       470
21.180       383
21.200       387
21.220       363
21.240       350
21.260       370
21.280       327
21.300       403
21.320       357
21.340       387
21.360       397
21.380       353
21.400       363
21.420       403
21.440       403
21.460       413
21.480       307
21.500       367
21.520       330
21.540       357
21.560       327
21.580       367
21.600       373
21.620       393
21.640       407
21.660       327
21.680       363
21.700       320
21.720       370
21.740       360
21.760       400
21.780       350
21.800       320
21.820       317
21.840       370
21.860       320
21.880       310
21.900       390
21.920       273
21.940       343
21.960       380
21.980       283
22.000       357
22.020       327
22.040       410
22.060       287
22.080       337
22.100       313
22.120       330
22.140       283
22.160       260
22.180       350
22.200       320
22.220       243
22.240       260
22.260       283
22.280       303
22.300       293
22.320       313
22.340       313
22.360       273
22.380       343
22.400       350
22.420       333
22.440       330
22.460       303
22.480       330
22.500       323
22.520       283
22.540       283
22.560       357
22.580       343
22.600       343
22.620       297
22.640       287
22.660       293
22.680       360
22.700       283
22.720       303
22.740       357
22.760       350
22.780       320
22.800       303
22.820       297
22.840       307
22.860       297
22.880       320
22.900       290
22.920       290
22.940       310
22.960       293
22.980       360
23.000       277
23.020       240
23.040       343
23.060       320
23.080       297
23.100       320
23.120       303
23.140       260
23.160       277
23.180       313
23.200       310
23.220       290
23.240       277
23.260       307
23.280       317
23.300       310
23.320       270
23.340       290
23.360       343
23.380       293
23.400       303
23.420       327
23.440       317
23.460       360
23.480       260
23.500       327
23.520       383
23.540       383
23.560       407
23.580       413
23.600       373
23.620       307
23.640       320
23.660       377
23.680       250
23.700       293
23.720       343
23.740       287
23.760       307
23.780       277
23.800       313
23.820       237
23.840       277
23.860       260
23.880       340
23.900       270
23.920       297
23.940       303
23.960       253
23.980       273
24.000       337
24.020       297
24.040       270
24.060       270
24.080       290
24.100       277
24.120       313
24.140       263
24.160       220
24.180       303
24.200       290
24.220       277
24.240       270
24.260       280
24.280       270
24.300       303
24.320       220
24.340       260
24.360       203
24.380       287
24.400       243
24.420       283
24.440       247
24.460       257
24.480       300
24.500       290
24.520       267
24.540       210
24.560       313
24.580       280
24.600       270
24.620       293
24.640       247
24.660       277
24.680       227
24.700       223
24.720       213
24.740       263
24.760       253
24.780       267
24.800       263
24.820       247
24.840       263
24.860       317
24.880       233
24.900       280
24.920       273
24.940       207
24.960       270
24.980       190
25.000       253
25.020       240
25.040       213
25.060       247
25.080       253
25.100       197
25.120       217
25.140       257
25.160       270
25.180       233
25.200       250
25.220       297
25.240       227
25.260       210
25.280       247
25.300       233
25.320       263
25.340       257
25.360       273
25.380       247
25.400       230
25.420       177
25.440       227
25.460       200
25.480       203
25.500       203
25.520       193
25.540       220
25.560       193
25.580       197
25.600       187
25.620       227
25.640       180
25.660       203
25.680       207
25.700       130
25.720       150
25.740       173
25.760       107
25.780       167
25.800       133
25.820       110
25.840       130
25.860       137
25.880       170
25.900       147
25.920       127
25.940       130
25.960       133
25.980       167
26.000       140
26.020       113
26.040        93
26.060       140
26.080       127
26.100       153
26.120       140
26.140       113
26.160       117
26.180       123
26.200       130
26.220       127
26.240       120
26.260       103
26.280       143
26.300       143
26.320       107
26.340       110
26.360       137
26.380       110
26.400       113
26.420       153
26.440       123
26.460       130
26.480       113
26.500       167
26.520       133
26.540       143
26.560       117
26.580       127
26.600        83
26.620        80
26.640       123
26.660       113
26.680       100
26.700       113
26.720       123
26.740       110
26.760        87
26.780        83
26.800       120
26.820       127
26.840       113
26.860       107
26.880       117
26.900        77
26.920       113
26.940        90
26.960       107
26.980        60
27.000        93
27.020       120
27.040       127
27.060       103
27.080       100
27.100        87
27.120       117
27.140        70
27.160        80
27.180        97
27.200       107
27.220       100
27.240       133
27.260       100
27.280        70
27.300       127
27.320       103
27.340        77
27.360       103
27.380       107
27.400       103
27.420        80
27.440       120
27.460       100
27.480       133
27.500        77
27.520       127
27.540        83
27.560       107
27.580        90
27.600        87
27.620       113
27.640       113
27.660        83
27.680        83
27.700        77
27.720        63
27.740        87
27.760       130
27.780        87
27.800        90
27.820        67
27.840       107
27.860        97
27.880        77
27.900        73
27.920        97
27.940        80
27.960       103
27.980       107
28.000       103
28.020        87
28.040        83
28.060        67
28.080        93
28.100        80
28.120        93
28.140       110
28.160        80
28.180        90
28.200       120
28.220        73
28.240       113
28.260        63
28.280       113
28.300        87
28.320       117
28.340        80
28.360        80
28.380       120
28.400       100
28.420        77
28.440       100
28.460        73
28.480        93
28.500        80
28.520        70
28.540       100
28.560        73
28.580       113
28.600        93
28.620        73
28.640        57
28.660        90
28.680        70
28.700        90
28.720        83
28.740        97
28.760        67
28.780        53
28.800        77
28.820        67
28.840        77
28.860        77
28.880        80
28.900        80
28.920        53
28.940        77
28.960        63
28.980        63
29.000        80
29.020        70
29.040        97
29.060        80
29.080        77
29.100        90
29.120        93
29.140        87
29.160        97
29.180        57
29.200        90
29.220       123
29.240        93
29.260        97
29.280        67
29.300        90
29.320        97
29.340       123
29.360        63
29.380       130
29.400        93
29.420        93
29.440        97
29.460        93
29.480        80
29.500       103
29.520       100
29.540       123
29.560       170
29.580       143
29.600       150
29.620       177
29.640       157
29.660       117
29.680       100
29.700        80
29.720        67
29.740       110
29.760        60
29.780        80
29.800        83
29.820        97
29.840        67
29.860        97
29.880        70
29.900        60
29.920        87
29.940        47
29.960        67
29.980        87
30.000        77
30.020       103
30.040        67
30.060        73
30.080        67
30.100        73
30.120       107
30.140        53
30.160        87
30.180        83
30.200        67
30.220       103
30.240       103
30.260        77
30.280        80
30.300        80
30.320        77
30.340        53
30.360        90
30.380       107
30.400        83
30.420        73
30.440        87
30.460        57
30.480        53
30.500        83
30.520       100
30.540       107
30.560        90
30.580        93
30.600        87
30.620        90
30.640       130
30.660       100
30.680        97
30.700        90
30.720        93
30.740        93
30.760        53
30.780        83
30.800        93
30.820        77
30.840       103
30.860        83
30.880        67
30.900        83
30.920        80
30.940        60
30.960       110
30.980        97
31.000        77
31.020        87
31.040        67
31.060        73
31.080       100
31.100        87
31.120       113
31.140       100
31.160        97
31.180       103
31.200        73
31.220        87
31.240       113
31.260       123
31.280        90
31.300       107
31.320       117
31.340       123
31.360        97
31.380        63
31.400       110
31.420       100
31.440        73
31.460       107
31.480       143
31.500        87
31.520        80
31.540        83
31.560       130
31.580        93
31.600        90
31.620        77
31.640        67
31.660       113
31.680       110
31.700       103
31.720       137
31.740        87
31.760        93
31.780       110
31.800       147
31.820       180
31.840       213
31.860       210
31.880       170
31.900       227
31.920       240
31.940       277
31.960       293
31.980       267
32.000       263
32.020       347
32.040       523
32.060      1226
32.080      2282
32.100      3079
32.120      3049
32.140      2236
32.160      1136
32.180       566
32.200       367
32.220       327
32.240       243
32.260       273
32.280       170
32.300       190
32.320       150
32.340       183
32.360       170
32.380       167
32.400       200
32.420       177
32.440       177
32.460       213
32.480       123
32.500       157
32.520       140
32.540       160
32.560       163
32.580       173
32.600       163
32.620       153
32.640       127
32.660       190
32.680       147
32.700       107
32.720       157
32.740       173
32.760       123
32.780       137
32.800       163
32.820       140
32.840        93
32.860       120
32.880       140
32.900       143
32.920       107
32.940       163
32.960       127
32.980       147
33.000        87
33.020       113
33.040       143
33.060       100
33.080       140
33.100       107
33.120       130
33.140       107
33.160       143
33.180       143
33.200       113
33.220       143
33.240       143
33.260       123
33.280        90
33.300       133
33.320       117
33.340       103
33.360       127
33.380       130
33.400       133
33.420       100
33.440       147
33.460        97
33.480        87
33.500       173
33.520       117
33.540       167
33.560       103
33.580       163
33.600       110
33.620       130
33.640        90
33.660        93
33.680       117
33.700        90
33.720        87
33.740       110
33.760        90
33.780       123
33.800       150
33.820       127
33.840       113
33.860       187
33.880       150
33.900       137
33.920       107
33.940       117
33.960        90
33.980       113
34.000       120
34.020       113
34.040       123
34.060       140
34.080       127
34.100       103
34.120       117
34.140       110
34.160       130
34.180        87
34.200       123
34.220       147
34.240       163
34.260       130
34.280       180
34.300       187
34.320       173
34.340       263
34.360       410
34.380       653
34.400       786
34.420       963
34.440      1040
34.460       980
34.480      1116
34.500      1020
34.520      1250
34.540      1070
34.560      1000
34.580      1053
34.600      1090
34.620      1046
34.640      1123
34.660      1103
34.680      1213
34.700      1020
34.720      1073
34.740      1086
34.760      1223
34.780      1110
34.800      1243
34.820      1096
34.840      1090
34.860      1160
34.880      1203
34.900      1153
34.920       996
34.940      1076
34.960      1273
34.980      1206
35.000      1193
35.020      1190
35.040      1276
35.060      1240
35.080      1316
35.100      1289
35.120      1373
35.140      1369
35.160      1406
35.180      1439
35.200      1499
35.220      1443
35.240      1566
35.260      1783
35.280      1759
35.300      2019
35.320      2212
35.340      2366
35.360      3102
35.380      4668
35.400      6844
35.420     10013
35.440     13778
35.460     17546
35.480     19539
35.500     21811
35.520     24084
35.540     27999
35.560     39464
35.580     94432
35.600    200703
35.620    252656
35.640    260619
35.660    236802
35.680    174447
35.700    168523
35.720    181991
35.740    174803
35.760    125490
35.780     52559
35.800     21515
35.820     13931
35.840     10476
35.860      7890
35.880      5524
35.900      4302
35.920      3435
35.940      3105
35.960      2686
35.980      2516
36.000      2142
36.020      2169
36.040      2079
36.060      1816
36.080      1856
36.100      1656
36.120      1633
36.140      1573
36.160      1493
36.180      1439
36.200      1476
36.220      1483
36.240      1263
36.260      1293
36.280      1299
36.300      1186
36.320      1146
36.340      1243
36.360      1223
36.380      1166
36.400      1146
36.420      1066
36.440      1046
36.460       986
36.480       953
36.500      1126
36.520       996
36.540       926
36.560       956
36.580       906
36.600       950
36.620       876
36.640       946
36.660       976
36.680       913
36.700       876
36.720       916
36.740       986
36.760       840
36.780       950
36.800       833
36.820       830
36.840       816
36.860       756
36.880       926
36.900       770
36.920       823
36.940       770
36.960       783
36.980       736
37.000       813
37.020       830
37.040       823
37.060       720
37.080       776
37.100       736
37.120       810
37.140       750
37.160       773
37.180       776
37.200       710
37.220       783
37.240       806
37.260       680
37.280       770
37.300       693
37.320       663
37.340       650
37.360       770
37.380       746
37.400       673
37.420       703
37.440       710
37.460       660
37.480       683
37.500       710
37.520       676
37.540       740
37.560       703
37.580       620
37.600       713
37.620       733
37.640       626
37.660       590
37.680       553
37.700       703
37.720       643
37.740       593
37.760       566
37.780       610
37.800       640
37.820       673
37.840       543
37.860       636
37.880       730
37.900       596
37.920       673
37.940       656
37.960       650
37.980       583
38.000       636
38.020       593
38.040       633
38.060       686
38.080       693
38.100       506
38.120       593
38.140       533
38.160       663
38.180       543
38.200       600
38.220       646
38.240       563
38.260       590
38.280       583
38.300       616
38.320       596
38.340       513
38.360       560
38.380       570
38.400       486
38.420       540
38.440       590
38.460       613
38.480       566
38.500       470
38.520       566
38.540       600
38.560       473
38.580       536
38.600       540
38.620       563
38.640       593
38.660       560
38.680       570
38.700       550
38.720       563
38.740       540
38.760       500
38.780       553
38.800       543
38.820       486
38.840       460
38.860       570
38.880       530
38.900       556
38.920       490
38.940       486
38.960       556
38.980       486
39.000       530
39.020       526
39.040       540
39.060       550
39.080       606
39.100       443
39.120       593
39.140       540
39.160       503
39.180       540
39.200       516
39.220       530
39.240       566
39.260       480
39.280       453
39.300       546
39.320       423
39.340       480
39.360       393
39.380       493
39.400       473
39.420       420
39.440       483
39.460       550
39.480       456
39.500       500
39.520       520
39.540       463
39.560       500
39.580       480
39.600       503
39.620       407
39.640       456
39.660       476
39.680       473
39.700       417
39.720       510
39.740       446
39.760       407
39.780       443
39.800       476
39.820       420
39.840       480
39.860       407
39.880       456
39.900       403
39.920       456
39.940       456
39.960       407
39.980       387
40.000       383
40.020       383
40.040       450
40.060       413
40.080       453
40.100       403
40.120       413
40.140       443
40.160       417
40.180       400
40.200       420
40.220       446
40.240       486
40.260       453
40.280       423
40.300       417
40.320       387
40.340       426
40.360       417
40.380       380
40.400       443
40.420       410
40.440       333
40.460       327
40.480       407
40.500       357
40.520       453
40.540       420
40.560       466
40.580       380
40.600       413
40.620       387
40.640       430
40.660       390
40.680       430
40.700       347
40.720       390
40.740       360
40.760       440
40.780       363
40.800       327
40.820       420
40.840       380
40.860       446
40.880       347
40.900       400
40.920       367
40.940       367
40.960       373
40.980       353
41.000       380
41.020       313
41.040       380
41.060       397
41.080       373
41.100       340
41.120       407
41.140       397
41.160       443
41.180       357
41.200       363
41.220       327
41.240       320
41.260       343
41.280       303
41.300       323
41.320       347
41.340       320
41.360       360
41.380       323
41.400       330
41.420       350
41.440       323
41.460       370
41.480       377
41.500       347
41.520       353
41.540       313
41.560       323
41.580       377
41.600       357
41.620       390
41.640       320
41.660       377
41.680       287
41.700       387
41.720       310
41.740       393
41.760       327
41.780       363
41.800       343
41.820       403
41.840       383
41.860       313
41.880       347
41.900       370
41.920       340
41.940       337
41.960       320
41.980       317
42.000       323
42.020       313
42.040       350
42.060       300
42.080       270
42.100       377
42.120       293
42.140       277
42.160       293
42.180       343
42.200       367
42.220       310
42.240       307
42.260       287
42.280       277
42.300       327
42.320       267
42.340       337
42.360       340
42.380       267
42.400       327
42.420       227
42.440       280
42.460       300
42.480       307
42.500       327
42.520       320
42.540       313
42.560       283
42.580       327
42.600       333
42.620       260
42.640       303
42.660       270
42.680       300
42.700       263
42.720       293
42.740       310
42.760       253
42.780       247
42.800       267
42.820       343
42.840       273
42.860       303
42.880       273
42.900       243
42.920       297
42.940       280
42.960       287
42.980       280
43.000       247
43.020       230
43.040       317
43.060       310
43.080       330
43.100       303
43.120       240
43.140       350
43.160       283
43.180       283
43.200       297
43.220       253
43.240       233
43.260       243
43.280       260
43.300       253
43.320       263
43.340       267
43.360       283
43.380       210
43.400       217
43.420       273
43.440       260
43.460       260
43.480       223
43.500       267
43.520       287
43.540       250
43.560       220
43.580       237
43.600       233
43.620       207
43.640       300
43.660       273
43.680       203
43.700       213
43.720       203
43.740       247
43.760       273
43.780       253
43.800       257
43.820       293
43.840       210
43.860       227
43.880       180
43.900       247
43.920       240
43.940       240
43.960       257
43.980       213
44.000       200
44.020       243
44.040       250
44.060       217
44.080       207
44.100       173
44.120       200
44.140       227
44.160       240
44.180       197
44.200       247
44.220       220
44.240       223
44.260       263
44.280       220
44.300       193
44.320       183
44.340       237
44.360       203
44.380       230
44.400       213
44.420       217
44.440       193
44.460       183
44.480       170
44.500       240
44.520       177
44.540       290
44.560       233
44.580       190
44.600       147
44.620       203
44.640       213
44.660       193
44.680       217
44.700       167
44.720       243
44.740       200
44.760       167
44.780       200
44.800       213
44.820       210
44.840       180
44.860       167
44.880       187
44.900       200
44.920       217
44.940       173
44.960       243
44.980       167
45.000       187
45.020       213
45.040       187
45.060       207
45.080       223
45.100       167
45.120       153
45.140       167
45.160       193
45.180       170
45.200       237
45.220       210
45.240       240
45.260       183
45.280       190
45.300       177
45.320       213
45.340       210
45.360       170
45.380       203
45.400       197
45.420       160
45.440       177
45.460       227
45.480       160
45.500       180
45.520       193
45.540       160
45.560       177
45.580       187
45.600       157
45.620       153
45.640       153
45.660       160
45.680       203
45.700       183
45.720       150
45.740       120
45.760       223
45.780       177
45.800       173
45.820       177
45.840       150
45.860       183
45.880       123
45.900       150
45.920       130
45.940       160
45.960       137
45.980       170
46.000       190
46.020       160
46.040       127
46.060       190
46.080       133
46.100       160
46.120       203
46.140       123
46.160       167
46.180       177
46.200       177
46.220       157
46.240       157
46.260       163
46.280       167
46.300       163
46.320       137
46.340       130
46.360       170
46.380       143
46.400       183
46.420       163
46.440       157
46.460       130
46.480       167
46.500       133
46.520       163
46.540       163
46.560       143
46.580       183
46.600       137
46.620       143
46.640       123
46.660       153
46.680       153
46.700       113
46.720       140
46.740       163
46.760       133
46.780       127
46.800       147
46.820       127
46.840       153
46.860       167
46.880       157
46.900       140
46.920       110
46.940       133
46.960       133
46.980       130
47.000       173
47.020        90
47.040       147
47.060       153
47.080       140
47.100       150
47.120       123
47.140       130
47.160       147
47.180       130
47.200       110
47.220       147
47.240       157
47.260       143
47.280       113
47.300       160
47.320       110
47.340       163
47.360       157
47.380       130
47.400       157
47.420       177
47.440       153
47.460       143
47.480       123
47.500       160
47.520       120
47.540       167
47.560       137
47.580       107
47.600       147
47.620       113
47.640       113
47.660       153
47.680       160
47.700       140
47.720        97
47.740       127
47.760       127
47.780       117
47.800       163
47.820       137
47.840       130
47.860       103
47.880       147
47.900       107
47.920       123
47.940       110
47.960       113
47.980       130
48.000       133
48.020       100
48.040       150
48.060       163
48.080       150
48.100       113
48.120       163
48.140       153
48.160       180
48.180       123
48.200       107
48.220       173
48.240       143
48.260       117
48.280       117
48.300       117
48.320       140
48.340       107
48.360       130
48.380       113
48.400       147
48.420       120
48.440       153
48.460       103
48.480       133
48.500        93
48.520       107
48.540        97
48.560       133
48.580       103
48.600       137
48.620       133
48.640        77
48.660       127
48.680        93
48.700       103
48.720       157
48.740        87
48.760       127
48.780        93
48.800       120
48.820       103
48.840       127
48.860        90
48.880       103
48.900       123
48.920       110
48.940       113
48.960       110
48.980       123
49.000       120
49.020       130
49.040       100
49.060       107
49.080       123
49.100       123
49.120       143
49.140        97
49.160       130
49.180        97
49.200        83
49.220        70
49.240        90
49.260       133
49.280       127
49.300       100
49.320       120
49.340       103
49.360        80
49.380       153
49.400       127
49.420        90
49.440        70
49.460        93
49.480       107
49.500       117
49.520       110
49.540        73
49.560        90
49.580        87
49.600       123
49.620        97
49.640       117
49.660       103
49.680        97
49.700       107
49.720       117
49.740        93
49.760        73
49.780       100
49.800        73
49.820        93
49.840       103
49.860       103
49.880        90
49.900       107
49.920        63
49.940       117
49.960        93
49.980        70
50.000        83
50.020        93
50.040        87
50.060        80
50.080       107
50.100        93
50.120        93
50.140       123
50.160        87
50.180        77
50.200       107
50.220       120
50.240        93
50.260        87
50.280        93
50.300        70
50.320        80
50.340       123
50.360       110
50.380       107
50.400        67
50.420       120
50.440        70
50.460       110
50.480       103
50.500        70
50.520       100
50.540       103
50.560        90
50.580        83
50.600        97
50.620        97
50.640        93
50.660        83
50.680        83
50.700        83
50.720        90
50.740        80
50.760        80
50.780       103
50.800       100
50.820       103
50.840        80
50.860       103
50.880        90
50.900        53
50.920       110
50.940        80
50.960        73
50.980        70
51.000        87
51.020        97
51.040       110
51.060        57
51.080       117
51.100       120
51.120       130
51.140        93
51.160        83
51.180        63
51.200        63
51.220        67
51.240        93
51.260        70
51.280        73
51.300       100
51.320       107
51.340       123
51.360       107
51.380       110
51.400       110
51.420        80
51.440        53
51.460        57
51.480        73
51.500        50
51.520       103
51.540        80
51.560        97
51.580        90
51.600       110
51.620        97
51.640        63
51.660        70
51.680        60
51.700        77
51.720        90
51.740        83
51.760        80
51.780        77
51.800        80
51.820        87
51.840        67
51.860        63
51.880        80
51.900       103
51.920        77
51.940        67
51.960        63
51.980        73
52.000        63
52.020        77
52.040        87
52.060        83
52.080       100
52.100        83
52.120        63
52.140       107
52.160        80
52.180        67
52.200        60
52.220        93
52.240        90
52.260       110
52.280        63
52.300       107
52.320        93
52.340       100
52.360        93
52.380        73
52.400        70
52.420        83
52.440        70
52.460        63
52.480        77
52.500        83
52.520        77
52.540        77
52.560        77
52.580        60
52.600        97
52.620        80
52.640        77
52.660        90
52.680        70
52.700        83
52.720        43
52.740        90
52.760        57
52.780        80
52.800        77
52.820        67
52.840        63
52.860        80
52.880        80
52.900        67
52.920        77
52.940        60
52.960        63
52.980        67
53.000        50
53.020        70
53.040        70
53.060        60
53.080        73
53.100        63
53.120        50
53.140        77
53.160        87
53.180        53
53.200        73
53.220        60
53.240        70
53.260        67
53.280        93
53.300        53
53.320        53
53.340        63
53.360        67
53.380        70
53.400        50
53.420        67
53.440        73
53.460        67
53.480        67
53.500        50
53.520        80
53.540        60
53.560        67
53.580        77
53.600        50
53.620        80
53.640        67
53.660        87
53.680        67
53.700        67
53.720        97
53.740        87
53.760        43
53.780        90
53.800        73
53.820        60
53.840        53
53.860        80
53.880        70
53.900        47
53.920        70
53.940        60
53.960        73
53.980        57
54.000        80
54.020        50
54.040        63
54.060        73
54.080        63
54.100        70
54.120        67
54.140        57
54.160        57
54.180        77
54.200        63
54.220        37
54.240        77
54.260        53
54.280        50
54.300        77
54.320        70
54.340        97
54.360        33
54.380        73
54.400        77
54.420        67
54.440       103
54.460        77
54.480        47
54.500        47
54.520        30
54.540        73
54.560        77
54.580        77
54.600        63
54.620        60
54.640        77
54.660        43
54.680        60
54.700        87
54.720        67
54.740        80
54.760        83
54.780        77
54.800        70
54.820        73
54.840        73
54.860        53
54.880        53
54.900        77
54.920        77
54.940        67
54.960        67
54.980        67
55.000        63
55.020        53
55.040        83
55.060        60
55.080        97
55.100        47
55.120        50
55.140        50
55.160        60
55.180        83
55.200        73
55.220        80
55.240        73
55.260        57
55.280        50
55.300        67
55.320        60
55.340        57
55.360        83
55.380        73
55.400        87
55.420        70
55.440        67
55.460        80
55.480        87
55.500        73
55.520        43
55.540        47
55.560        47
55.580        47
55.600        47
55.620        47
55.640        43
55.660        87
55.680        57
55.700        87
55.720        53
55.740        50
55.760        60
55.780        73
55.800        50
55.820        70
55.840        57
55.860        80
55.880        57
55.900        50
55.920        63
55.940        50
55.960        67
55.980        70
56.000        43
56.020        60
56.040        63
56.060        73
56.080        57
56.100        67
56.120        67
56.140        63
56.160        57
56.180        50
56.200        63
56.220        63
56.240        63
56.260        53
56.280        70
56.300        83
56.320        80
56.340        90
56.360        53
56.380        43
56.400        60
56.420       103
56.440        50
56.460        53
56.480        77
56.500        60
56.520        40
56.540        50
56.560        57
56.580        53
56.600        47
56.620        77
56.640        70
56.660        70
56.680        87
56.700        40
56.720        57
56.740        67
56.760        60
56.780        80
56.800        50
56.820        27
56.840        53
56.860        77
56.880        83
56.900        83
56.920        50
56.940        63
56.960        50
56.980        67
57.000        37
57.020        77
57.040        43
57.060        60
57.080        67
57.100        77
57.120        37
57.140        73
57.160        63
57.180        43
57.200        60
57.220        67
57.240        43
57.260        50
57.280        50
57.300        67
57.320        40
57.340        50
57.360        67
57.380        73
57.400        43
57.420        37
57.440        67
57.460        50
57.480        47
57.500        70
57.520        77
57.540        57
57.560        53
57.580        57
57.600        80
57.620        63
57.640        67
57.660        57
57.680        33
57.700        67
57.720        80
57.740        93
57.760        67
57.780        67
57.800        63
57.820        63
57.840        47
57.860        77
57.880        57
57.900        70
57.920        57
57.940        57
57.960        93
57.980        70
58.000        57
58.020        63
58.040        53
58.060        57
58.080        70
58.100        70
58.120        47
58.140        63
58.160        30
58.180        53
58.200        57
58.220        43
58.240        30
58.260        50
58.280        77
58.300        50
58.320        50
58.340        70
58.360        60
58.380        53
58.400        73
58.420        73
58.440        60
58.460        43
58.480        53
58.500        63
58.520        23
58.540        53
58.560        47
58.580        57
58.600        23
58.620        73
58.640        73
58.660        73
58.680        63
58.700        73
58.720        47
58.740        53
58.760        70
58.780        70
58.800        63
58.820        53
58.840        47
58.860        37
58.880        57
58.900        50
58.920        70
58.940        33
58.960        77
58.980        63
59.000        67
59.020        43
59.040        67
59.060        67
59.080        67
59.100        53
59.120        53
59.140        60
59.160        77
59.180        37
59.200        43
59.220        67
59.240        40
59.260        63
59.280        53
59.300        70
59.320        43
59.340        33
59.360        33
59.380        43
59.400        57
59.420        23
59.440        60
59.460        47
59.480        70
59.500        43
59.520        37
59.540        60
59.560        63
59.580        53
59.600        43
59.620        57
59.640        97
59.660        63
59.680        47
59.700        70
59.720        43
59.740        40
59.760        50
59.780        43
59.800        67
59.820        57
59.840        50
59.860        77
59.880        67
59.900        57
59.920        43
59.940        50
59.960        40
59.980        33
60.000        33
