20.000        50
20.020        47
20.040        40
20.060        60
20.080        67
20.100        40
20.120        33
20.140        53
20.160        37
20.180        50
20.200        53
20.220        50
20.240        53
20.260        50
20.280        23
20.300        47
20.320        67
20.340        47
20.360        37
20.380        27
20.400        43
20.420        30
20.440        47
20.460        50
20.480        50
20.500        43
20.520        40
20.540        43
20.560        73
20.580        30
20.600        70
20.620        40
20.640        63
20.660        60
20.680        60
20.700        60
20.720        37
20.740        60
20.760        33
20.780        33
20.800        33
20.820        40
20.840        57
20.860        23
20.880        30
20.900        57
20.920        50
20.940        27
20.960        57
20.980        20
21.000        30
21.020        43
21.040        20
21.060        70
21.080        40
21.100        57
21.120        47
21.140        30
21.160        30
21.180        23
21.200        43
21.220        53
21.240        47
21.260        43
21.280        30
21.300        30
21.320        53
21.340        33
21.360        37
21.380        33
21.400        43
21.420        33
21.440        40
21.460        50
21.480        60
21.500        53
21.520        57
21.540        43
21.560        40
21.580        37
21.600        47
21.620        57
21.640        53
21.660        37
21.680        27
21.700        53
21.720        27
21.740        43
21.760        40
21.780        53
21.800        77
21.820        47
21.840        47
21.860        57
21.880        77
21.900        43
21.920        47
21.940        73
21.960        50
21.980        40
22.000        47
22.020        80
22.040        73
22.060        73
22.080        60
22.100        70
22.120        70
22.140        63
22.160       100
22.180        77
22.200        47
22.220       113
22.240        90
22.260        73
22.280       100
22.300        63
22.320        90
22.340       137
22.360       113
22.380       100
22.400       150
22.420       157
22.440       113
22.460       110
22.480       147
22.500       147
22.520       150
22.540       100
22.560       160
22.580       160
22.600       103
22.620       113
22.640       120
22.660       120
22.680        87
22.700       143
22.720        97
22.740       117
22.760       117
22.780       170
22.800       110
22.820        97
22.840       120
22.860       143
22.880       117
22.900       100
22.920        90
22.940        90
22.960        87
22.980        70
23.000        80
23.020        97
23.040        63
23.060        63
23.080        70
23.100        70
23.120        63
23.140        70
23.160        67
23.180        60
23.200        77
23.220        70
23.240        73
23.260        80
23.280        53
23.300        60
23.320        63
23.340        73
23.360        43
23.380        80
23.400        60
23.420        63
23.440        70
23.460        57
23.480        67
23.500        73
23.520        70
23.540        53
23.560        57
23.580        70
23.600        63
23.620        60
23.640        40
23.660        43
23.680        43
23.700        57
23.720        43
23.740        47
23.760        57
23.780        43
23.800        57
23.820        50
23.840        47
23.860        47
23.880        63
23.900        17
23.920        67
23.940        57
23.960        47
23.980        33
24.000        50
24.020        33
24.040        53
24.060        37
24.080        27
24.100        53
24.120        40
24.140        53
24.160        37
24.180        40
24.200        37
24.220        33
24.240        37
24.260        53
24.280        57
24.300        30
24.320        37
24.340        27
24.360        53
24.380        57
24.400        47
24.420        37
24.440        60
24.460        33
24.480        40
24.500        27
24.520        30
24.540        40
24.560        40
24.580        57
24.600        43
24.620        57
24.640        30
24.660        37
24.680        40
24.700        57
24.720        30
24.740        40
24.760        40
24.780        27
24.800        37
24.820        47
24.840        40
24.860        30
24.880        37
24.900        73
24.920        40
24.940        43
24.960        40
24.980        53
25.000        37
25.020        20
25.040        57
25.060        17
25.080        33
25.100        33
25.120        33
25.140        63
25.160        47
25.180        43
25.200        37
25.220        33
25.240        43
25.260        30
25.280        37
25.300        43
25.320        37
25.340        40
25.360        50
25.380        40
25.400        30
25.420        53
25.440        40
25.460        17
25.480        13
25.500        43
25.520        40
25.540        67
25.560       100
25.580        80
25.600        77
25.620        60
25.640        53
25.660        77
25.680        47
25.700        33
25.720        60
25.740        40
25.760        37
25.780        27
25.800        27
25.820        50
25.840        50
25.860        50
25.880        27
25.900        43
25.920        27
25.940        33
25.960        30
25.980        40
26.000        37
26.020        33
26.040        27
26.060        57
26.080        33
26.100        33
26.120        43
26.140        37
26.160        47
26.180        20
26.200        40
26.220        33
26.240        33
26.260        53
26.280        40
26.300        43
26.320        37
26.340        33
26.360        33
26.380        53
26.400        33
26.420        27
26.440        43
26.460        30
26.480        10
26.500        40
26.520        40
26.540        37
26.560        47
26.580        47
26.600        30
26.620        20
26.640        60
26.660        33
26.680        30
26.700        37
26.720        30
26.740        20
26.760        47
26.780        23
26.800        43
26.820        23
26.840        33
26.860        33
26.880        47
26.900        30
26.920        40
26.940        33
26.960        20
26.980        27
27.000        20
27.020        40
27.040        37
27.060        27
27.080        50
27.100        23
27.120        43
27.140        40
27.160        43
27.180        43
27.200        47
27.220        30
27.240        50
27.260        37
27.280        43
27.300        33
27.320        37
27.340        27
27.360        30
27.380        20
27.400        23
27.420        27
27.440        37
27.460        20
27.480        20
27.500        30
27.520        40
27.540        27
27.560        27
27.580        30
27.600        40
27.620        33
27.640        40
27.660        40
27.680        57
27.700        27
27.720        23
27.740        43
27.760        37
27.780        40
27.800        33
27.820        20
27.840        20
27.860        30
27.880        23
27.900        20
27.920        60
27.940        13
27.960        47
27.980        23
28.000        30
28.020        43
28.040        30
28.060        17
28.080        37
28.100        27
28.120        23
28.140        30
28.160        37
28.180        33
28.200        37
28.220        27
28.240        27
28.260        37
28.280        13
28.300        43
28.320        20
28.340        30
28.360        13
28.380        27
28.400        20
28.420        30
28.440        23
28.460        37
28.480        40
28.500        23
28.520        23
28.540        43
28.560        33
28.580        37
28.600        53
28.620        33
28.640        33
28.660        30
28.680        30
28.700        63
28.720        20
28.740        30
28.760        30
28.780        23
28.800        23
28.820        50
28.840        40
28.860        20
28.880        47
28.900        43
28.920        37
28.940        23
28.960        37
28.980        23
29.000        27
29.020        37
29.040        43
29.060        27
29.080        30
29.100        33
29.120        17
29.140        40
29.160        37
29.180        53
29.200        43
29.220        37
29.240        30
29.260        20
29.280        23
29.300        33
29.320        23
29.340        27
29.360        37
29.380        30
29.400        13
29.420        43
29.440        40
29.460        30
29.480        37
29.500        33
29.520        57
29.540        47
29.560        27
29.580        40
29.600        20
29.620        47
29.640        10
29.660        50
29.680        30
29.700        33
29.720        27
29.740        20
29.760        40
29.780        33
29.800        43
29.820        17
29.840        37
29.860        33
29.880        33
29.900        33
29.920        43
29.940        43
29.960        37
29.980        17
30.000        53
30.020        30
30.040        27
30.060        20
30.080        33
30.100        47
30.120        33
30.140        33
30.160        50
30.180        27
30.200        40
30.220        23
30.240        27
30.260        37
30.280        50
30.300        37
30.320        30
30.340        23
30.360        33
30.380        33
30.400        20
30.420        27
30.440        40
30.460        47
30.480        37
30.500        43
30.520        23
30.540        37
30.560        27
30.580        37
30.600        37
30.620        33
30.640         7
30.660        23
30.680        27
30.700        30
30.720        43
30.740        37
30.760        30
30.780        40
30.800        23
30.820        33
30.840        30
30.860        27
30.880        47
30.900        23
30.920        40
30.940        40
30.960        27
30.980        40
31.000        50
31.020        30
31.040        30
31.060        27
31.080        37
31.100        27
31.120        17
31.140        37
31.160        43
31.180        33
31.200        30
31.220        40
31.240        40
31.260        30
31.280        60
31.300        47
31.320        27
31.340        27
31.360        73
31.380        40
31.400        33
31.420        27
31.440        30
31.460        30
31.480        57
31.500        47
31.520        40
31.540        57
31.560        57
31.580        50
31.600        53
31.620        60
31.640        80
31.660        50
31.680        57
31.700        53
31.720        60
31.740        47
31.760        83
31.780        83
31.800        70
31.820        90
31.840        90
31.860        87
31.880       107
31.900       147
31.920       110
31.940       107
31.960       140
31.980       147
32.000       100
32.020       157
32.040       157
32.060       160
32.080       187
32.100       183
32.120       187
32.140       167
32.160       173
32.180       170
32.200       167
32.220       207
32.240       210
32.260       147
32.280       113
32.300       183
32.320       117
32.340       153
32.360       120
32.380       123
32.400       133
32.420       117
32.440       110
32.460        57
32.480        90
32.500       117
32.520       110
32.540        87
32.560        83
32.580        77
32.600        87
32.620        83
32.640        73
32.660        77
32.680        73
32.700        43
32.720        60
32.740        87
32.760        40
32.780        80
32.800        33
32.820        43
32.840        63
32.860        57
32.880        57
32.900        43
32.920        37
32.940        33
32.960        40
32.980        23
33.000        63
33.020        30
33.040        23
33.060        57
33.080        13
33.100        27
33.120        23
33.140        53
33.160        37
33.180        33
33.200        23
33.220        43
33.240        40
33.260        50
33.280        27
33.300        47
33.320        40
33.340        27
33.360        50
33.380        37
33.400        13
33.420        17
33.440        33
33.460        40
33.480        13
33.500        17
33.520        57
33.540        33
33.560        23
33.580        33
33.600        23
33.620        30
33.640        23
33.660        13
33.680        30
33.700        13
33.720        30
33.740        23
33.760        30
33.780        27
33.800        50
33.820        23
33.840        27
33.860        43
33.880        33
33.900        50
33.920        23
33.940        23
33.960        33
33.980        27
34.000        43
34.020        20
34.040        23
34.060        33
34.080        20
34.100        20
34.120        30
34.140        27
34.160        43
34.180        20
34.200        13
34.220        20
34.240        30
34.260        20
34.280        37
34.300        27
34.320        37
34.340        20
34.360        27
34.380        23
34.400        27
34.420        37
34.440        17
34.460        27
34.480        13
34.500        20
34.520        23
34.540        27
34.560        17
34.580        37
34.600        40
34.620        23
34.640        30
34.660        20
34.680        13
34.700        33
34.720        33
34.740        30
34.760        33
34.780        10
34.800        30
34.820        13
34.840        30
34.860        13
34.880        20
34.900        23
34.920        27
34.940        13
34.960        40
34.980        30
35.000        30
35.020        50
35.040        47
35.060        63
35.080        73
35.100        97
35.120       137
35.140        90
35.160       147
35.180       137
35.200        93
35.220       117
35.240        80
35.260        87
35.280        47
35.300        37
35.320        37
35.340        37
35.360        37
35.380        27
35.400        10
35.420        23
35.440        30
35.460        43
35.480        27
35.500        27
35.520        30
35.540        13
35.560        10
35.580        23
35.600        33
35.620        33
35.640        37
35.660        23
35.680        33
35.700        27
35.720        30
35.740        40
35.760        17
35.780        13
35.800        23
35.820        17
35.840        23
35.860        33
35.880        33
35.900        23
35.920        47
35.940        10
35.960        40
35.980        17
36.000        30
36.020        27
36.040        17
36.060        13
36.080         7
36.100        23
36.120        50
36.140        27
36.160        33
36.180        10
36.200        20
36.220        13
36.240        23
36.260        40
36.280        17
36.300         3
36.320        33
36.340        20
36.360        23
36.380        20
36.400        30
36.420        33
36.440        27
36.460        30
36.480        33
36.500        23
36.520         7
36.540        23
36.560        23
36.580        30
36.600        37
36.620        30
36.640        27
36.660        23
36.680        23
36.700        27
36.720        27
36.740        20
36.760        13
36.780        23
36.800        33
36.820        37
36.840        27
36.860        40
36.880        23
36.900        17
36.920        37
36.940        27
36.960        23
36.980        23
37.000        40
37.020        30
37.040        40
37.060        37
37.080        27
37.100        30
37.120        57
37.140        17
37.160        20
37.180        23
37.200        23
37.220        47
37.240        20
37.260        37
37.280        40
37.300        20
37.320        17
37.340        33
37.360        40
37.380        30
37.400        13
37.420        17
37.440        23
37.460        33
37.480        37
37.500        27
37.520        13
37.540        37
37.560        20
37.580        23
37.600        30
37.620        17
37.640        37
37.660        33
37.680        33
37.700        20
37.720        23
37.740        37
37.760        50
37.780        40
37.800        40
37.820        53
37.840        63
37.860        37
37.880        33
37.900        43
37.920        23
37.940        47
37.960        60
37.980        30
38.000        33
38.020        23
38.040        33
38.060        27
38.080        27
38.100        13
38.120        10
38.140        20
38.160        30
38.180        27
38.200        23
38.220        17
38.240        20
38.260        17
38.280        27
38.300        17
38.320        20
38.340        27
38.360        30
38.380        23
38.400        30
38.420        30
38.440        23
38.460        43
38.480        27
38.500        30
38.520        27
38.540        17
38.560        20
38.580        17
38.600        27
38.620        43
38.640        30
38.660        37
38.680        33
38.700        27
38.720        13
38.740        27
38.760        37
38.780        33
38.800        23
38.820        17
38.840        27
38.860        23
38.880        23
38.900        37
38.920        33
38.940        27
38.960        20
38.980        13
39.000        33
39.020        33
39.040        23
39.060        23
39.080        27
39.100        30
39.120        30
39.140        33
39.160        13
39.180        37
39.200        27
39.220        30
39.240        40
39.260        27
39.280        23
39.300        37
39.320        20
39.340        33
39.360        17
39.380        47
39.400        13
39.420        10
39.440        23
39.460        27
39.480        37
39.500        17
39.520        20
39.540        37
39.560        17
39.580        17
39.600        27
39.620        37
39.640        23
39.660        20
39.680        23
39.700        40
39.720        20
39.740        33
39.760        27
39.780         7
39.800        40
39.820        13
39.840        20
39.860        33
39.880        17
39.900        50
39.920        27
39.940        33
39.960        27
39.980        23
40.000        20
40.020        10
40.040        27
40.060        27
40.080        17
40.100        27
40.120        13
40.140        30
40.160        33
40.180        33
40.200        20
40.220        20
40.240        20
40.260        33
40.280        20
40.300        10
40.320        27
40.340        53
40.360        23
40.380        23
40.400        30
40.420        43
40.440        30
40.460        20
40.480        20
40.500        40
40.520        40
40.540        27
40.560        17
40.580        13
40.600        23
40.620        30
40.640        13
40.660        17
40.680        40
40.700        23
40.720        20
40.740        23
40.760        37
40.780        47
40.800        43
40.820        23
40.840        20
40.860        27
40.880        33
40.900        37
40.920        30
40.940        20
40.960        10
40.980        33
41.000        30
41.020        27
41.040        33
41.060        17
41.080        23
41.100        10
41.120        30
41.140        30
41.160        33
41.180        27
41.200        27
41.220        20
41.240        40
41.260        37
41.280        40
41.300        37
41.320        57
41.340        33
41.360        13
41.380        33
41.400        40
41.420        43
41.440        30
41.460        27
41.480        57
41.500        33
41.520        40
41.540        40
41.560        70
41.580        67
41.600        73
41.620        73
41.640       117
41.660       140
41.680       150
41.700       150
41.720       110
41.740       103
41.760       100
41.780       110
41.800       117
41.820        73
41.840        63
41.860        53
41.880        40
41.900        30
41.920        20
41.940        30
41.960        43
41.980        27
42.000        17
42.020        33
42.040        27
42.060        23
42.080        30
42.100        30
42.120        27
42.140        23
42.160        30
42.180        50
42.200        60
42.220        30
42.240        10
42.260        13
42.280        33
42.300        20
42.320        30
42.340        20
42.360        43
42.380        27
42.400        33
42.420        23
42.440        40
42.460        37
42.480        43
42.500        43
42.520        30
42.540        13
42.560        40
42.580        27
42.600        40
42.620        37
42.640        33
42.660        20
42.680        33
42.700        30
42.720        30
42.740        20
42.760        40
42.780        20
42.800        23
42.820        30
42.840        23
42.860        27
42.880        23
42.900        40
42.920        23
42.940        43
42.960        27
42.980        30
43.000        20
43.020        20
43.040        23
43.060        20
43.080        20
43.100        27
43.120        23
43.140        67
43.160        37
43.180        40
43.200        67
43.220        53
43.240        63
43.260        30
43.280        33
43.300        53
43.320        67
43.340       113
43.360       107
43.380       120
43.400       130
43.420        93
43.440        67
43.460        83
43.480       110
43.500        70
43.520        90
43.540        63
43.560        43
43.580        53
43.600        43
43.620        37
43.640        33
43.660        50
43.680        40
43.700        30
43.720        47
43.740        47
43.760        27
43.780        73
43.800        37
43.820        40
43.840        40
43.860        37
43.880        43
43.900        50
43.920        43
43.940        37
43.960        47
43.980        57
44.000        53
44.020        50
44.040        57
44.060        23
44.080        30
44.100        53
44.120        43
44.140        50
44.160        50
44.180        57
44.200        53
44.220        70
44.240        77
44.260        77
44.280        27
44.300        67
44.320        93
44.340        67
44.360        73
44.380        87
44.400        77
44.420        67
44.440        63
44.460        77
44.480        93
44.500        97
44.520        80
44.540       133
44.560       137
44.580        87
44.600        93
44.620       110
44.640       140
44.660       123
44.680       137
44.700       120
44.720       180
44.740       123
44.760       127
44.780        80
44.800       130
44.820       137
44.840       177
44.860       163
44.880       190
44.900       183
44.920       200
44.940       167
44.960       180
44.980       230
45.000       293
45.020       243
45.040       257
45.060       243
45.080       253
45.100       243
45.120       300
45.140       387
45.160       347
45.180       333
45.200       330
45.220       410
45.240       407
45.260       413
45.280       337
45.300       483
45.320       503
45.340       426
45.360       586
45.380       523
45.400       613
45.420       570
45.440       600
45.460       703
45.480       633
45.500       706
45.520       693
45.540       763
45.560       770
45.580       796
45.600       893
45.620      1016
45.640       866
45.660       936
45.680       960
45.700       960
45.720       956
45.740      1046
45.760       993
45.780      1013
45.800      1150
45.820       933
45.840      1106
45.860      1206
45.880      1076
45.900      1206
45.920      1053
45.940      1053
45.960      1103
45.980      1040
46.000      1030
46.020      1176
46.040      1026
46.060      1030
46.080      1050
46.100      1100
46.120      1036
46.140      1106
46.160       956
46.180       903
46.200       886
46.220       850
46.240       976
46.260       830
46.280       860
46.300       840
46.320       740
46.340       773
46.360       726
46.380       686
46.400       616
46.420       676
46.440       580
46.460       566
46.480       590
46.500       560
46.520       563
46.540       536
46.560       480
46.580       510
46.600       440
46.620       516
46.640       450
46.660       413
46.680       397
46.700       360
46.720       340
46.740       370
46.760       300
46.780       313
46.800       330
46.820       277
46.840       250
46.860       240
46.880       280
46.900       260
46.920       280
46.940       240
46.960       183
46.980       183
47.000       223
47.020       220
47.040       143
47.060       140
47.080       183
47.100       187
47.120       177
47.140       150
47.160       137
47.180       147
47.200       130
47.220       167
47.240       150
47.260       120
47.280        93
47.300       143
47.320       100
47.340       137
47.360       103
47.380       120
47.400        63
47.420       103
47.440       100
47.460       107
47.480        90
47.500        83
47.520        93
47.540       130
47.560        73
47.580       103
47.600        67
47.620        83
47.640       110
47.660        83
47.680        77
47.700        53
47.720        77
47.740        97
47.760        90
47.780        63
47.800        70
47.820        53
47.840        90
47.860        73
47.880        77
47.900       100
47.920        77
47.940        70
47.960        47
47.980        77
48.000        57
48.020        30
48.040        33
48.060        80
48.080        57
48.100        60
48.120        43
48.140        83
48.160        50
48.180        63
48.200        43
48.220        27
48.240        53
48.260        53
48.280        53
48.300        40
48.320        50
48.340        60
48.360        50
48.380        50
48.400        80
48.420        53
48.440        27
48.460        47
48.480        40
48.500        30
48.520        40
48.540        57
48.560        67
48.580        50
48.600        43
48.620        47
48.640        50
48.660        37
48.680        33
48.700        47
48.720        27
48.740        37
48.760        37
48.780        50
48.800        27
48.820        37
48.840        47
48.860        40
48.880        53
48.900        30
48.920        40
48.940        60
48.960        47
48.980        40
49.000        37
49.020        27
49.040        53
49.060        33
49.080        47
49.100        50
49.120        20
49.140        40
49.160        40
49.180        33
49.200        43
49.220        30
49.240        43
49.260        23
49.280        33
49.300        50
49.320        40
49.340        50
49.360        57
49.380        47
49.400        70
49.420        40
49.440        17
49.460        33
49.480        23
49.500        47
49.520        17
49.540        30
49.560        37
49.580        30
49.600        23
49.620        40
49.640        43
49.660        30
49.680        47
49.700        57
49.720        30
49.740        30
49.760        37
49.780        47
49.800        33
49.820        53
49.840        30
49.860        40
49.880        47
49.900        27
49.920        37
49.940        30
49.960        33
49.980        23
50.000        30
50.020        27
50.040        43
50.060        27
50.080        40
50.100        27
50.120        30
50.140        33
50.160        33
50.180        43
50.200        37
50.220        23
50.240        30
50.260        30
50.280        33
50.300        40
50.320        50
50.340        20
50.360        30
50.380        33
50.400        27
50.420        40
50.440        23
50.460        23
50.480        30
50.500        37
50.520         3
50.540        23
50.560        17
50.580        17
50.600        27
50.620        30
50.640        40
50.660        20
50.680        37
50.700        50
50.720        27
50.740        23
50.760        30
50.780        37
50.800        37
50.820        47
50.840        13
50.860        30
50.880        23
50.900        17
50.920        20
50.940        37
50.960        37
50.980        40
51.000        30
51.020        33
51.040        30
51.060        23
51.080        17
51.100        10
51.120        43
51.140        33
51.160        20
51.180        33
51.200        17
51.220        27
51.240        43
51.260        23
51.280        23
51.300        27
51.320        23
51.340        37
51.360        33
51.380        20
51.400        20
51.420        13
51.440        33
51.460        30
51.480        20
51.500        27
51.520        23
51.540        27
51.560        30
51.580        23
51.600        23
51.620        33
51.640        20
51.660        13
51.680        30
51.700        27
51.720        23
51.740        13
51.760        23
51.780        40
51.800        30
51.820        27
51.840        50
51.860        33
51.880        30
51.900        30
51.920        30
51.940        37
51.960         7
51.980        43
52.000        30
52.020        37
52.040        33
52.060        20
52.080        17
52.100        40
52.120        17
52.140        13
52.160        30
52.180        30
52.200        20
52.220        40
52.240        33
52.260        30
52.280        50
52.300        30
52.320        20
52.340        23
52.360        23
52.380        13
52.400        30
52.420        27
52.440        27
52.460        30
52.480        17
52.500        37
52.520        43
52.540        47
52.560        47
52.580        57
52.600        73
52.620        77
52.640        53
52.660        20
52.680        47
52.700        40
52.720        57
52.740        47
52.760        40
52.780        40
52.800        13
52.820        10
52.840        30
52.860        17
52.880        17
52.900        27
52.920        20
52.940        23
52.960        30
52.980        27
53.000        17
53.020        17
53.040        53
53.060        17
53.080        13
53.100        33
53.120        43
53.140        40
53.160        20
53.180        20
53.200        27
53.220        17
53.240        43
53.260        20
53.280        20
53.300        17
53.320        33
53.340        23
53.360        17
53.380        20
53.400        33
53.420         3
53.440        17
53.460        13
53.480        17
53.500        20
53.520        17
53.540         7
53.560        13
53.580        40
53.600        20
53.620        27
53.640        30
53.660        33
53.680        27
53.700        23
53.720        20
53.740        37
53.760        13
53.780         7
53.800        23
53.820        30
53.840        23
53.860        17
53.880        10
53.900        40
53.920        10
53.940        30
53.960        13
53.980         3
54.000        20
54.020         7
54.040        23
54.060        27
54.080        20
54.100        13
54.120        27
54.140         7
54.160        27
54.180        23
54.200        17
54.220        20
54.240        33
54.260        17
54.280        10
54.300        13
54.320        10
54.340        20
54.360        23
54.380        10
54.400        30
54.420         7
54.440        13
54.460        30
54.480        30
54.500        23
54.520        13
54.540        17
54.560        13
54.580         3
54.600        23
54.620        23
54.640        27
54.660         7
54.680         7
54.700         7
54.720        23
54.740        23
54.760        40
54.780        30
54.800        43
54.820        23
54.840        10
54.860        10
54.880        30
54.900        23
54.920        27
54.940        30
54.960        27
54.980        33
55.000        27
55.020         7
55.040        23
55.060        30
55.080        17
55.100        23
55.120        27
55.140        23
55.160        10
55.180        20
55.200        37
55.220        20
55.240        13
55.260        37
55.280        13
55.300        17
55.320         7
55.340        13
55.360        27
55.380         7
55.400        33
55.420        17
55.440        13
55.460         7
55.480        13
55.500        30
55.520        30
55.540        10
55.560        37
55.580        10
55.600        20
55.620         0
55.640        13
55.660        20
55.680        20
55.700        23
55.720        50
55.740        23
55.760        27
55.780        17
55.800        13
55.820        17
55.840        30
55.860        20
55.880        23
55.900        13
55.920        27
55.940        17
55.960        27
55.980        20
56.000        27
56.020        30
56.040        27
56.060        13
56.080        13
56.100        27
56.120        27
56.140        17
56.160        20
56.180        23
56.200        17
56.220        23
56.240        23
56.260        17
56.280        20
56.300        27
56.320        13
56.340        23
56.360        23
56.380        20
56.400        20
56.420        10
56.440        30
56.460        23
56.480        27
56.500         3
56.520        23
56.540        20
56.560        33
56.580        17
56.600        17
56.620         7
56.640        17
56.660        17
56.680        17
56.700         7
56.720        17
56.740         7
56.760        13
56.780        30
56.800        37
56.820        23
56.840        30
56.860        27
56.880        23
56.900        27
56.920        17
56.940        20
56.960        20
56.980        37
57.000        30
57.020        20
57.040        20
57.060        27
57.080        13
57.100        47
57.120        13
57.140        17
57.160        13
57.180        20
57.200        13
57.220        23
57.240        17
57.260        23
57.280        40
57.300        47
57.320        30
57.340        33
57.360        53
57.380        57
57.400        53
57.420        53
57.440        73
57.460        63
57.480        87
57.500       103
57.520        93
57.540       113
57.560        87
57.580        67
57.600        83
57.620        43
57.640        60
57.660        37
57.680        43
57.700        63
57.720        57
57.740        63
57.760        33
57.780        33
57.800        10
57.820        27
57.840        23
57.860        20
57.880        27
57.900        23
57.920        17
57.940        17
57.960        17
57.980        20
58.000        23
58.020        17
58.040        23
58.060        17
58.080        17
58.100        23
58.120        30
58.140        23
58.160        20
58.180        23
58.200        20
58.220        23
58.240        20
58.260        13
58.280        17
58.300        23
58.320         7
58.340        20
58.360        17
58.380        27
58.400        17
58.420        17
58.440        17
58.460        27
58.480        20
58.500        27
58.520        20
58.540        10
58.560        13
58.580        10
58.600        13
58.620        23
58.640        10
58.660         7
58.680        20
58.700        20
58.720        13
58.740        10
58.760         7
58.780        13
58.800        20
58.820        73
58.840        20
58.860        13
58.880         7
58.900         7
58.920         7
58.940        37
58.960        13
58.980         7
59.000        33
59.020        17
59.040        13
59.060        33
59.080         7
59.100        27
59.120        23
59.140        33
59.160        17
59.180        23
59.200        10
59.220        23
59.240        17
59.260        17
59.280        20
59.300        30
59.320         7
59.340        20
59.360        27
59.380        17
59.400        27
59.420        13
59.440        23
59.460        20
59.480        17
59.500        20
59.520        33
59.540        20
59.560        20
59.580         3
59.600        17
59.620         7
59.640        10
59.660        10
59.680        17
59.700        27
59.720        30
59.740        17
59.760        33
59.780        13
59.800        20
59.820        13
59.840        23
59.860        17
59.880        20
59.900        23
59.920        27
59.940        30
59.960        10
59.980        17
60.000        17
