20.000        43
20.020        43
20.040        57
20.060        50
20.080        60
20.100        47
20.120        30
20.140        50
20.160        43
20.180        43
20.200        50
20.220        60
20.240        37
20.260        67
20.280        50
20.300        37
20.320        47
20.340        30
20.360        33
20.380        30
20.400        33
20.420        47
20.440        33
20.460        27
20.480        33
20.500        43
20.520        47
20.540        27
20.560        33
20.580        47
20.600        47
20.620        50
20.640        27
20.660        57
20.680        43
20.700        47
20.720        53
20.740        37
20.760        40
20.780        23
20.800        47
20.820        53
20.840        43
20.860        63
20.880        40
20.900        47
20.920        53
20.940        70
20.960        50
20.980        67
21.000        47
21.020        50
21.040        43
21.060        47
21.080        50
21.100        40
21.120        17
21.140        30
21.160        43
21.180        23
21.200        47
21.220        53
21.240        53
21.260        40
21.280        40
21.300        33
21.320        40
21.340        40
21.360        60
21.380        27
21.400        43
21.420        30
21.440        43
21.460        53
21.480        40
21.500        53
21.520        57
21.540        57
21.560        37
21.580        30
21.600        57
21.620        33
21.640        40
21.660        47
21.680        33
21.700        33
21.720        53
21.740        53
21.760        33
21.780        40
21.800        53
21.820        50
21.840        33
21.860        27
21.880        40
21.900        37
21.920        40
21.940        43
21.960        27
21.980        40
22.000        63
22.020        43
22.040        30
22.060        33
22.080        50
22.100        50
22.120        50
22.140        53
22.160        40
22.180        37
22.200        47
22.220        63
22.240        33
22.260        57
22.280        33
22.300        33
22.320        53
22.340        43
22.360        43
22.380        77
22.400        50
22.420        83
22.440        67
22.460        43
22.480        73
22.500       103
22.520       103
22.540       103
22.560       120
22.580       110
22.600       127
22.620       133
22.640        90
22.660       147
22.680       143
22.700       110
22.720       117
22.740       110
22.760       127
22.780        73
22.800        70
22.820        90
22.840       103
22.860        57
22.880        73
22.900        50
22.920        50
22.940        63
22.960        53
22.980        43
23.000        57
23.020        43
23.040        50
23.060        50
23.080        57
23.100        47
23.120        43
23.140        50
23.160        50
23.180        63
23.200        27
23.220        67
23.240        50
23.260        40
23.280        27
23.300        37
23.320        33
23.340        27
23.360        53
23.380        40
23.400        37
23.420        40
23.440        30
23.460        57
23.480        50
23.500        37
23.520        27
23.540        50
23.560        37
23.580        47
23.600        23
23.620        40
23.640        40
23.660        37
23.680        40
23.700        40
23.720        43
23.740        50
23.760        43
23.780        53
23.800        33
23.820        47
23.840        33
23.860        27
23.880        53
23.900        40
23.920        43
23.940        30
23.960        30
23.980        40
24.000        33
24.020        30
24.040        40
24.060        63
24.080        57
24.100        23
24.120        40
24.140        27
24.160        53
24.180        20
24.200        37
24.220        20
24.240        47
24.260        40
24.280        30
24.300        27
24.320        43
24.340        43
24.360        57
24.380        23
24.400        27
24.420        27
24.440        40
24.460        47
24.480        53
24.500        27
24.520        60
24.540        23
24.560        43
24.580        43
24.600        57
24.620        50
24.640        40
24.660        20
24.680        27
24.700        40
24.720        60
24.740        50
24.760        40
24.780        13
24.800        47
24.820        53
24.840        13
24.860        40
24.880        40
24.900        27
24.920        37
24.940        13
24.960        30
24.980        27
25.000        33
25.020        27
25.040        40
25.060        43
25.080        27
25.100        37
25.120        37
25.140        50
25.160        40
25.180        37
25.200        43
25.220        30
25.240        47
25.260        27
25.280        23
25.300        47
25.320        20
25.340        43
25.360        67
25.380        43
25.400        33
25.420        70
25.440        37
25.460        33
25.480        27
25.500        33
25.520        37
25.540        43
25.560        40
25.580        47
25.600        53
25.620        53
25.640        30
25.660        37
25.680        30
25.700        30
25.720        30
25.740        23
25.760        33
25.780        37
25.800        33
25.820        30
25.840        30
25.860        30
25.880        27
25.900        37
25.920        33
25.940        40
25.960        17
25.980        13
26.000        20
26.020        40
26.040        23
26.060        13
26.080        33
26.100        33
26.120        40
26.140        33
26.160        40
26.180        43
26.200        40
26.220        30
26.240        40
26.260        37
26.280        53
26.300        23
26.320        43
26.340        33
26.360        37
26.380        30
26.400        23
26.420        43
26.440        20
26.460        37
26.480        50
26.500        37
26.520        17
26.540        17
26.560        27
26.580        43
26.600        50
26.620        43
26.640        40
26.660        37
26.680        27
26.700        40
26.720        30
26.740        37
26.760        37
26.780        33
26.800        30
26.820        43
26.840        20
26.860        37
26.880        40
26.900        47
26.920        27
26.940        43
26.960        20
26.980        17
27.000        27
27.020        47
27.040        20
27.060        33
27.080        30
27.100        40
27.120        37
27.140        27
27.160        37
27.180        40
27.200        13
27.220        30
27.240        27
27.260        23
27.280        23
27.300        23
27.320        27
27.340        27
27.360        43
27.380        33
27.400        60
27.420        57
27.440        23
27.460        23
27.480        40
27.500        20
27.520        20
27.540        13
27.560        23
27.580        57
27.600        43
27.620        33
27.640        40
27.660        43
27.680        27
27.700        20
27.720        23
27.740        27
27.760        33
27.780        23
27.800        37
27.820        47
27.840        30
27.860        40
27.880        30
27.900        27
27.920        27
27.940        43
27.960        27
27.980        23
28.000         3
28.020        30
28.040        20
28.060        47
28.080        37
28.100        27
28.120        50
28.140        30
28.160        33
28.180        47
28.200        40
28.220        47
28.240        30
28.260        27
28.280        17
28.300        37
28.320        37
28.340        20
28.360        33
28.380        20
28.400        43
28.420        30
28.440        30
28.460        40
28.480        13
28.500        20
28.520        27
28.540        33
28.560        23
28.580        23
28.600        23
28.620        30
28.640        43
28.660        40
28.680        33
28.700        37
28.720        37
28.740        27
28.760        37
28.780        20
28.800        23
28.820        20
28.840        23
28.860        33
28.880        33
28.900        33
28.920        23
28.940        20
28.960         7
28.980        10
29.000        23
29.020        20
29.040        33
29.060        37
29.080        20
29.100        47
29.120        37
29.140        27
29.160        30
29.180        40
29.200        30
29.220        17
29.240        40
29.260        23
29.280        37
29.300        37
29.320        50
29.340        30
29.360        43
29.380        23
29.400        20
29.420        33
29.440        33
29.460        33
29.480        33
29.500        33
29.520        17
29.540        37
29.560        37
29.580        40
29.600        30
29.620        27
29.640        23
29.660        37
29.680        20
29.700        27
29.720        27
29.740        37
29.760        33
29.780        37
29.800        23
29.820        40
29.840        33
29.860        17
29.880        23
29.900        27
29.920        30
29.940        40
29.960        23
29.980        17
30.000        27
30.020        27
30.040        17
30.060         7
30.080        33
30.100        27
30.120        33
30.140        33
30.160        10
30.180        27
30.200        33
30.220        37
30.240        37
30.260        27
30.280        10
30.300        23
30.320        30
30.340        23
30.360        27
30.380        47
30.400        27
30.420        20
30.440        33
30.460        47
30.480        17
30.500        17
30.520        13
30.540        30
30.560        13
30.580        27
30.600        37
30.620        27
30.640        20
30.660        30
30.680        37
30.700        33
30.720        33
30.740        20
30.760        27
30.780        27
30.800        20
30.820        37
30.840        40
30.860        23
30.880        27
30.900        17
30.920        20
30.940        30
30.960        27
30.980        33
31.000        53
31.020        13
31.040        23
31.060        30
31.080        13
31.100        50
31.120        27
31.140        30
31.160        30
31.180        33
31.200        17
31.220        23
31.240        23
31.260        33
31.280        40
31.300        33
31.320        17
31.340        27
31.360        40
31.380        27
31.400        40
31.420        60
31.440        17
31.460        33
31.480        37
31.500        17
31.520        43
31.540        27
31.560        40
31.580        23
31.600        27
31.620        23
31.640        27
31.660        23
31.680        23
31.700        23
31.720        17
31.740        30
31.760        23
31.780         3
31.800        37
31.820        17
31.840        27
31.860        37
31.880        20
31.900        40
31.920        43
31.940        27
31.960        23
31.980        30
32.000        20
32.020        33
32.040        40
32.060        47
32.080        33
32.100        60
32.120        40
32.140        83
32.160        50
32.180        53
32.200        63
32.220        73
32.240        70
32.260       137
32.280        77
32.300        90
32.320        73
32.340       107
32.360       120
32.380       137
32.400       103
32.420       100
32.440        90
32.460        80
32.480        77
32.500        83
32.520        77
32.540        67
32.560        80
32.580        53
32.600        57
32.620        43
32.640        77
32.660        37
32.680        53
32.700        63
32.720        47
32.740        30
32.760        40
32.780        37
32.800        20
32.820        33
32.840        43
32.860        20
32.880        27
32.900        20
32.920        27
32.940        47
32.960        13
32.980        13
33.000        33
33.020        10
33.040        23
33.060        30
33.080        17
33.100        30
33.120        27
33.140        40
33.160        27
33.180        33
33.200        13
33.220        17
33.240        50
33.260        33
33.280        30
33.300        33
33.320        30
33.340        37
33.360        33
33.380        43
33.400        33
33.420        20
33.440        23
33.460        23
33.480        47
33.500        40
33.520        20
33.540        33
33.560        27
33.580        10
33.600        33
33.620        27
33.640        40
33.660        30
33.680        37
33.700        13
33.720        23
33.740        20
33.760        17
33.780        17
33.800        27
33.820        50
33.840        20
33.860        27
33.880        27
33.900        27
33.920        27
33.940        20
33.960        30
33.980         0
34.000        23
34.020        20
34.040        37
34.060        43
34.080        20
34.100        37
34.120        20
34.140        13
34.160        20
34.180        27
34.200        27
34.220        20
34.240        17
34.260        20
34.280        27
34.300        33
34.320        13
34.340        27
34.360        17
34.380        30
34.400        30
34.420        10
34.440        10
34.460        23
34.480        20
34.500        33
34.520        23
34.540        23
34.560        20
34.580        40
34.600        13
34.620        20
34.640        47
34.660        17
34.680        20
34.700        17
34.720        37
34.740        17
34.760        17
34.780        27
34.800        20
34.820        20
34.840        30
34.860        20
34.880        23
34.900        33
34.920        37
34.940        30
34.960        30
34.980        30
35.000        37
35.020        60
35.040        57
35.060        47
35.080        80
35.100       107
35.120       110
35.140       200
35.160       320
35.180       370
35.200       426
35.220       327
35.240       293
35.260       277
35.280       213
35.300       167
35.320       127
35.340        83
35.360        33
35.380        43
35.400        27
35.420        27
35.440        30
35.460        30
35.480        23
35.500        20
35.520        43
35.540        20
35.560        13
35.580        30
35.600        20
35.620        30
35.640        30
35.660        33
35.680        30
35.700        30
35.720        13
35.740        30
35.760        17
35.780         7
35.800        27
35.820        23
35.840        27
35.860        13
35.880        13
35.900        23
35.920        53
35.940        27
35.960        23
35.980        17
36.000        20
36.020        27
36.040        27
36.060        27
36.080        10
36.100        13
36.120        30
36.140        27
36.160        33
36.180        13
36.200        23
36.220        20
36.240        17
36.260        10
36.280        30
36.300        10
36.320        17
36.340        20
36.360        17
36.380        27
36.400        10
36.420        20
36.440         7
36.460        30
36.480        30
36.500        13
36.520        20
36.540        23
36.560        17
36.580        23
36.600        10
36.620        20
36.640        13
36.660        17
36.680        13
36.700        33
36.720        17
36.740        30
36.760        10
36.780        23
36.800        13
36.820        23
36.840        23
36.860        17
36.880        17
36.900        23
36.920        37
36.940        23
36.960        30
36.980        43
37.000        47
37.020        20
37.040        50
37.060        37
37.080        37
37.100        23
37.120        10
37.140        17
37.160        13
37.180        27
37.200        17
37.220        13
37.240        33
37.260        27
37.280        37
37.300        27
37.320        13
37.340        13
37.360         7
37.380        13
37.400        13
37.420        13
37.440        33
37.460        37
37.480        17
37.500        13
37.520        13
37.540        40
37.560        33
37.580        37
37.600        40
37.620        23
37.640        23
37.660        33
37.680        13
37.700        20
37.720         7
37.740        10
37.760        37
37.780        53
37.800        47
37.820        30
37.840        40
37.860        20
37.880        50
37.900        47
37.920        20
37.940        20
37.960        43
37.980        20
38.000        33
38.020        10
38.040        13
38.060        30
38.080        13
38.100        27
38.120        17
38.140        10
38.160        10
38.180        23
38.200         7
38.220        30
38.240        20
38.260        10
38.280         7
38.300        37
38.320        30
38.340        10
38.360        10
38.380        23
38.400        27
38.420        17
38.440        23
38.460        37
38.480        17
38.500        17
38.520        13
38.540        37
38.560        23
38.580         7
38.600        13
38.620        27
38.640        23
38.660        20
38.680        27
38.700        30
38.720        17
38.740        20
38.760        37
38.780        17
38.800        17
38.820        47
38.840        40
38.860        10
38.880        33
38.900        33
38.920        20
38.940        27
38.960        17
38.980        40
39.000        23
39.020        33
39.040        27
39.060        23
39.080        33
39.100        27
39.120        13
39.140        33
39.160        10
39.180        30
39.200        20
39.220        30
39.240        27
39.260        13
39.280        23
39.300        23
39.320        30
39.340        37
39.360        20
39.380        10
39.400        37
39.420        23
39.440        40
39.460        17
39.480        23
39.500        40
39.520        50
39.540        30
39.560        37
39.580        23
39.600        37
39.620        43
39.640        37
39.660        43
39.680        37
39.700        60
39.720        63
39.740        63
39.760        80
39.780       100
39.800        87
39.820        70
39.840        93
39.860       120
39.880        97
39.900       103
39.920       150
39.940       110
39.960       157
39.980       150
40.000       143
40.020       123
40.040        93
40.060       150
40.080       120
40.100        97
40.120        80
40.140       110
40.160        63
40.180        80
40.200        97
40.220        87
40.240        40
40.260        67
40.280        63
40.300        57
40.320        47
40.340        37
40.360        27
40.380        37
40.400        20
40.420        13
40.440        33
40.460        23
40.480        10
40.500        37
40.520        40
40.540        23
40.560        37
40.580        10
40.600        20
40.620        33
40.640        33
40.660        17
40.680        20
40.700        23
40.720        30
40.740        30
40.760        23
40.780        23
40.800        23
40.820        27
40.840        20
40.860        20
40.880        23
40.900        20
40.920        23
40.940        33
40.960        20
40.980        30
41.000        30
41.020        20
41.040        13
41.060        27
41.080         3
41.100        27
41.120        40
41.140        17
41.160        13
41.180        10
41.200        27
41.220        23
41.240        30
41.260        20
41.280        27
41.300        20
41.320        37
41.340         7
41.360        17
41.380        30
41.400        23
41.420        23
41.440        27
41.460        27
41.480        30
41.500        27
41.520        47
41.540        37
41.560        50
41.580        53
41.600        63
41.620        53
41.640        73
41.660        67
41.680       130
41.700       203
41.720       253
41.740       287
41.760       240
41.780       170
41.800       140
41.820       160
41.840       133
41.860       137
41.880        93
41.900        40
41.920        60
41.940        33
41.960        30
41.980        33
42.000        27
42.020        33
42.040        17
42.060        30
42.080         7
42.100        20
42.120        30
42.140        13
42.160        33
42.180        27
42.200        13
42.220        30
42.240        20
42.260        20
42.280        27
42.300        37
42.320        17
42.340        13
42.360        27
42.380        17
42.400        20
42.420        20
42.440        17
42.460        17
42.480         7
42.500        27
42.520        30
42.540        23
42.560        10
42.580        20
42.600        27
42.620        10
42.640        13
42.660        13
42.680        13
42.700        13
42.720        30
42.740        23
42.760        23
42.780        10
42.800        20
42.820        33
42.840        17
42.860        13
42.880        23
42.900         7
42.920        43
42.940        27
42.960        13
42.980        30
43.000        27
43.020        50
43.040        13
43.060        10
43.080        17
43.100        33
43.120        13
43.140        33
43.160        20
43.180        30
43.200        27
43.220        43
43.240        30
43.260        27
43.280        37
43.300        50
43.320        30
43.340        37
43.360        33
43.380        67
43.400        40
43.420        83
43.440        70
43.460        60
43.480        60
43.500        40
43.520        43
43.540        53
43.560        33
43.580        33
43.600        30
43.620        33
43.640        30
43.660        10
43.680        23
43.700        27
43.720        17
43.740         7
43.760        10
43.780         3
43.800        30
43.820        33
43.840        10
43.860        10
43.880        10
43.900        10
43.920        17
43.940        13
43.960        17
43.980        33
44.000        33
44.020        20
44.040        17
44.060        13
44.080        37
44.100        23
44.120        17
44.140        23
44.160        13
44.180        27
44.200        20
44.220        27
44.240        30
44.260         7
44.280        13
44.300        17
44.320        33
44.340        43
44.360        33
44.380        27
44.400        17
44.420        13
44.440        20
44.460        20
44.480        17
44.500        43
44.520        17
44.540        47
44.560        37
44.580        17
44.600        30
44.620        20
44.640        23
44.660        23
44.680        43
44.700        27
44.720        20
44.740        20
44.760        17
44.780        47
44.800        10
44.820        50
44.840        17
44.860        40
44.880        17
44.900        37
44.920        37
44.940        53
44.960        40
44.980        47
45.000        60
45.020        17
45.040        60
45.060        50
45.080        30
45.100        50
45.120        27
45.140        47
45.160        67
45.180        50
45.200        53
45.220        67
45.240        47
45.260        57
45.280        33
45.300        87
45.320        43
45.340        60
45.360        50
45.380        70
45.400        57
45.420        80
45.440        57
45.460        53
45.480       107
45.500        60
45.520        73
45.540        90
45.560       100
45.580       100
45.600       117
45.620       103
45.640       140
45.660       117
45.680       133
45.700       133
45.720       123
45.740       167
45.760       143
45.780       170
45.800       180
45.820       227
45.840       203
45.860       230
45.880       237
45.900       253
45.920       320
45.940       277
45.960       307
45.980       367
46.000       323
46.020       343
46.040       450
46.060       430
46.080       480
46.100       526
46.120       580
46.140       543
46.160       563
46.180       690
46.200       596
46.220       613
46.240       740
46.260       693
46.280       753
46.300       703
46.320       740
46.340       693
46.360       630
46.380       673
46.400       660
46.420       623
46.440       693
46.460       620
46.480       600
46.500       613
46.520       533
46.540       540
46.560       580
46.580       496
46.600       403
46.620       453
46.640       387
46.660       397
46.680       340
46.700       377
46.720       370
46.740       300
46.760       287
46.780       263
46.800       203
46.820       223
46.840       217
46.860       270
46.880       200
46.900       140
46.920       120
46.940       110
46.960       150
46.980       113
47.000       167
47.020        97
47.040       130
47.060       103
47.080       100
47.100        77
47.120        50
47.140        97
47.160       117
47.180        43
47.200        50
47.220        60
47.240        80
47.260        67
47.280        80
47.300        63
47.320        53
47.340        60
47.360        50
47.380        77
47.400        33
47.420        43
47.440        57
47.460        47
47.480        57
47.500        53
47.520        40
47.540        60
47.560        17
47.580        33
47.600        37
47.620        20
47.640        30
47.660        47
47.680        13
47.700        50
47.720        20
47.740        30
47.760        53
47.780        33
47.800        17
47.820        27
47.840        23
47.860        27
47.880        33
47.900        30
47.920        40
47.940        20
47.960        30
47.980        27
48.000        30
48.020        33
48.040        20
48.060        17
48.080        40
48.100         7
48.120        37
48.140        13
48.160        33
48.180        30
48.200        30
48.220        20
48.240        37
48.260        20
48.280        20
48.300        43
48.320        27
48.340        20
48.360        33
48.380        20
48.400        17
48.420        23
48.440        27
48.460        20
48.480        23
48.500        27
48.520        23
48.540        23
48.560        10
48.580        37
48.600        20
48.620        23
48.640         3
48.660        23
48.680        20
48.700        13
48.720        17
48.740        27
48.760        20
48.780        33
48.800        20
48.820        17
48.840        20
48.860        23
48.880        23
48.900        43
48.920        20
48.940        20
48.960        27
48.980        27
49.000        30
49.020        40
49.040        33
49.060        40
49.080        23
49.100        10
49.120        30
49.140        27
49.160        27
49.180         7
49.200        13
49.220        23
49.240        20
49.260        27
49.280        30
49.300        30
49.320        20
49.340        13
49.360        20
49.380        30
49.400        17
49.420        20
49.440        10
49.460        20
49.480        23
49.500        27
49.520        13
49.540        20
49.560        20
49.580        30
49.600         7
49.620        27
49.640        20
49.660        23
49.680        23
49.700        33
49.720         7
49.740        17
49.760        30
49.780        27
49.800        23
49.820        30
49.840        17
49.860        30
49.880        27
49.900        23
49.920        20
49.940        37
49.960        27
49.980        10
50.000        30
50.020        17
50.040        20
50.060        20
50.080        17
50.100        13
50.120        23
50.140        17
50.160        17
50.180         7
50.200        23
50.220         7
50.240        20
50.260        23
50.280        17
50.300        37
50.320        17
50.340        20
50.360        13
50.380        17
50.400        33
50.420        13
50.440        17
50.460        33
50.480        13
50.500        27
50.520        20
50.540        23
50.560        17
50.580         7
50.600        20
50.620        10
50.640         3
50.660        20
50.680        23
50.700        17
50.720        20
50.740        13
50.760        23
50.780        20
50.800        23
50.820        17
50.840        23
50.860        17
50.880        30
50.900        20
50.920        23
50.940        13
50.960        20
50.980        17
51.000        23
51.020        20
51.040        13
51.060        20
51.080        10
51.100        10
51.120        13
51.140        20
51.160        17
51.180        27
51.200        10
51.220        20
51.240        13
51.260        17
51.280        23
51.300        17
51.320        13
51.340        90
51.360        27
51.380        13
51.400        17
51.420        23
51.440        17
51.460        13
51.480        20
51.500        27
51.520        10
51.540        17
51.560        17
51.580        13
51.600        20
51.620        33
51.640        13
51.660        23
51.680        33
51.700        13
51.720         7
51.740        13
51.760        10
51.780        27
51.800        23
51.820        23
51.840        27
51.860         7
51.880        20
51.900        20
51.920        17
51.940         7
51.960        10
51.980        23
52.000        10
52.020        37
52.040        20
52.060        13
52.080         7
52.100        17
52.120        10
52.140        10
52.160        13
52.180         7
52.200        10
52.220        23
52.240        17
52.260        20
52.280        10
52.300         7
52.320        20
52.340        17
52.360        20
52.380        17
52.400         0
52.420        23
52.440        30
52.460        13
52.480        23
52.500        17
52.520        23
52.540        67
52.560        70
52.580        53
52.600        60
52.620        33
52.640        67
52.660        47
52.680        83
52.700       103
52.720        73
52.740        40
52.760        30
52.780        17
52.800        43
52.820        53
52.840        33
52.860        57
52.880        23
52.900        10
52.920        17
52.940        13
52.960        20
52.980        33
53.000        27
53.020        10
53.040        13
53.060        30
53.080        27
53.100        23
53.120        10
53.140        27
53.160        13
53.180        13
53.200        17
53.220        20
53.240        13
53.260        17
53.280        27
53.300        17
53.320        30
53.340        23
53.360        20
53.380        10
53.400        10
53.420         7
53.440         7
53.460         3
53.480        13
53.500         7
53.520         3
53.540        23
53.560        10
53.580         3
53.600        13
53.620        13
53.640        20
53.660         7
53.680        20
53.700        20
53.720        23
53.740        20
53.760        10
53.780        13
53.800        27
53.820        20
53.840        17
53.860        20
53.880         7
53.900        13
53.920        17
53.940        13
53.960        10
53.980        23
54.000        20
54.020        13
54.040        17
54.060        17
54.080        10
54.100        17
54.120        27
54.140        10
54.160        13
54.180        23
54.200        27
54.220        20
54.240        23
54.260        13
54.280        13
54.300        10
54.320        20
54.340        13
54.360        27
54.380         7
54.400        13
54.420        13
54.440        10
54.460         3
54.480        13
54.500        17
54.520        10
54.540        13
54.560        17
54.580         3
54.600        17
54.620        17
54.640         3
54.660        10
54.680        13
54.700        13
54.720        23
54.740        13
54.760        13
54.780        10
54.800        17
54.820        17
54.840         3
54.860        23
54.880        17
54.900        10
54.920        23
54.940        27
54.960         7
54.980        23
55.000         7
55.020        20
55.040        13
55.060        20
55.080        10
55.100        20
55.120        17
55.140        23
55.160        17
55.180         7
55.200         7
55.220        23
55.240        20
55.260        27
55.280        17
55.300        13
55.320        17
55.340        10
55.360        10
55.380        13
55.400         7
55.420         7
55.440        17
55.460        17
55.480        20
55.500         7
55.520        10
55.540        20
55.560        13
55.580        20
55.600        10
55.620        17
55.640        10
55.660        23
55.680        17
55.700        20
55.720        27
55.740        23
55.760        13
55.780        20
55.800        13
55.820        17
55.840        13
55.860        13
55.880        20
55.900         7
55.920        10
55.940         7
55.960        20
55.980         7
56.000         7
56.020        30
56.040        20
56.060        20
56.080         3
56.100        13
56.120        13
56.140        13
56.160        10
56.180        13
56.200        13
56.220        13
56.240        20
56.260        23
56.280        17
56.300        13
56.320        10
56.340        17
56.360         3
56.380        27
56.400        13
56.420        17
56.440        13
56.460        23
56.480        10
56.500        17
56.520        13
56.540         7
56.560        10
56.580        20
56.600        17
56.620         7
56.640         3
56.660         7
56.680        17
56.700        13
56.720         7
56.740         7
56.760        20
56.780        10
56.800        13
56.820        17
56.840         7
56.860        10
56.880         7
56.900        17
56.920        17
56.940         3
56.960        23
56.980        10
57.000         7
57.020        10
57.040        20
57.060        13
57.080        37
57.100        23
57.120         3
57.140        17
57.160        20
57.180        10
57.200         3
57.220        17
57.240        20
57.260        17
57.280        23
57.300         3
57.320        17
57.340        23
57.360        17
57.380        17
57.400        23
57.420        23
57.440        50
57.460        30
57.480        33
57.500        50
57.520        43
57.540        80
57.560        70
57.580        73
57.600        93
57.620        73
57.640        57
57.660        43
57.680        50
57.700        50
57.720        60
57.740        67
57.760        30
57.780        50
57.800        63
57.820        33
57.840        23
57.860        23
57.880        20
57.900        40
57.920        37
57.940        10
57.960        30
57.980        17
58.000        37
58.020        27
58.040        17
58.060        27
58.080        17
58.100        20
58.120        17
58.140        23
58.160        27
58.180        27
58.200        20
58.220        27
58.240        20
58.260        10
58.280        20
58.300        43
58.320        20
58.340        13
58.360        17
58.380        17
58.400         7
58.420        17
58.440        30
58.460         7
58.480        13
58.500        10
58.520        13
58.540        27
58.560        17
58.580        10
58.600        13
58.620         3
58.640        17
58.660        23
58.680        10
58.700        13
58.720        10
58.740        10
58.760        27
58.780        30
58.800         7
58.820        27
58.840        20
58.860         3
58.880        20
58.900        10
58.920         7
58.940        10
58.960        17
58.980        13
59.000        10
59.020        13
59.040        17
59.060        17
59.080        20
59.100         3
59.120         7
59.140        23
59.160        10
59.180        17
59.200        13
59.220         0
59.240        13
59.260        13
59.280        10
59.300         3
59.320        13
59.340        13
59.360        23
59.380        20
59.400        17
59.420        17
59.440        30
59.460        10
59.480        10
59.500        17
59.520        23
59.540        23
59.560        20
59.580        17
59.600         7
59.620        20
59.640         7
59.660        10
59.680        23
59.700        13
59.720        17
59.740        30
59.760        17
59.780        23
59.800        23
59.820         3
59.840        23
59.860        40
59.880        20
59.900        27
59.920        17
59.940         3
59.960        17
59.980        33
60.000        10
