20.000        13
20.010        13
20.020        40
20.030        33
20.040        40
20.050        53
20.060        47
20.070        47
20.080        40
20.090        60
20.100        40
20.110        20
20.120        87
20.130        40
20.140        53
20.150        67
20.160        53
20.170        40
20.180        40
20.190        67
20.200        80
20.210        40
20.220        27
20.230        40
20.240        27
20.250        47
20.260        40
20.270        47
20.280        60
20.290        67
20.300        53
20.310        53
20.320        40
20.330        53
20.340        60
20.350        53
20.360        53
20.370        40
20.380        53
20.390        93
20.400        93
20.410        47
20.420        60
20.430        40
20.440        67
20.450        60
20.460        47
20.470        60
20.480        67
20.490        47
20.500        53
20.510        67
20.520        73
20.530        47
20.540        40
20.550        20
20.560        20
20.570        87
20.580        73
20.590        40
20.600        47
20.610        53
20.620        73
20.630        33
20.640        47
20.650        33
20.660         7
20.670        20
20.680        27
20.690        47
20.700        60
20.710        47
20.720        93
20.730        53
20.740        40
20.750        53
20.760        73
20.770        33
20.780        67
20.790        60
20.800        40
20.810        33
20.820        47
20.830        40
20.840        40
20.850        40
20.860        67
20.870        33
20.880        73
20.890        60
20.900        53
20.910        53
20.920        53
20.930        73
20.940        53
20.950        40
20.960        80
20.970        53
20.980        33
20.990        60
21.000        40
21.010        33
21.020        80
21.030        27
21.040        60
21.050        40
21.060        60
21.070        60
21.080        20
21.090        33
21.100         7
21.110        27
21.120        27
21.130        27
21.140        53
21.150        33
21.160        53
21.170        33
21.180        60
21.190        53
21.200        53
21.210        20
21.220        33
21.230        53
21.240        60
21.250        27
21.260        47
21.270        60
21.280        53
21.290        47
21.300        40
21.310        33
21.320        20
21.330        27
21.340        87
21.350        33
21.360        73
21.370        53
21.380        33
21.390        67
21.400        40
21.410        13
21.420        67
21.430        27
21.440        13
21.450        53
21.460        47
21.470        53
21.480        47
21.490        53
21.500        80
21.510        27
21.520        60
21.530        40
21.540        47
21.550        60
21.560        80
21.570        47
21.580        67
21.590        53
21.600        27
21.610        27
21.620        40
21.630        60
21.640        20
21.650        20
21.660        33
21.670        60
21.680        40
21.690        40
21.700        40
21.710        60
21.720        40
21.730        40
21.740        53
21.750        93
21.760        47
21.770        53
21.780        67
21.790        60
21.800        67
21.810        53
21.820        73
21.830        33
21.840        27
21.850        60
21.860        53
21.870        73
21.880        33
21.890        47
21.900        80
21.910        67
21.920        60
21.930        47
21.940        27
21.950        27
21.960        73
21.970        53
21.980        47
21.990        60
22.000        33
22.010        40
22.020        27
22.030        27
22.040        53
22.050        33
22.060        53
22.070        93
22.080        47
22.090        40
22.100        67
22.110        53
22.120        47
22.130        27
22.140        53
22.150        40
22.160        40
22.170        53
22.180        53
22.190        33
22.200        27
22.210        53
22.220        40
22.230        27
22.240        20
22.250        67
22.260       113
22.270        47
22.280        60
22.290        60
22.300        20
22.310        27
22.320         0
22.330        73
22.340        27
22.350        47
22.360        40
22.370        67
22.380        60
22.390        73
22.400        80
22.410        60
22.420        47
22.430        73
22.440        60
22.450       100
22.460        80
22.470        67
22.480        67
22.490        80
22.500        93
22.510       113
22.520       113
22.530        40
22.540       173
22.550       140
22.560       173
22.570       140
22.580       160
22.590       127
22.600       207
22.610       260
22.620       213
22.630       180
22.640       200
22.650       260
22.660       320
22.670       393
22.680       347
22.690       293
22.700       360
22.710       320
22.720       367
22.730       440
22.740       387
22.750       486
22.760       560
22.770       307
22.780       393
22.790       333
22.800       407
22.810       253
22.820       320
22.830       320
22.840       400
22.850       233
22.860       287
22.870       227
22.880       207
22.890       147
22.900       253
22.910       160
22.920       193
22.930       133
22.940       173
22.950       107
22.960       127
22.970       107
22.980       100
22.990        80
23.000       100
23.010        73
23.020        80
23.030        73
23.040        47
23.050        73
23.060        73
23.070        80
23.080       113
23.090        73
23.100        60
23.110        80
23.120        60
23.130        60
23.140       100
23.150        80
23.160        40
23.170        33
23.180        60
23.190        47
23.200        53
23.210        60
23.220        33
23.230        27
23.240        40
23.250        33
23.260        53
23.270        67
23.280        47
23.290        80
23.300        60
23.310        67
23.320        40
23.330        47
23.340        80
23.350       100
23.360        67
23.370        73
23.380        33
23.390        33
23.400        53
23.410        33
23.420        60
23.430        40
23.440        47
23.450        13
23.460        33
23.470        27
23.480        73
23.490        40
23.500        53
23.510         7
23.520        33
23.530        27
23.540        33
23.550        40
23.560        47
23.570        73
23.580        60
23.590        33
23.600        53
23.610        47
23.620        80
23.630        60
23.640        53
23.650        53
23.660        53
23.670        33
23.680        53
23.690        40
23.700        33
23.710        60
23.720        53
23.730        27
23.740        47
23.750        47
23.760        53
23.770        47
23.780        47
23.790        53
23.800        53
23.810        20
23.820        53
23.830        60
23.840        47
23.850        40
23.860        80
23.870        40
23.880         7
23.890        33
23.900        33
23.910        53
23.920        53
23.930        60
23.940        60
23.950        33
23.960        20
23.970        47
23.980        73
23.990        53
24.000        67
24.010        67
24.020        27
24.030        60
24.040        60
24.050        60
24.060        53
24.070        73
24.080        53
24.090        20
24.100        13
24.110        33
24.120        60
24.130        33
24.140        20
24.150        67
24.160        33
24.170        40
24.180        53
24.190        33
24.200        67
24.210        40
24.220        33
24.230        73
24.240        40
24.250        40
24.260        53
24.270        53
24.280        33
24.290        47
24.300        33
24.310        33
24.320        40
24.330        53
24.340        27
24.350        73
24.360        33
24.370        33
24.380        53
24.390        67
24.400        20
24.410        47
24.420        53
24.430        53
24.440        47
24.450        40
24.460        47
24.470        40
24.480        80
24.490        33
24.500        40
24.510        47
24.520        53
24.530        33
24.540        20
24.550        80
24.560        20
24.570        40
24.580        33
24.590        40
24.600        47
24.610        47
24.620        40
24.630        67
24.640        40
24.650        33
24.660        47
24.670        47
24.680        40
24.690        53
24.700        33
24.710        53
24.720        40
24.730        53
24.740        40
24.750        33
24.760        40
24.770        33
24.780        53
24.790        47
24.800        13
24.810        27
24.820        33
24.830        67
24.840        53
24.850        53
24.860        27
24.870        20
24.880        40
24.890        33
24.900        27
24.910        13
24.920        40
24.930        60
24.940        20
24.950        33
24.960        27
24.970        53
24.980        67
24.990        20
25.000        20
25.010        73
25.020        47
25.030        20
25.040        20
25.050        60
25.060        40
25.070        33
25.080        33
25.090        13
25.100        53
25.110        40
25.120        60
25.130        53
25.140        40
25.150        40
25.160        27
25.170        47
25.180        47
25.190        40
25.200        47
25.210        27
25.220        33
25.230        33
25.240        67
25.250        47
25.260        40
25.270        47
25.280        47
25.290        27
25.300        40
25.310        47
25.320        53
25.330        13
25.340        87
25.350        47
25.360        33
25.370        33
25.380        20
25.390        47
25.400        40
25.410        27
25.420        53
25.430        47
25.440        27
25.450        53
25.460        40
25.470        53
25.480        27
25.490        40
25.500        40
25.510        40
25.520        40
25.530        67
25.540        73
25.550        73
25.560        20
25.570        27
25.580        53
25.590        47
25.600        33
25.610        47
25.620        80
25.630        53
25.640        40
25.650        47
25.660        53
25.670        20
25.680        53
25.690        27
25.700        33
25.710        47
25.720        27
25.730        33
25.740        53
25.750        20
25.760        33
25.770        20
25.780        40
25.790        27
25.800        27
25.810        33
25.820        53
25.830        53
25.840        40
25.850        47
25.860        53
25.870        73
25.880        13
25.890        47
25.900        13
25.910        27
25.920        40
25.930        33
25.940        47
25.950        47
25.960        27
25.970        20
25.980        27
25.990        13
26.000        67
26.010        40
26.020        47
26.030        67
26.040        20
26.050        53
26.060        67
26.070        47
26.080        47
26.090        40
26.100        40
26.110        47
26.120        40
26.130        33
26.140        40
26.150        33
26.160        27
26.170        60
26.180        40
26.190        20
26.200        47
26.210        27
26.220        33
26.230        47
26.240        40
26.250        27
26.260        20
26.270         7
26.280        33
26.290        60
26.300        27
26.310        27
26.320        33
26.330        40
26.340        60
26.350        20
26.360        40
26.370        27
26.380        47
26.390        40
26.400        73
26.410        40
26.420        27
26.430        33
26.440        67
26.450        47
26.460        20
26.470        53
26.480        73
26.490        33
26.500        20
26.510        27
26.520        33
26.530        20
26.540        33
26.550        40
26.560        33
26.570        80
26.580        33
26.590        47
26.600        27
26.610        40
26.620        47
26.630        47
26.640        40
26.650        27
26.660        67
26.670        47
26.680        40
26.690        53
26.700        40
26.710        33
26.720         7
26.730        40
26.740        27
26.750        67
26.760        47
26.770        33
26.780        27
26.790        27
26.800        40
26.810        33
26.820        40
26.830        40
26.840        53
26.850        47
26.860        40
26.870        67
26.880        20
26.890        27
26.900        60
26.910        47
26.920        40
26.930        47
26.940        53
26.950        20
26.960        13
26.970        53
26.980        40
26.990        40
27.000        20
27.010        60
27.020        27
27.030        33
27.040        53
27.050        20
27.060        27
27.070        67
27.080        40
27.090        27
27.100        20
27.110        13
27.120         7
27.130        27
27.140        33
27.150        13
27.160        20
27.170        33
27.180        33
27.190        47
27.200        20
27.210        13
27.220        47
27.230        27
27.240        93
27.250        33
27.260        20
27.270        20
27.280        20
27.290        33
27.300        40
27.310         0
27.320        33
27.330        27
27.340        20
27.350        40
27.360        47
27.370        27
27.380        27
27.390        27
27.400        13
27.410        47
27.420        53
27.430        27
27.440        27
27.450        60
27.460        47
27.470        20
27.480        80
27.490        73
27.500        27
27.510        47
27.520        40
27.530        33
27.540        47
27.550        27
27.560        27
27.570        60
27.580         7
27.590        20
27.600        67
27.610        33
27.620        33
27.630        67
27.640        67
27.650        53
27.660        40
27.670         7
27.680        27
27.690        40
27.700        33
27.710        47
27.720        33
27.730        33
27.740        40
27.750        47
27.760        53
27.770        40
27.780        40
27.790        60
27.800        33
27.810        60
27.820        27
27.830        47
27.840        40
27.850        47
27.860        40
27.870        40
27.880        33
27.890        27
27.900        20
27.910        40
27.920        40
27.930        13
27.940        33
27.950        33
27.960         7
27.970        20
27.980        40
27.990        33
28.000        13
28.010        27
28.020        33
28.030        47
28.040        53
28.050        67
28.060        27
28.070        20
28.080        60
28.090        40
28.100        53
28.110        33
28.120        33
28.130        33
28.140        47
28.150        47
28.160        27
28.170        13
28.180        20
28.190        27
28.200        27
28.210        53
28.220        20
28.230        60
28.240        20
28.250        47
28.260        27
28.270        20
28.280        27
28.290        13
28.300        87
28.310        27
28.320        47
28.330        20
28.340        13
28.350        40
28.360        13
28.370        27
28.380         7
28.390        47
28.400        53
28.410        13
28.420        60
28.430        33
28.440        20
28.450        33
28.460        40
28.470        53
28.480        47
28.490        33
28.500        27
28.510        33
28.520        47
28.530        73
28.540        27
28.550        20
28.560        33
28.570        27
28.580        27
28.590        27
28.600        47
28.610        13
28.620        20
28.630        40
28.640        13
28.650        20
28.660        33
28.670        33
28.680        27
28.690        20
28.700        27
28.710        47
28.720         7
28.730         0
28.740        47
28.750        40
28.760        33
28.770        40
28.780        27
28.790        27
28.800         7
28.810        53
28.820        33
28.830        20
28.840        33
28.850        27
28.860        40
28.870        53
28.880        60
28.890        47
28.900        13
28.910        27
28.920        33
28.930        53
28.940        27
28.950        27
28.960         7
28.970        33
28.980        33
28.990        20
29.000        40
29.010        33
29.020        27
29.030        27
29.040        40
29.050        40
29.060        40
29.070        53
29.080        13
29.090        20
29.100        53
29.110        13
29.120        47
29.130        73
29.140        33
29.150        33
29.160        27
29.170        53
29.180        13
29.190        13
29.200        27
29.210        13
29.220        27
29.230        27
29.240        33
29.250        20
29.260        13
29.270        67
29.280        33
29.290        20
29.300        47
29.310        53
29.320        33
29.330        60
29.340        33
29.350        40
29.360        20
29.370        27
29.380        33
29.390        27
29.400        33
29.410        20
29.420        33
29.430        60
29.440        53
29.450        20
29.460        47
29.470         7
29.480        13
29.490         7
29.500        33
29.510        20
29.520        20
29.530        40
29.540        27
29.550        33
29.560        20
29.570        13
29.580        47
29.590        20
29.600        40
29.610        60
29.620         7
29.630        33
29.640        13
29.650        27
29.660        27
29.670        60
29.680        20
29.690        13
29.700        40
29.710        40
29.720         7
29.730        27
29.740        27
29.750        33
29.760        27
29.770        27
29.780         7
29.790        27
29.800        13
29.810        13
29.820        13
29.830         7
29.840        40
29.850        60
29.860        20
29.870        27
29.880         7
29.890        13
29.900        53
29.910        27
29.920        33
29.930        27
29.940        33
29.950        27
29.960        27
29.970        40
29.980        40
29.990         7
30.000        53
30.010        53
30.020        33
30.030        47
30.040        33
30.050        40
30.060        53
30.070        20
30.080        20
30.090         7
30.100        20
30.110        47
30.120        53
30.130        20
30.140        13
30.150        20
30.160        40
30.170        13
30.180        13
30.190         7
30.200        27
30.210        67
30.220        20
30.230         7
30.240        60
30.250        33
30.260        47
30.270        27
30.280        33
30.290        40
30.300        20
30.310        40
30.320        53
30.330        33
30.340        40
30.350        27
30.360        27
30.370        27
30.380        33
30.390        40
30.400        20
30.410        13
30.420        53
30.430        13
30.440        47
30.450        33
30.460        60
30.470        20
30.480        60
30.490        13
30.500        27
30.510        40
30.520        27
30.530        40
30.540        20
30.550        40
30.560        33
30.570        20
30.580        40
30.590         7
30.600        20
30.610        60
30.620        40
30.630        47
30.640        20
30.650        67
30.660        13
30.670        40
30.680        20
30.690         0
30.700        13
30.710        53
30.720        47
30.730        20
30.740        27
30.750        27
30.760        33
30.770        53
30.780        27
30.790        73
30.800        53
30.810        40
30.820        33
30.830        33
30.840        13
30.850        40
30.860        40
30.870        33
30.880         0
30.890        27
30.900        67
30.910        33
30.920        20
30.930        27
30.940         7
30.950        40
30.960        40
30.970        27
30.980        47
30.990        47
31.000        13
31.010        47
31.020        33
31.030        53
31.040        27
31.050        13
31.060        27
31.070        40
31.080        20
31.090        20
31.100        27
31.110        27
31.120        20
31.130        47
31.140        33
31.150        20
31.160        60
31.170        13
31.180        13
31.190        33
31.200        40
31.210        27
31.220         7
31.230        13
31.240        33
31.250        53
31.260        33
31.270        20
31.280        20
31.290        20
31.300        60
31.310        20
31.320        47
31.330        20
31.340        53
31.350        40
31.360        47
31.370         7
31.380        27
31.390        40
31.400        33
31.410        13
31.420        13
31.430        13
31.440        40
31.450        27
31.460        73
31.470        53
31.480        33
31.490        20
31.500        33
31.510        33
31.520        40
31.530        67
31.540        47
31.550        27
31.560        27
31.570         7
31.580         7
31.590        47
31.600        40
31.610        27
31.620        20
31.630        60
31.640        33
31.650        33
31.660        47
31.670        20
31.680        53
31.690        40
31.700        20
31.710        33
31.720        33
31.730        13
31.740        53
31.750        60
31.760        27
31.770        53
31.780        53
31.790        13
31.800        27
31.810        13
31.820        33
31.830         7
31.840        47
31.850        53
31.860        33
31.870        27
31.880        47
31.890        47
31.900        27
31.910         7
31.920        27
31.930        47
31.940        20
31.950        27
31.960        33
31.970        20
31.980        47
31.990        20
32.000        33
32.010        53
32.020        20
32.030        67
32.040        40
32.050        80
32.060        60
32.070        27
32.080        20
32.090        47
32.100        33
32.110        47
32.120        93
32.130        53
32.140        80
32.150        73
32.160        60
32.170       133
32.180        67
32.190       107
32.200       100
32.210        80
32.220       107
32.230       107
32.240       147
32.250       153
32.260        93
32.270       213
32.280       187
32.290       127
32.300       107
32.310       180
32.320       140
32.330       227
32.340       173
32.350       280
32.360       227
32.370       233
32.380       233
32.390       340
32.400       273
32.410       253
32.420       313
32.430       267
32.440       280
32.450       240
32.460       320
32.470       273
32.480       260
32.490       273
32.500       173
32.510       233
32.520       253
32.530       207
32.540       267
32.550       147
32.560       180
32.570       167
32.580       153
32.590       133
32.600       113
32.610       113
32.620        87
32.630        87
32.640       113
32.650       133
32.660        93
32.670        80
32.680        60
32.690        67
32.700        67
32.710        60
32.720        87
32.730        40
32.740        80
32.750        67
32.760        53
32.770        73
32.780        80
32.790        53
32.800        60
32.810        60
32.820        40
32.830        47
32.840        40
32.850        53
32.860        47
32.870        40
32.880        47
32.890        33
32.900        13
32.910        53
32.920        13
32.930        47
32.940        53
32.950        40
32.960        20
32.970        40
32.980        53
32.990        47
33.000        33
33.010        47
33.020        40
33.030        40
33.040        53
33.050        27
33.060         7
33.070        40
33.080        40
33.090        27
33.100        20
33.110        33
33.120        20
33.130        13
33.140        13
33.150         7
33.160        33
33.170        33
33.180        40
33.190        33
33.200        13
33.210        13
33.220        33
33.230        27
33.240         7
33.250        20
33.260        40
33.270        47
33.280        67
33.290        53
33.300        60
33.310        33
33.320        33
33.330        27
33.340        20
33.350        47
33.360        47
33.370        27
33.380        33
33.390        27
33.400        47
33.410        27
33.420        47
33.430        27
33.440        40
33.450        33
33.460        40
33.470        27
33.480        27
33.490        33
33.500        20
33.510        33
33.520        40
33.530        33
33.540         7
33.550        33
33.560        53
33.570        27
33.580        20
33.590        40
33.600        27
33.610        33
33.620        33
33.630        27
33.640        40
33.650        27
33.660        20
33.670        20
33.680        27
33.690        47
33.700        40
33.710        27
33.720        27
33.730        13
33.740        40
33.750        20
33.760        13
33.770        20
33.780        60
33.790        47
33.800        40
33.810        40
33.820        27
33.830        20
33.840        20
33.850         7
33.860        40
33.870        13
33.880        20
33.890        27
33.900        40
33.910        47
33.920        13
33.930        13
33.940        33
33.950        27
33.960        33
33.970        13
33.980        53
33.990        40
34.000        27
34.010        27
34.020        27
34.030        13
34.040        40
34.050        33
34.060        40
34.070        40
34.080        20
34.090        53
34.100        60
34.110        33
34.120        20
34.130        60
34.140        20
34.150        47
34.160         7
34.170        13
34.180        20
34.190        13
34.200        33
34.210         7
34.220        53
34.230        40
34.240        47
34.250        20
34.260        27
34.270        27
34.280        13
34.290        27
34.300        13
34.310        40
34.320        20
34.330        13
34.340        27
34.350        27
34.360        60
34.370        13
34.380        27
34.390        33
34.400        20
34.410        20
34.420        33
34.430        40
34.440        20
34.450        20
34.460        20
34.470        33
34.480        40
34.490        20
34.500        27
34.510        13
34.520        40
34.530        13
34.540        13
34.550        47
34.560         7
34.570        33
34.580        60
34.590         7
34.600         7
34.610        40
34.620        60
34.630        20
34.640        40
34.650        20
34.660        33
34.670        27
34.680        27
34.690        20
34.700        40
34.710        53
34.720        40
34.730        47
34.740        20
34.750        33
34.760        47
34.770        20
34.780        47
34.790        40
34.800        40
34.810        13
34.820        33
34.830         7
34.840        47
34.850        27
34.860         7
34.870        60
34.880        27
34.890        13
34.900         7
34.910        13
34.920        20
34.930        20
34.940         7
34.950        60
34.960        33
34.970        53
34.980        33
34.990        20
35.000        33
35.010        93
35.020        27
35.030        53
35.040        33
35.050         7
35.060       107
35.070        67
35.080        40
35.090        60
35.100       107
35.110       113
35.120       127
35.130       127
35.140       153
35.150       140
35.160       187
35.170       233
35.180       180
35.190       133
35.200       220
35.210       193
35.220       133
35.230       133
35.240       100
35.250       133
35.260       100
35.270       180
35.280       107
35.290        73
35.300        67
35.310        80
35.320        27
35.330        33
35.340        20
35.350        33
35.360        67
35.370        33
35.380        33
35.390        40
35.400         7
35.410        60
35.420        20
35.430        33
35.440        20
35.450        13
35.460        20
35.470        27
35.480        27
35.490        27
35.500        20
35.510        27
35.520        13
35.530        13
35.540        27
35.550        47
35.560        33
35.570        33
35.580        20
35.590        33
35.600        33
35.610        13
35.620        33
35.630        33
35.640        27
35.650        20
35.660        27
35.670        13
35.680         7
35.690        13
35.700         7
35.710        47
35.720        13
35.730         0
35.740        20
35.750        27
35.760        40
35.770         0
35.780        40
35.790        33
35.800        27
35.810        40
35.820        40
35.830        20
35.840        33
35.850        27
35.860        27
35.870        20
35.880        73
35.890        13
35.900        33
35.910        40
35.920        33
35.930        20
35.940        40
35.950        27
35.960        20
35.970        27
35.980        20
35.990        27
36.000        20
36.010        20
36.020        27
36.030        20
36.040        13
36.050        33
36.060        27
36.070        20
36.080        27
36.090        40
36.100        27
36.110        33
36.120        27
36.130        13
36.140        40
36.150        33
36.160        33
36.170        20
36.180        33
36.190        40
36.200        67
36.210        27
36.220        27
36.230        40
36.240        27
36.250        33
36.260        27
36.270        20
36.280        27
36.290        33
36.300        20
36.310        53
36.320        33
36.330        33
36.340        33
36.350        20
36.360        13
36.370        13
36.380        33
36.390        13
36.400        40
36.410        40
36.420         7
36.430         7
36.440        33
36.450        27
36.460        20
36.470        33
36.480        27
36.490        20
36.500        13
36.510        13
36.520        40
36.530        20
36.540         7
36.550        20
36.560        33
36.570        27
36.580        13
36.590        27
36.600        33
36.610         7
36.620        47
36.630        33
36.640         7
36.650        20
36.660        27
36.670         7
36.680        20
36.690        47
36.700        33
36.710        33
36.720         7
36.730        33
36.740        33
36.750        13
36.760        33
36.770        27
36.780        27
36.790        27
36.800        40
36.810        27
36.820         7
36.830        27
36.840        40
36.850        13
36.860        27
36.870         0
36.880        27
36.890        20
36.900        27
36.910        13
36.920        20
36.930        53
36.940        20
36.950        40
36.960        40
36.970        33
36.980        20
36.990        13
37.000        60
37.010        40
37.020        27
37.030         7
37.040        20
37.050         7
37.060        27
37.070        20
37.080        20
37.090        20
37.100        40
37.110        13
37.120        40
37.130        67
37.140        40
37.150        40
37.160        20
37.170        20
37.180        20
37.190        53
37.200        27
37.210        67
37.220        27
37.230        33
37.240        13
37.250         7
37.260        60
37.270         7
37.280         7
37.290        27
37.300        13
37.310        13
37.320        20
37.330        20
37.340        13
37.350         7
37.360         7
37.370        27
37.380        27
37.390        40
37.400        33
37.410        13
37.420        20
37.430        27
37.440         7
37.450        13
37.460         7
37.470         7
37.480        27
37.490        13
37.500        40
37.510        27
37.520        27
37.530        27
37.540        47
37.550        27
37.560        40
37.570        13
37.580        33
37.590        27
37.600        20
37.610        27
37.620        13
37.630        27
37.640        47
37.650        33
37.660        20
37.670        27
37.680         7
37.690        60
37.700        40
37.710        33
37.720        13
37.730         7
37.740        33
37.750         7
37.760        20
37.770        47
37.780        80
37.790        47
37.800        20
37.810        53
37.820        67
37.830        47
37.840        47
37.850        47
37.860        60
37.870        33
37.880        27
37.890        53
37.900        47
37.910        40
37.920        27
37.930        47
37.940        40
37.950        47
37.960        40
37.970        27
37.980        47
37.990        20
38.000        20
38.010        40
38.020        27
38.030        47
38.040        33
38.050        20
38.060        40
38.070         0
38.080        33
38.090        20
38.100        33
38.110        53
38.120        40
38.130        13
38.140        27
38.150        40
38.160         7
38.170        40
38.180        40
38.190        27
38.200        27
38.210         7
38.220        13
38.230        27
38.240         0
38.250        13
38.260         7
38.270         7
38.280        13
38.290        20
38.300        40
38.310        33
38.320         0
38.330        20
38.340        27
38.350        27
38.360        27
38.370        33
38.380        20
38.390        13
38.400        13
38.410         0
38.420         7
38.430        13
38.440         7
38.450        20
38.460        40
38.470         7
38.480        47
38.490        27
38.500        27
38.510         7
38.520        20
38.530         0
38.540        47
38.550        20
38.560        13
38.570        13
38.580        13
38.590        27
38.600        47
38.610        27
38.620        53
38.630        27
38.640         7
38.650        33
38.660        33
38.670        20
38.680        27
38.690        33
38.700        40
38.710        20
38.720         0
38.730        27
38.740        40
38.750        33
38.760        47
38.770        40
38.780        27
38.790        60
38.800        13
38.810        40
38.820        27
38.830        13
38.840        27
38.850        33
38.860        20
38.870        20
38.880        13
38.890        20
38.900        33
38.910        13
38.920         0
38.930         7
38.940        20
38.950        27
38.960        13
38.970         0
38.980        20
38.990        33
39.000        27
39.010         7
39.020        27
39.030        20
39.040        33
39.050        33
39.060        27
39.070        40
39.080        13
39.090        27
39.100        33
39.110        40
39.120        20
39.130        33
39.140        33
39.150        27
39.160        13
39.170        27
39.180        27
39.190        13
39.200        47
39.210        33
39.220        27
39.230        20
39.240         0
39.250        33
39.260        27
39.270        20
39.280        33
39.290        20
39.300        27
39.310        27
39.320        27
39.330        20
39.340        20
39.350        13
39.360        33
39.370        20
39.380        20
39.390        27
39.400        20
39.410        20
39.420        13
39.430         7
39.440        27
39.450        40
39.460        20
39.470        20
39.480        40
39.490        13
39.500        27
39.510        40
39.520        13
39.530        33
39.540        13
39.550        33
39.560        27
39.570        20
39.580        40
39.590        40
39.600        40
39.610        47
39.620        27
39.630        27
39.640        33
39.650        33
39.660        47
39.670        53
39.680        40
39.690        20
39.700        33
39.710        73
39.720        60
39.730         7
39.740        20
39.750        27
39.760        40
39.770        53
39.780        60
39.790        53
39.800        27
39.810        20
39.820        27
39.830        60
39.840        87
39.850        73
39.860        47
39.870        53
39.880        87
39.890        47
39.900        67
39.910        53
39.920       113
39.930        80
39.940       120
39.950        87
39.960       113
39.970       107
39.980        80
39.990       140
40.000        60
40.010        87
40.020       107
40.030       107
40.040       120
40.050        93
40.060       113
40.070        93
40.080       167
40.090       107
40.100        93
40.110       107
40.120        87
40.130        40
40.140        87
40.150        93
40.160       100
40.170        73
40.180        47
40.190        40
40.200        33
40.210        67
40.220        67
40.230        27
40.240        73
40.250        60
40.260        27
40.270        80
40.280        33
40.290        67
40.300        67
40.310        27
40.320        33
40.330        33
40.340        33
40.350        20
40.360        33
40.370        47
40.380        20
40.390        13
40.400        40
40.410        40
40.420        13
40.430        13
40.440        33
40.450        20
40.460        13
40.470        33
40.480        27
40.490        27
40.500        13
40.510        47
40.520        13
40.530        40
40.540        20
40.550        20
40.560        47
40.570        13
40.580        27
40.590        53
40.600        20
40.610        13
40.620        20
40.630        27
40.640        27
40.650        20
40.660        13
40.670        20
40.680        13
40.690        27
40.700        33
40.710        13
40.720        40
40.730        20
40.740         7
40.750        47
40.760        13
40.770        13
40.780        53
40.790        13
40.800        27
40.810        27
40.820        33
40.830        27
40.840        13
40.850        27
40.860        33
40.870        27
40.880        20
40.890        13
40.900        27
40.910        33
40.920        53
40.930        27
40.940        40
40.950        27
40.960        33
40.970        47
40.980        27
40.990        20
41.000        47
41.010        20
41.020         7
41.030        40
41.040        27
41.050        27
41.060         0
41.070        40
41.080         7
41.090        33
41.100        13
41.110        47
41.120        27
41.130        27
41.140        20
41.150         7
41.160        13
41.170        27
41.180        47
41.190        27
41.200        27
41.210        33
41.220        40
41.230        33
41.240        33
41.250        27
41.260        13
41.270        27
41.280         7
41.290        40
41.300        33
41.310        20
41.320        27
41.330        27
41.340         0
41.350        27
41.360        13
41.370        47
41.380        47
41.390        67
41.400        40
41.410        20
41.420        20
41.430        47
41.440        53
41.450        27
41.460        53
41.470        13
41.480        27
41.490        67
41.500        13
41.510        80
41.520        73
41.530        67
41.540        40
41.550        67
41.560        53
41.570        40
41.580        47
41.590        73
41.600        40
41.610        73
41.620        60
41.630        67
41.640       113
41.650       107
41.660       167
41.670       140
41.680       147
41.690       207
41.700       213
41.710       247
41.720       240
41.730       220
41.740       207
41.750       127
41.760       173
41.770       140
41.780       100
41.790       127
41.800       193
41.810       133
41.820       107
41.830       147
41.840        87
41.850        73
41.860        87
41.870       100
41.880       100
41.890        47
41.900        27
41.910        67
41.920        53
41.930        13
41.940        33
41.950        33
41.960        33
41.970        20
41.980        40
41.990        20
42.000        20
42.010        33
42.020        20
42.030         7
42.040        20
42.050        33
42.060        47
42.070        27
42.080        60
42.090        47
42.100        20
42.110        47
42.120        47
42.130        27
42.140        33
42.150        40
42.160        40
42.170        40
42.180        27
42.190        40
42.200        27
42.210        27
42.220        20
42.230        13
42.240         7
42.250        33
42.260        33
42.270        33
42.280        27
42.290         7
42.300        27
42.310        20
42.320        73
42.330        47
42.340        27
42.350        60
42.360        33
42.370        20
42.380        33
42.390        47
42.400        20
42.410        27
42.420        40
42.430         7
42.440        33
42.450        40
42.460        33
42.470        40
42.480        13
42.490         0
42.500        20
42.510        27
42.520        40
42.530        13
42.540        33
42.550        27
42.560        27
42.570        53
42.580        13
42.590        27
42.600        47
42.610        40
42.620        53
42.630         0
42.640        20
42.650        33
42.660        27
42.670        27
42.680        27
42.690        20
42.700         7
42.710        33
42.720        47
42.730        47
42.740        40
42.750        27
42.760         7
42.770        13
42.780        40
42.790        27
42.800        53
42.810        20
42.820        27
42.830        20
42.840        20
42.850        20
42.860        40
42.870        20
42.880        40
42.890        20
42.900        20
42.910         0
42.920        27
42.930        20
42.940         0
42.950        13
42.960        13
42.970        20
42.980        73
42.990        27
43.000        60
43.010        47
43.020        33
43.030        33
43.040        47
43.050        27
43.060        40
43.070        20
43.080        20
43.090        20
43.100        33
43.110        33
43.120         7
43.130        60
43.140         7
43.150        33
43.160        33
43.170        40
43.180        33
43.190        20
43.200        47
43.210        27
43.220        40
43.230        47
43.240        33
43.250        20
43.260        40
43.270        40
43.280        47
43.290        67
43.300        67
43.310        60
43.320        47
43.330        47
43.340       107
43.350       107
43.360       107
43.370       127
43.380       147
43.390       147
43.400       240
43.410       200
43.420       193
43.430       193
43.440       240
43.450       193
43.460       153
43.470        93
43.480       113
43.490        93
43.500        60
43.510       113
43.520        40
43.530        80
43.540       160
43.550       160
43.560       127
43.570        40
43.580        67
43.590        33
43.600        47
43.610        47
43.620        27
43.630        67
43.640        13
43.650        67
43.660        47
43.670        27
43.680        20
43.690        40
43.700        20
43.710        33
43.720         7
43.730        33
43.740        47
43.750        27
43.760         0
43.770        27
43.780        13
43.790        33
43.800        27
43.810        40
43.820        53
43.830        20
43.840        13
43.850        47
43.860        47
43.870        40
43.880        27
43.890        47
43.900        13
43.910        27
43.920        53
43.930        27
43.940        40
43.950        33
43.960         7
43.970        40
43.980        20
43.990        27
44.000        27
44.010        13
44.020        47
44.030        13
44.040         7
44.050        13
44.060         7
44.070        13
44.080        27
44.090        20
44.100        20
44.110        27
44.120        33
44.130        47
44.140        33
44.150        60
44.160        20
44.170        40
44.180        33
44.190        20
44.200        27
44.210        20
44.220        27
44.230         7
44.240        53
44.250        20
44.260        40
44.270         0
44.280        13
44.290        33
44.300        33
44.310        47
44.320        33
44.330        20
44.340        40
44.350        13
44.360        13
44.370        13
44.380        33
44.390        13
44.400        60
44.410        47
44.420        13
44.430        47
44.440        33
44.450        27
44.460        27
44.470        47
44.480        20
44.490        53
44.500         7
44.510        47
44.520        20
44.530        20
44.540        47
44.550        47
44.560        60
44.570        13
44.580        20
44.590        40
44.600        53
44.610       100
44.620        20
44.630        53
44.640        13
44.650        40
44.660        60
44.670        33
44.680        53
44.690        40
44.700        27
44.710        13
44.720        40
44.730        67
44.740        53
44.750        27
44.760        60
44.770        40
44.780        67
44.790        73
44.800        60
44.810        33
44.820        20
44.830        60
44.840        53
44.850        53
44.860        47
44.870        73
44.880        67
44.890        47
44.900        67
44.910        53
44.920        53
44.930        60
44.940        33
44.950        93
44.960        27
44.970        53
44.980        33
44.990        33
45.000        67
45.010        73
45.020       113
45.030        73
45.040        53
45.050        47
45.060        93
45.070        47
45.080        67
45.090        73
45.100        67
45.110       100
45.120        73
45.130        20
45.140       100
45.150        67
45.160        67
45.170        27
45.180        33
45.190        33
45.200        93
45.210        73
45.220       100
45.230        60
45.240        53
45.250        87
45.260        47
45.270        67
45.280        53
45.290       107
45.300        47
45.310        67
45.320        80
45.330        80
45.340        40
45.350        87
45.360        27
45.370       107
45.380        80
45.390       100
45.400        67
45.410        73
45.420        87
45.430       133
45.440        80
45.450       100
45.460        53
45.470        87
45.480        80
45.490        73
45.500        80
45.510        93
45.520        73
45.530       120
45.540        73
45.550        67
45.560       147
45.570       153
45.580       100
45.590       100
45.600       160
45.610       100
45.620        93
45.630       107
45.640       113
45.650       127
45.660       140
45.670       127
45.680       173
45.690       113
45.700       213
45.710       213
45.720       120
45.730       193
45.740       153
45.750       187
45.760       193
45.770       147
45.780       167
45.790       193
45.800       187
45.810       233
45.820       167
45.830       267
45.840       180
45.850       227
45.860       260
45.870       253
45.880       280
45.890       213
45.900       287
45.910       393
45.920       213
45.930       373
45.940       320
45.950       320
45.960       360
45.970       407
45.980       446
45.990       466
46.000       367
46.010       440
46.020       446
46.030       466
46.040       573
46.050       526
46.060       613
46.070       600
46.080       753
46.090       793
46.100       826
46.110       740
46.120       746
46.130       913
46.140       993
46.150       960
46.160      1166
46.170      1146
46.180      1346
46.190      1160
46.200      1306
46.210      1506
46.220      1619
46.230      1373
46.240      1586
46.250      1819
46.260      1839
46.270      1959
46.280      1893
46.290      2039
46.300      2279
46.310      2332
46.320      2259
46.330      2412
46.340      2452
46.350      2959
46.360      2732
46.370      2672
46.380      2632
46.390      2999
46.400      2879
46.410      2732
46.420      3005
46.430      2892
46.440      3179
46.450      3152
46.460      3099
46.470      3125
46.480      3032
46.490      3005
46.500      3059
46.510      2772
46.520      2925
46.530      2826
46.540      2659
46.550      2792
46.560      2439
46.570      2519
46.580      2566
46.590      2386
46.600      2432
46.610      2179
46.620      2186
46.630      1926
46.640      2119
46.650      1786
46.660      1879
46.670      1659
46.680      1439
46.690      1433
46.700      1313
46.710      1293
46.720      1186
46.730      1193
46.740      1140
46.750       906
46.760       973
46.770       960
46.780       866
46.790       746
46.800       740
46.810       653
46.820       713
46.830       586
46.840       546
46.850       620
46.860       540
46.870       493
46.880       493
46.890       426
46.900       480
46.910       493
46.920       486
46.930       373
46.940       327
46.950       380
46.960       380
46.970       313
46.980       393
46.990       220
47.000       247
47.010       220
47.020       333
47.030       293
47.040       293
47.050       247
47.060       160
47.070       213
47.080       193
47.090       260
47.100       207
47.110       220
47.120       193
47.130       173
47.140       227
47.150       267
47.160       160
47.170       153
47.180       120
47.190       147
47.200        93
47.210       173
47.220        93
47.230       180
47.240       180
47.250       120
47.260       100
47.270        67
47.280       140
47.290       107
47.300       147
47.310        87
47.320       133
47.330       133
47.340        53
47.350       147
47.360       120
47.370       133
47.380       127
47.390       133
47.400       120
47.410        60
47.420       107
47.430       100
47.440       100
47.450       140
47.460       107
47.470       113
47.480        87
47.490        80
47.500       100
47.510        80
47.520        60
47.530        93
47.540        80
47.550        60
47.560        87
47.570        87
47.580        47
47.590       100
47.600        87
47.610        47
47.620        80
47.630        93
47.640        80
47.650       120
47.660        73
47.670        47
47.680        73
47.690        27
47.700        40
47.710        87
47.720        40
47.730       107
47.740        93
47.750        53
47.760        53
47.770        53
47.780        53
47.790        67
47.800        67
47.810        47
47.820        67
47.830       100
47.840        67
47.850        93
47.860        27
47.870        33
47.880        27
47.890       113
47.900        47
47.910        60
47.920        67
47.930        33
47.940        20
47.950        60
47.960        40
47.970        33
47.980        53
47.990        53
48.000        33
48.010        80
48.020        53
48.030        93
48.040        60
48.050        40
48.060        47
48.070        67
48.080        40
48.090        13
48.100        60
48.110        87
48.120        67
48.130        33
48.140        33
48.150        27
48.160        33
48.170        33
48.180        40
48.190        40
48.200        53
48.210        40
48.220        27
48.230        53
48.240        87
48.250        60
48.260        60
48.270        60
48.280        60
48.290        40
48.300        27
48.310        53
48.320        33
48.330        33
48.340        13
48.350        53
48.360        53
48.370        33
48.380        47
48.390        20
48.400        47
48.410        53
48.420        33
48.430        13
48.440        33
48.450        47
48.460        53
48.470        53
48.480        67
48.490        47
48.500        33
48.510        27
48.520        47
48.530        80
48.540        60
48.550        33
48.560        27
48.570        47
48.580        47
48.590        20
48.600        40
48.610        27
48.620        40
48.630        47
48.640        53
48.650        47
48.660        40
48.670        47
48.680        40
48.690        33
48.700        27
48.710        33
48.720        47
48.730        33
48.740        53
48.750        47
48.760        60
48.770        27
48.780        33
48.790        60
48.800        27
48.810        73
48.820        13
48.830        40
48.840        60
48.850        27
48.860        33
48.870        27
48.880        13
48.890        33
48.900        27
48.910        47
48.920        40
48.930        53
48.940        53
48.950        40
48.960        53
48.970        40
48.980        53
48.990        47
49.000        47
49.010        53
49.020        53
49.030        73
49.040        40
49.050        47
49.060        67
49.070        33
49.080        27
49.090        47
49.100        33
49.110        40
49.120        33
49.130         7
49.140        47
49.150        20
49.160        40
49.170         7
49.180        33
49.190        33
49.200        20
49.210        27
49.220        47
49.230        47
49.240        27
49.250        47
49.260        20
49.270        60
49.280        40
49.290        40
49.300        13
49.310        47
49.320        53
49.330        27
49.340        93
49.350        20
49.360        47
49.370        40
49.380        33
49.390        33
49.400        53
49.410        20
49.420        20
49.430        27
49.440        47
49.450        20
49.460        87
49.470        40
49.480         0
49.490        33
49.500        27
49.510        33
49.520        53
49.530        40
49.540        20
49.550        27
49.560        20
49.570        13
49.580        20
49.590        27
49.600        27
49.610         7
49.620        40
49.630        40
49.640        27
49.650        27
49.660        20
49.670        47
49.680        60
49.690        33
49.700        47
49.710        40
49.720        40
49.730        20
49.740        33
49.750        20
49.760        60
49.770        53
49.780        33
49.790        60
49.800        47
49.810        27
49.820        40
49.830        53
49.840        40
49.850        33
49.860        27
49.870        13
49.880        27
49.890        20
49.900        27
49.910        13
49.920        40
49.930        27
49.940        40
49.950        27
49.960        27
49.970        53
49.980        40
49.990         7
50.000        33
50.010        53
50.020        40
50.030        20
50.040        13
50.050        40
50.060        27
50.070        40
50.080        13
50.090        73
50.100        13
50.110        27
50.120        27
50.130        33
50.140        13
50.150        33
50.160        33
50.170        13
50.180        27
50.190        47
50.200        20
50.210        53
50.220        40
50.230        27
50.240        27
50.250         0
50.260        20
50.270        40
50.280        33
50.290        73
50.300        27
50.310        20
50.320        27
50.330         7
50.340        27
50.350        27
50.360        13
50.370        33
50.380        27
50.390        33
50.400        20
50.410        33
50.420        20
50.430        33
50.440        53
50.450        33
50.460        33
50.470        33
50.480        13
50.490        33
50.500        40
50.510         7
50.520        20
50.530        73
50.540        33
50.550        27
50.560        27
50.570        67
50.580        53
50.590        47
50.600        20
50.610        40
50.620        20
50.630        20
50.640        20
50.650        33
50.660         7
50.670        33
50.680        20
50.690        47
50.700        20
50.710        47
50.720        20
50.730        27
50.740        27
50.750        13
50.760        20
50.770        27
50.780         7
50.790         7
50.800        13
50.810        33
50.820        27
50.830        33
50.840        33
50.850        20
50.860        33
50.870        20
50.880        20
50.890        53
50.900        20
50.910         7
50.920        27
50.930        47
50.940        13
50.950        33
50.960        40
50.970        33
50.980        20
50.990        20
51.000        13
51.010        20
51.020         0
51.030        13
51.040        20
51.050        27
51.060         7
51.070        27
51.080        20
51.090        33
51.100         0
51.110        40
51.120        27
51.130        20
51.140        47
51.150        13
51.160         7
51.170        20
51.180        20
51.190        47
51.200        13
51.210        13
51.220        13
51.230        20
51.240        20
51.250        20
51.260        27
51.270        33
51.280        20
51.290        13
51.300        33
51.310        27
51.320        40
51.330        13
51.340        67
51.350        13
51.360        27
51.370        47
51.380        13
51.390        33
51.400        13
51.410        13
51.420        20
51.430        20
51.440        47
51.450        40
51.460        33
51.470        27
51.480        13
51.490        20
51.500        40
51.510        33
51.520        40
51.530        13
51.540        20
51.550        33
51.560        33
51.570        33
51.580        33
51.590        27
51.600        40
51.610        33
51.620        47
51.630        53
51.640        20
51.650        27
51.660        13
51.670        40
51.680         7
51.690        20
51.700        27
51.710        40
51.720        33
51.730         0
51.740        20
51.750        13
51.760        40
51.770        20
51.780        33
51.790        27
51.800        27
51.810        13
51.820        60
51.830        33
51.840        40
51.850         7
51.860        13
51.870        47
51.880        33
51.890        13
51.900        40
51.910        27
51.920        33
51.930         0
51.940        27
51.950        13
51.960        47
51.970        47
51.980        40
51.990        20
52.000         7
52.010         7
52.020        13
52.030        20
52.040        20
52.050        33
52.060         7
52.070        27
52.080        20
52.090        13
52.100         7
52.110        33
52.120        33
52.130        20
52.140         7
52.150         7
52.160        33
52.170         7
52.180        33
52.190         7
52.200        27
52.210         7
52.220        13
52.230         7
52.240         7
52.250        47
52.260        47
52.270        27
52.280        27
52.290        40
52.300        13
52.310        27
52.320        20
52.330        13
52.340         7
52.350        20
52.360         7
52.370        33
52.380         7
52.390        27
52.400        33
52.410        27
52.420        33
52.430        53
52.440         7
52.450        27
52.460        27
52.470         7
52.480        33
52.490        47
52.500        47
52.510        20
52.520        27
52.530        20
52.540         7
52.550        60
52.560        47
52.570        67
52.580        67
52.590        73
52.600        33
52.610        60
52.620        73
52.630        53
52.640        40
52.650        47
52.660        20
52.670        27
52.680        27
52.690        40
52.700        27
52.710        47
52.720        47
52.730        53
52.740        13
52.750        40
52.760        27
52.770        60
52.780        20
52.790        47
52.800        33
52.810        33
52.820        40
52.830        13
52.840        20
52.850        13
52.860        20
52.870        20
52.880        27
52.890        20
52.900        40
52.910        40
52.920        27
52.930        20
52.940        13
52.950        27
52.960        60
52.970        33
52.980        60
52.990         7
53.000        20
53.010        27
53.020         7
53.030        20
53.040        27
53.050        53
53.060        13
53.070        13
53.080        33
53.090         7
53.100        13
53.110        13
53.120        13
53.130        20
53.140         7
53.150        20
53.160        20
53.170         0
53.180        20
53.190        20
53.200        20
53.210        27
53.220        33
53.230        27
53.240        40
53.250         7
53.260        20
53.270        40
53.280        40
53.290        27
53.300        53
53.310        13
53.320        47
53.330        40
53.340        40
53.350         0
53.360        20
53.370        27
53.380        33
53.390        20
53.400        27
53.410        33
53.420        53
53.430        33
53.440        53
53.450        13
53.460        20
53.470        27
53.480        40
53.490        33
53.500        13
53.510        27
53.520        27
53.530        13
53.540        27
53.550         7
53.560         7
53.570        33
53.580        13
53.590        13
53.600        27
53.610        13
53.620        27
53.630        40
53.640        40
53.650         7
53.660        33
53.670        27
53.680        40
53.690        20
53.700        20
53.710        20
53.720        13
53.730        27
53.740        33
53.750         7
53.760        27
53.770        13
53.780         0
53.790        13
53.800        20
53.810        13
53.820        13
53.830        13
53.840         7
53.850         7
53.860        33
53.870         0
53.880        33
53.890        13
53.900         7
53.910        20
53.920         7
53.930         7
53.940        40
53.950        20
53.960         7
53.970        20
53.980        13
53.990        13
54.000        20
54.010        27
54.020        33
54.030        13
54.040        27
54.050        13
54.060        27
54.070        27
54.080         0
54.090        20
54.100        27
54.110        40
54.120        13
54.130        13
54.140        33
54.150         7
54.160        33
54.170        53
54.180        27
54.190        20
54.200        20
54.210        20
54.220        33
54.230         0
54.240        33
54.250        13
54.260        13
54.270        13
54.280         7
54.290         7
54.300        27
54.310         7
54.320        13
54.330        27
54.340        40
54.350        20
54.360        33
54.370        33
54.380         7
54.390        27
54.400        33
54.410        27
54.420         7
54.430        33
54.440        13
54.450        33
54.460        13
54.470        20
54.480        13
54.490         0
54.500         0
54.510        27
54.520        20
54.530        27
54.540         7
54.550        33
54.560        13
54.570         7
54.580        13
54.590        27
54.600        47
54.610        67
54.620        20
54.630        13
54.640        27
54.650        27
54.660        27
54.670        27
54.680        13
54.690         7
54.700        13
54.710         0
54.720        20
54.730        33
54.740        13
54.750        33
54.760        27
54.770        20
54.780        27
54.790        27
54.800        13
54.810         7
54.820         7
54.830        53
54.840        27
54.850         7
54.860        20
54.870        13
54.880        13
54.890        13
54.900        27
54.910        13
54.920        20
54.930        20
54.940         7
54.950        20
54.960        13
54.970        20
54.980        20
54.990        33
55.000        27
55.010        13
55.020        47
55.030        13
55.040        20
55.050        20
55.060        27
55.070        20
55.080        27
55.090        13
55.100         0
55.110        27
55.120         7
55.130        20
55.140         0
55.150        27
55.160         7
55.170        13
55.180        13
55.190         0
55.200         7
55.210        27
55.220         7
55.230        13
55.240         0
55.250        13
55.260        13
55.270         7
55.280         7
55.290        33
55.300        20
55.310        13
55.320        13
55.330        20
55.340        27
55.350        20
55.360         7
55.370        20
55.380        20
55.390        13
55.400         7
55.410        13
55.420        27
55.430        13
55.440        47
55.450         7
55.460        27
55.470        47
55.480        13
55.490        40
55.500         0
55.510         7
55.520        27
55.530        13
55.540         7
55.550        33
55.560        53
55.570        33
55.580        27
55.590         7
55.600         7
55.610        33
55.620        40
55.630         7
55.640        13
55.650        13
55.660        13
55.670        20
55.680         7
55.690        33
55.700        40
55.710        20
55.720        47
55.730        27
55.740        20
55.750        33
55.760        13
55.770        20
55.780         7
55.790        13
55.800         7
55.810        20
55.820        33
55.830        47
55.840        13
55.850        20
55.860        20
55.870        20
55.880        47
55.890        20
55.900        20
55.910        60
55.920        27
55.930        40
55.940        13
55.950        13
55.960         7
55.970        20
55.980        13
55.990        13
56.000        20
56.010        13
56.020        40
56.030        27
56.040        27
56.050        27
56.060        20
56.070        13
56.080        60
56.090        13
56.100        20
56.110        13
56.120        40
56.130        40
56.140         0
56.150        20
56.160        27
56.170        27
56.180        20
56.190        27
56.200        13
56.210        13
56.220        47
56.230         7
56.240         0
56.250         7
56.260        13
56.270        13
56.280        13
56.290         7
56.300        27
56.310         7
56.320        27
56.330         7
56.340        27
56.350        20
56.360         7
56.370        33
56.380        47
56.390        33
56.400        40
56.410         7
56.420        13
56.430        20
56.440        27
56.450        20
56.460        13
56.470        13
56.480         0
56.490         7
56.500         7
56.510        27
56.520         7
56.530        27
56.540        33
56.550         7
56.560        20
56.570        20
56.580        40
56.590        20
56.600        27
56.610        13
56.620        20
56.630         7
56.640         7
56.650        27
56.660        13
56.670         0
56.680        13
56.690        27
56.700        20
56.710         0
56.720        27
56.730        13
56.740         7
56.750        13
56.760        13
56.770         7
56.780         7
56.790        27
56.800        20
56.810        20
56.820        20
56.830        20
56.840        20
56.850         7
56.860         7
56.870        27
56.880        13
56.890        20
56.900        27
56.910        20
56.920        33
56.930        20
56.940         0
56.950        33
56.960        20
56.970        20
56.980        13
56.990         7
57.000         7
57.010        20
57.020        20
57.030         0
57.040        13
57.050        40
57.060        27
57.070        20
57.080         0
57.090        20
57.100        13
57.110        20
57.120        27
57.130        13
57.140        13
57.150        20
57.160         7
57.170        20
57.180         7
57.190        33
57.200        33
57.210        20
57.220        47
57.230        27
57.240        20
57.250        27
57.260        20
57.270        40
57.280        27
57.290        13
57.300        13
57.310        27
57.320        20
57.330        13
57.340        20
57.350        27
57.360        20
57.370        13
57.380        20
57.390        33
57.400        27
57.410        40
57.420        27
57.430         7
57.440        33
57.450        33
57.460        20
57.470        47
57.480        27
57.490        13
57.500        53
57.510        87
57.520       127
57.530       147
57.540       167
57.550       233
57.560       227
57.570       247
57.580       207
57.590       180
57.600       167
57.610        80
57.620       100
57.630        93
57.640        53
57.650        60
57.660        53
57.670        67
57.680        67
57.690       133
57.700       113
57.710       133
57.720       180
57.730       107
57.740       153
57.750       113
57.760       120
57.770        93
57.780        73
57.790        60
57.800        93
57.810        27
57.820        33
57.830        87
57.840        60
57.850        33
57.860        67
57.870        27
57.880        47
57.890        60
57.900        20
57.910        33
57.920        53
57.930        27
57.940        47
57.950        60
57.960        60
57.970        53
57.980        60
57.990        40
58.000        27
58.010        53
58.020        40
58.030        47
58.040        47
58.050        47
58.060        53
58.070        27
58.080        40
58.090        33
58.100        33
58.110        53
58.120        47
58.130        27
58.140        13
58.150        33
58.160        27
58.170        20
58.180        20
58.190        20
58.200        27
58.210        40
58.220         7
58.230        20
58.240        27
58.250        20
58.260        47
58.270        13
58.280        20
58.290        40
58.300         0
58.310        27
58.320        20
58.330        13
58.340        53
58.350        13
58.360         7
58.370        20
58.380        20
58.390        13
58.400        13
58.410        27
58.420         7
58.430        27
58.440         7
58.450         7
58.460        33
58.470        20
58.480        20
58.490        27
58.500        13
58.510         7
58.520        27
58.530        20
58.540        27
58.550        33
58.560        20
58.570        13
58.580        13
58.590         0
58.600        27
58.610         7
58.620        13
58.630         7
58.640        13
58.650         7
58.660        33
58.670        13
58.680        13
58.690        13
58.700        20
58.710        40
58.720         7
58.730        33
58.740        20
58.750        20
58.760        13
58.770        20
58.780         7
58.790        13
58.800         0
58.810        40
58.820        47
58.830        20
58.840        13
58.850         7
58.860        27
58.870        27
58.880        27
58.890         7
58.900        20
58.910        13
58.920        20
58.930        33
58.940        27
58.950         7
58.960        13
58.970        33
58.980        40
58.990         7
59.000        13
59.010        40
59.020        27
59.030        13
59.040         7
59.050         7
59.060         0
59.070        13
59.080        20
59.090        13
59.100        33
59.110        20
59.120        13
59.130        33
59.140        20
59.150        13
59.160        27
59.170        20
59.180        27
59.190        20
59.200        27
59.210        20
59.220        13
59.230         7
59.240        20
59.250        20
59.260        33
59.270        13
59.280        20
59.290        27
59.300        27
59.310        20
59.320        33
59.330        27
59.340        20
59.350        27
59.360        13
59.370        13
59.380        20
59.390         7
59.400         0
59.410        13
59.420         7
59.430        20
59.440        13
59.450        20
59.460        27
59.470         7
59.480        27
59.490         7
59.500         7
59.510        13
59.520        27
59.530        27
59.540         7
59.550        27
59.560        27
59.570         7
59.580        13
59.590         7
59.600        27
59.610         7
59.620         7
59.630        13
59.640        13
59.650        13
59.660         7
59.670         7
59.680        20
59.690        20
59.700        33
59.710        13
59.720         7
59.730        20
59.740        20
59.750        33
59.760         7
59.770        13
59.780         0
59.790        13
59.800         7
59.810         7
59.820        13
59.830         0
59.840        33
59.850        13
59.860        13
59.870        13
59.880         7
59.890        20
59.900        13
59.910        13
59.920        13
59.930        13
59.940         7
59.950        13
59.960        33
59.970        13
59.980        20
59.990        53
60.000        13
