20.000        60
20.010        13
20.020        40
20.030        27
20.040        27
20.050        53
20.060        47
20.070        67
20.080        40
20.090        27
20.100        60
20.110        33
20.120        53
20.130        73
20.140        87
20.150        67
20.160        47
20.170        47
20.180        40
20.190        47
20.200        67
20.210        27
20.220        20
20.230        20
20.240        13
20.250        53
20.260        33
20.270        27
20.280        33
20.290        47
20.300        47
20.310        53
20.320        27
20.330        40
20.340        20
20.350        33
20.360        53
20.370        60
20.380        20
20.390        47
20.400        40
20.410        33
20.420        33
20.430        53
20.440        40
20.450        27
20.460        20
20.470        20
20.480        40
20.490        80
20.500        40
20.510        53
20.520        33
20.530        33
20.540        27
20.550        33
20.560        27
20.570        53
20.580        40
20.590        40
20.600        67
20.610        53
20.620        40
20.630        67
20.640        33
20.650        20
20.660        13
20.670        67
20.680        67
20.690        20
20.700        27
20.710        13
20.720        20
20.730        47
20.740        40
20.750        40
20.760        60
20.770         7
20.780        60
20.790        33
20.800        33
20.810        20
20.820        47
20.830        27
20.840        33
20.850        33
20.860        27
20.870        60
20.880        13
20.890        47
20.900        33
20.910        47
20.920        40
20.930        40
20.940        53
20.950        33
20.960        33
20.970        27
20.980        60
20.990        40
21.000        80
21.010        27
21.020         7
21.030        33
21.040        47
21.050        40
21.060        47
21.070        47
21.080        47
21.090        40
21.100        27
21.110        27
21.120        73
21.130        33
21.140        27
21.150        47
21.160        67
21.170        67
21.180        67
21.190        40
21.200        47
21.210        60
21.220        13
21.230        40
21.240        40
21.250        53
21.260        53
21.270        67
21.280        40
21.290        20
21.300        47
21.310        40
21.320        20
21.330        40
21.340        40
21.350        20
21.360        40
21.370        33
21.380        27
21.390        33
21.400        27
21.410        47
21.420        13
21.430        67
21.440        47
21.450        47
21.460        27
21.470        33
21.480        33
21.490        27
21.500        33
21.510        60
21.520        47
21.530        27
21.540        40
21.550        33
21.560        33
21.570        67
21.580        27
21.590        60
21.600        53
21.610        33
21.620        33
21.630        27
21.640        27
21.650        53
21.660        20
21.670        33
21.680        33
21.690        40
21.700        13
21.710        33
21.720        20
21.730        53
21.740        40
21.750        27
21.760        53
21.770        40
21.780        33
21.790        27
21.800        47
21.810        40
21.820        60
21.830        20
21.840        40
21.850        27
21.860        33
21.870        60
21.880        33
21.890        53
21.900        40
21.910        33
21.920        40
21.930        13
21.940        60
21.950        40
21.960        47
21.970        40
21.980        40
21.990        47
22.000        80
22.010        33
22.020        20
22.030        60
22.040        27
22.050        73
22.060        27
22.070         7
22.080        53
22.090        33
22.100        40
22.110        80
22.120        27
22.130        33
22.140        20
22.150        13
22.160        47
22.170        53
22.180        40
22.190        33
22.200        47
22.210         7
22.220        40
22.230        33
22.240        60
22.250        20
22.260        40
22.270        40
22.280        47
22.290        27
22.300        33
22.310        20
22.320        60
22.330        27
22.340        20
22.350        60
22.360        33
22.370        47
22.380        27
22.390        47
22.400        53
22.410        47
22.420        27
22.430        53
22.440        40
22.450        33
22.460         7
22.470        20
22.480        47
22.490        40
22.500        47
22.510        60
22.520        53
22.530        60
22.540        33
22.550        47
22.560        80
22.570        93
22.580        80
22.590        60
22.600        73
22.610        53
22.620       100
22.630        53
22.640       107
22.650        47
22.660        47
22.670       100
22.680        73
22.690       100
22.700       147
22.710       147
22.720       107
22.730       220
22.740       193
22.750       227
22.760       180
22.770       293
22.780       267
22.790       327
22.800       267
22.810       347
22.820       340
22.830       433
22.840       400
22.850       280
22.860       293
22.870       247
22.880       227
22.890       253
22.900       273
22.910       207
22.920       153
22.930       153
22.940       107
22.950        73
22.960       153
22.970        53
22.980        73
22.990       120
23.000        60
23.010        67
23.020        33
23.030        80
23.040        20
23.050        80
23.060        60
23.070        53
23.080        27
23.090        53
23.100        67
23.110        40
23.120        60
23.130        47
23.140        40
23.150        40
23.160        53
23.170        53
23.180        53
23.190        47
23.200       100
23.210        20
23.220        27
23.230        47
23.240        53
23.250        67
23.260        27
23.270        60
23.280        27
23.290        47
23.300        73
23.310        47
23.320        13
23.330        67
23.340        13
23.350        33
23.360        33
23.370        73
23.380        20
23.390        47
23.400         7
23.410        27
23.420        60
23.430        27
23.440        60
23.450        33
23.460        47
23.470        27
23.480        67
23.490        40
23.500        40
23.510        40
23.520        20
23.530        53
23.540        33
23.550        67
23.560        40
23.570        60
23.580        33
23.590        47
23.600        40
23.610        33
23.620         7
23.630        33
23.640        13
23.650        40
23.660        53
23.670        47
23.680        47
23.690        13
23.700        20
23.710        60
23.720        47
23.730        47
23.740        33
23.750        27
23.760        20
23.770        27
23.780        13
23.790        40
23.800        47
23.810        40
23.820        47
23.830        27
23.840        40
23.850        27
23.860        40
23.870        20
23.880        60
23.890        20
23.900        47
23.910        33
23.920        60
23.930        73
23.940        40
23.950        33
23.960        47
23.970        33
23.980        27
23.990         7
24.000        27
24.010        40
24.020        33
24.030        40
24.040        27
24.050        27
24.060        40
24.070        20
24.080        40
24.090        40
24.100        40
24.110        33
24.120        27
24.130        47
24.140        20
24.150        27
24.160        20
24.170        47
24.180        47
24.190        47
24.200        47
24.210        20
24.220         7
24.230        33
24.240        53
24.250        27
24.260        53
24.270        40
24.280        40
24.290        20
24.300        20
24.310        33
24.320        40
24.330        60
24.340        33
24.350        47
24.360        40
24.370        13
24.380        27
24.390        33
24.400        20
24.410        20
24.420        13
24.430        33
24.440        33
24.450        20
24.460        20
24.470        27
24.480        60
24.490        20
24.500        67
24.510        40
24.520        40
24.530        33
24.540         7
24.550        20
24.560        27
24.570        27
24.580        20
24.590        13
24.600        27
24.610        13
24.620        27
24.630        27
24.640        47
24.650        33
24.660        33
24.670        33
24.680        27
24.690        27
24.700        40
24.710        20
24.720        33
24.730        40
24.740        27
24.750        47
24.760        40
24.770        40
24.780        33
24.790        47
24.800        47
24.810        27
24.820        27
24.830        60
24.840        20
24.850        33
24.860        27
24.870        53
24.880        20
24.890        27
24.900        60
24.910        47
24.920        47
24.930        27
24.940        47
24.950        27
24.960        20
24.970        27
24.980        33
24.990        33
25.000        13
25.010        33
25.020        53
25.030        13
25.040         0
25.050        40
25.060        33
25.070        33
25.080        40
25.090        40
25.100        27
25.110        27
25.120        60
25.130        20
25.140        33
25.150        53
25.160        33
25.170        20
25.180        27
25.190        40
25.200        27
25.210        27
25.220        13
25.230        27
25.240        33
25.250        20
25.260        33
25.270        13
25.280        20
25.290        47
25.300        33
25.310        40
25.320        33
25.330        27
25.340        40
25.350        53
25.360        13
25.370        47
25.380        40
25.390        40
25.400        27
25.410        47
25.420        27
25.430        40
25.440         7
25.450        53
25.460        47
25.470        20
25.480        27
25.490        27
25.500        33
25.510        40
25.520        40
25.530        40
25.540        47
25.550        13
25.560        40
25.570        27
25.580        33
25.590        53
25.600        27
25.610        33
25.620        47
25.630        20
25.640        33
25.650        33
25.660        33
25.670        47
25.680        27
25.690        40
25.700        20
25.710        20
25.720        20
25.730        47
25.740        20
25.750        27
25.760        33
25.770        47
25.780        40
25.790        40
25.800        33
25.810        93
25.820        27
25.830        13
25.840        13
25.850        13
25.860        33
25.870        47
25.880        40
25.890        47
25.900        27
25.910        33
25.920        33
25.930        33
25.940        33
25.950        47
25.960        20
25.970        20
25.980        27
25.990        40
26.000        27
26.010        20
26.020        40
26.030        40
26.040        27
26.050        33
26.060        47
26.070        13
26.080        47
26.090        27
26.100        33
26.110        27
26.120        67
26.130        33
26.140        33
26.150        40
26.160        47
26.170        47
26.180        53
26.190        33
26.200        47
26.210        40
26.220         7
26.230        13
26.240        40
26.250        60
26.260        27
26.270        47
26.280        27
26.290        53
26.300        20
26.310        33
26.320        13
26.330        27
26.340        27
26.350        27
26.360        13
26.370        13
26.380        27
26.390        13
26.400        13
26.410        20
26.420         7
26.430        20
26.440        53
26.450        13
26.460        40
26.470        13
26.480        27
26.490        13
26.500        47
26.510        33
26.520        47
26.530        53
26.540        27
26.550        33
26.560        33
26.570        40
26.580        20
26.590        27
26.600         7
26.610        27
26.620        40
26.630        27
26.640        13
26.650        13
26.660         0
26.670        53
26.680        40
26.690        27
26.700         7
26.710        33
26.720        33
26.730        27
26.740        47
26.750        47
26.760        20
26.770        27
26.780        40
26.790        47
26.800        27
26.810        20
26.820        27
26.830        33
26.840        20
26.850        33
26.860        20
26.870         7
26.880        20
26.890        53
26.900        20
26.910        20
26.920        33
26.930        47
26.940        13
26.950        33
26.960        27
26.970        40
26.980        33
26.990        53
27.000        13
27.010        20
27.020        27
27.030        20
27.040        33
27.050        53
27.060        20
27.070        40
27.080        33
27.090         7
27.100        33
27.110        33
27.120        33
27.130        33
27.140        27
27.150        60
27.160        40
27.170        47
27.180         7
27.190        20
27.200        20
27.210        20
27.220         7
27.230        33
27.240        47
27.250        20
27.260        20
27.270        47
27.280        47
27.290        20
27.300        33
27.310        13
27.320        13
27.330        27
27.340        20
27.350        27
27.360         7
27.370        20
27.380         7
27.390        33
27.400        20
27.410        27
27.420         7
27.430        20
27.440        13
27.450        27
27.460        40
27.470         7
27.480        27
27.490        13
27.500        33
27.510        20
27.520        20
27.530        33
27.540        27
27.550        20
27.560        33
27.570        20
27.580        53
27.590        60
27.600         7
27.610        20
27.620        73
27.630        13
27.640         7
27.650        33
27.660        27
27.670        40
27.680        27
27.690         7
27.700        13
27.710        20
27.720        13
27.730        40
27.740        33
27.750        20
27.760        40
27.770        20
27.780        20
27.790        27
27.800        33
27.810        27
27.820        47
27.830        67
27.840        27
27.850        53
27.860        33
27.870         7
27.880        40
27.890        20
27.900        40
27.910        13
27.920        33
27.930        27
27.940        20
27.950        40
27.960        40
27.970        20
27.980        27
27.990        20
28.000        40
28.010        13
28.020        13
28.030         7
28.040        47
28.050        13
28.060        47
28.070         7
28.080        13
28.090        13
28.100        33
28.110        27
28.120        27
28.130        27
28.140        20
28.150        33
28.160        53
28.170        13
28.180        20
28.190        27
28.200        27
28.210        33
28.220        40
28.230        20
28.240        20
28.250        13
28.260        20
28.270        20
28.280        47
28.290        27
28.300        13
28.310        40
28.320        47
28.330        33
28.340         7
28.350        20
28.360        13
28.370        20
28.380        27
28.390        27
28.400        13
28.410         7
28.420        53
28.430        13
28.440        20
28.450        13
28.460         0
28.470        40
28.480        20
28.490         7
28.500        13
28.510        20
28.520        33
28.530        33
28.540        20
28.550        47
28.560        27
28.570        27
28.580        33
28.590        20
28.600        33
28.610        13
28.620        33
28.630        13
28.640        33
28.650        20
28.660        33
28.670        40
28.680        20
28.690        20
28.700        27
28.710        47
28.720        40
28.730        27
28.740         7
28.750        20
28.760        20
28.770        13
28.780        33
28.790        13
28.800        27
28.810        40
28.820         7
28.830        40
28.840        20
28.850        40
28.860        33
28.870         7
28.880        33
28.890        20
28.900        13
28.910        53
28.920        33
28.930        33
28.940         7
28.950        27
28.960        33
28.970        53
28.980        20
28.990        27
29.000        20
29.010        20
29.020        33
29.030        33
29.040        27
29.050        33
29.060         7
29.070        20
29.080        53
29.090        20
29.100         7
29.110        40
29.120         7
29.130        33
29.140        33
29.150        40
29.160        33
29.170        47
29.180        27
29.190        20
29.200        40
29.210        33
29.220        40
29.230        67
29.240        47
29.250        40
29.260        27
29.270        33
29.280         7
29.290        13
29.300        20
29.310        33
29.320        40
29.330        20
29.340        13
29.350        60
29.360        67
29.370        33
29.380        33
29.390        47
29.400        20
29.410        40
29.420        47
29.430        27
29.440        53
29.450        20
29.460        53
29.470         0
29.480        27
29.490        40
29.500        27
29.510         7
29.520        20
29.530        27
29.540        27
29.550        33
29.560        20
29.570        60
29.580        13
29.590        20
29.600        47
29.610        20
29.620        33
29.630        40
29.640        27
29.650        20
29.660        13
29.670        20
29.680        20
29.690        20
29.700        33
29.710        20
29.720         7
29.730        40
29.740        13
29.750        20
29.760        27
29.770        13
29.780        13
29.790        20
29.800         7
29.810        27
29.820        47
29.830        40
29.840        33
29.850         7
29.860        40
29.870        47
29.880        13
29.890        27
29.900        20
29.910        33
29.920        33
29.930        20
29.940        20
29.950        47
29.960        20
29.970        33
29.980        13
29.990        27
30.000        20
30.010        33
30.020        20
30.030        13
30.040        20
30.050        33
30.060        40
30.070        20
30.080        40
30.090        53
30.100         7
30.110        40
30.120         7
30.130        13
30.140        27
30.150        27
30.160        47
30.170         7
30.180        13
30.190        13
30.200        13
30.210         7
30.220        33
30.230        27
30.240         7
30.250        33
30.260        33
30.270        20
30.280        33
30.290        20
30.300         7
30.310         0
30.320        27
30.330        13
30.340        33
30.350        33
30.360        20
30.370        13
30.380        27
30.390        27
30.400         7
30.410        33
30.420        13
30.430        33
30.440        33
30.450        33
30.460        33
30.470         0
30.480        13
30.490        40
30.500        13
30.510        13
30.520        47
30.530         7
30.540        40
30.550        20
30.560        20
30.570        40
30.580        33
30.590        40
30.600        13
30.610        27
30.620        33
30.630        13
30.640        40
30.650        13
30.660        13
30.670        40
30.680        20
30.690        20
30.700        27
30.710        13
30.720        33
30.730        20
30.740        20
30.750        60
30.760        27
30.770        33
30.780         7
30.790        27
30.800        20
30.810        27
30.820        20
30.830        33
30.840        27
30.850        27
30.860        33
30.870        20
30.880         0
30.890        20
30.900        20
30.910        27
30.920        20
30.930        20
30.940        33
30.950        20
30.960        13
30.970        40
30.980        27
30.990        53
31.000        33
31.010        20
31.020        20
31.030        27
31.040        40
31.050        13
31.060        13
31.070        27
31.080        27
31.090        20
31.100        13
31.110        33
31.120        13
31.130        13
31.140         7
31.150        20
31.160        20
31.170         7
31.180        13
31.190        33
31.200         7
31.210        53
31.220         7
31.230        27
31.240        40
31.250        33
31.260         7
31.270        13
31.280        13
31.290         7
31.300        13
31.310         7
31.320         7
31.330         7
31.340        33
31.350        47
31.360        33
31.370        13
31.380        33
31.390        47
31.400        20
31.410        27
31.420        33
31.430        33
31.440        20
31.450        27
31.460         7
31.470        40
31.480        33
31.490        27
31.500        20
31.510        20
31.520        33
31.530        33
31.540        20
31.550        27
31.560        60
31.570        53
31.580        13
31.590        27
31.600        13
31.610        20
31.620        20
31.630        40
31.640         7
31.650        40
31.660        27
31.670        40
31.680        27
31.690        27
31.700        33
31.710        33
31.720        20
31.730        27
31.740        33
31.750         7
31.760        27
31.770        60
31.780        20
31.790        20
31.800         7
31.810        40
31.820        13
31.830        33
31.840        13
31.850        27
31.860        20
31.870        27
31.880        27
31.890        13
31.900        60
31.910         0
31.920        33
31.930        27
31.940        33
31.950        53
31.960        20
31.970        13
31.980        33
31.990        47
32.000        40
32.010        80
32.020        40
32.030        27
32.040        33
32.050        33
32.060        27
32.070        33
32.080        67
32.090        53
32.100        27
32.110        47
32.120        33
32.130        20
32.140        80
32.150        67
32.160        33
32.170        67
32.180        47
32.190        53
32.200        33
32.210        60
32.220        53
32.230        80
32.240        87
32.250        73
32.260        60
32.270       107
32.280       100
32.290       167
32.300       127
32.310       153
32.320       320
32.330       207
32.340       300
32.350       380
32.360       300
32.370       340
32.380       393
32.390       440
32.400       500
32.410       646
32.420       626
32.430       673
32.440       626
32.450       993
32.460       900
32.470       973
32.480      1140
32.490      1080
32.500      1193
32.510      1106
32.520      1066
32.530      1000
32.540       900
32.550       906
32.560       820
32.570       693
32.580       626
32.590       533
32.600       360
32.610       533
32.620       433
32.630       320
32.640       240
32.650       280
32.660       140
32.670       187
32.680       133
32.690        87
32.700       100
32.710       120
32.720        80
32.730        47
32.740        73
32.750        80
32.760        60
32.770        20
32.780        33
32.790        47
32.800        60
32.810        33
32.820        60
32.830        60
32.840        27
32.850        47
32.860        13
32.870        27
32.880        27
32.890        33
32.900        27
32.910        33
32.920        40
32.930        20
32.940        33
32.950        47
32.960        53
32.970        20
32.980        27
32.990         7
33.000        60
33.010        40
33.020        40
33.030        33
33.040        20
33.050        40
33.060        27
33.070        27
33.080        33
33.090        40
33.100        40
33.110        20
33.120        20
33.130        33
33.140        27
33.150        47
33.160        33
33.170        33
33.180        27
33.190        33
33.200        33
33.210        13
33.220         0
33.230         7
33.240        33
33.250        20
33.260        13
33.270        27
33.280        40
33.290        27
33.300        47
33.310         7
33.320        13
33.330        27
33.340        33
33.350        27
33.360        40
33.370        27
33.380        13
33.390        20
33.400        20
33.410        20
33.420        13
33.430        27
33.440        47
33.450        20
33.460        20
33.470        27
33.480        27
33.490        20
33.500        47
33.510        33
33.520        20
33.530        20
33.540         7
33.550        27
33.560        27
33.570        27
33.580        27
33.590        20
33.600        20
33.610        20
33.620        13
33.630         7
33.640        13
33.650        27
33.660        27
33.670        20
33.680        27
33.690        40
33.700        40
33.710        20
33.720        20
33.730        13
33.740        13
33.750        27
33.760        47
33.770        13
33.780        20
33.790        53
33.800         7
33.810        13
33.820        13
33.830        20
33.840        33
33.850        27
33.860        27
33.870        33
33.880        13
33.890        13
33.900         7
33.910        13
33.920        13
33.930        20
33.940         7
33.950        20
33.960         7
33.970        20
33.980        27
33.990        13
34.000        33
34.010        20
34.020        27
34.030        20
34.040        13
34.050         0
34.060        33
34.070         7
34.080         7
34.090         7
34.100         0
34.110        33
34.120        40
34.130        20
34.140        20
34.150        20
34.160         0
34.170        13
34.180        20
34.190        20
34.200        13
34.210        47
34.220        13
34.230        13
34.240        13
34.250        20
34.260        47
34.270        20
34.280        33
34.290        33
34.300        33
34.310        20
34.320        20
34.330        40
34.340        33
34.350        33
34.360        27
34.370        33
34.380        27
34.390        13
34.400        27
34.410        20
34.420        13
34.430        13
34.440        27
34.450        13
34.460         7
34.470        27
34.480        20
34.490        20
34.500        13
34.510         7
34.520        20
34.530        13
34.540         0
34.550        20
34.560        13
34.570        40
34.580         0
34.590        13
34.600        13
34.610        13
34.620        27
34.630         0
34.640        40
34.650        13
34.660        40
34.670        33
34.680        20
34.690        40
34.700        13
34.710        33
34.720        13
34.730        40
34.740        27
34.750        13
34.760        47
34.770        13
34.780        13
34.790        47
34.800        27
34.810        20
34.820        33
34.830        20
34.840         7
34.850        20
34.860        13
34.870        20
34.880         0
34.890        33
34.900        20
34.910        13
34.920        20
34.930        13
34.940        40
34.950         7
34.960        20
34.970        13
34.980        40
34.990        33
35.000        13
35.010        27
35.020         0
35.030         0
35.040        13
35.050        33
35.060        20
35.070        13
35.080        27
35.090        13
35.100        27
35.110        27
35.120        27
35.130        27
35.140        13
35.150        33
35.160        20
35.170        20
35.180        27
35.190        47
35.200        13
35.210        27
35.220        40
35.230        20
35.240        27
35.250        33
35.260        33
35.270        33
35.280        27
35.290        20
35.300        33
35.310        27
35.320        40
35.330        20
35.340        20
35.350        27
35.360        20
35.370        20
35.380        33
35.390        20
35.400        60
35.410        20
35.420        20
35.430        20
35.440        27
35.450        40
35.460        33
35.470        20
35.480        27
35.490        13
35.500        40
35.510         7
35.520        47
35.530        33
35.540        40
35.550        20
35.560        33
35.570        33
35.580         7
35.590        33
35.600         7
35.610        20
35.620        27
35.630        20
35.640        13
35.650        47
35.660         0
35.670        20
35.680        33
35.690         0
35.700        20
35.710         7
35.720        20
35.730         7
35.740        33
35.750        27
35.760        13
35.770         7
35.780        27
35.790        40
35.800        20
35.810        27
35.820        33
35.830        27
35.840        27
35.850        13
35.860        40
35.870         7
35.880        27
35.890         0
35.900        13
35.910        27
35.920        20
35.930         7
35.940         7
35.950        20
35.960         7
35.970        20
35.980        20
35.990         7
36.000        13
36.010        33
36.020        40
36.030        27
36.040        33
36.050        27
36.060        20
36.070        20
36.080        40
36.090        33
36.100        20
36.110        27
36.120        27
36.130         0
36.140        20
36.150         7
36.160        33
36.170        13
36.180        20
36.190        20
36.200        40
36.210        13
36.220         7
36.230        13
36.240        13
36.250        20
36.260         7
36.270        47
36.280         0
36.290        13
36.300        20
36.310        20
36.320        13
36.330        13
36.340        13
36.350         7
36.360        33
36.370        13
36.380        20
36.390        13
36.400        13
36.410        20
36.420        13
36.430        33
36.440        33
36.450        13
36.460        20
36.470        20
36.480        27
36.490        20
36.500         0
36.510        80
36.520         0
36.530        13
36.540        13
36.550         0
36.560         7
36.570        20
36.580        33
36.590        27
36.600         7
36.610        53
36.620         7
36.630         0
36.640        27
36.650        13
36.660        27
36.670        27
36.680        33
36.690        20
36.700        47
36.710         7
36.720        27
36.730        40
36.740        20
36.750        20
36.760        27
36.770        33
36.780        40
36.790        27
36.800        27
36.810        27
36.820         7
36.830        13
36.840        33
36.850        27
36.860        47
36.870        20
36.880         7
36.890        20
36.900        27
36.910        47
36.920        27
36.930        27
36.940        33
36.950         7
36.960        40
36.970        13
36.980        40
36.990         7
37.000        27
37.010         7
37.020        27
37.030         7
37.040        13
37.050        20
37.060        27
37.070        47
37.080        20
37.090        33
37.100        20
37.110        20
37.120        27
37.130        13
37.140        27
37.150        27
37.160        13
37.170        33
37.180        20
37.190        13
37.200        13
37.210        13
37.220        27
37.230        13
37.240        27
37.250        13
37.260        20
37.270        13
37.280        13
37.290        20
37.300        27
37.310        40
37.320        33
37.330        13
37.340         7
37.350        13
37.360        13
37.370        27
37.380        27
37.390        13
37.400        27
37.410         0
37.420        20
37.430        13
37.440        33
37.450        20
37.460        33
37.470        27
37.480        20
37.490        13
37.500         0
37.510         7
37.520        47
37.530         0
37.540         0
37.550         0
37.560         7
37.570        20
37.580        13
37.590        40
37.600        13
37.610        20
37.620        27
37.630        33
37.640        27
37.650        20
37.660         7
37.670        40
37.680        27
37.690         7
37.700        27
37.710        40
37.720         7
37.730        27
37.740        40
37.750        20
37.760        27
37.770        20
37.780         0
37.790        13
37.800        13
37.810        13
37.820        27
37.830        20
37.840         7
37.850        27
37.860        33
37.870        27
37.880        27
37.890        40
37.900        40
37.910        20
37.920        20
37.930        33
37.940        20
37.950        20
37.960        20
37.970         7
37.980         7
37.990         7
38.000        20
38.010        20
38.020         0
38.030         0
38.040        13
38.050        27
38.060        13
38.070        20
38.080         7
38.090        13
38.100        13
38.110         7
38.120        13
38.130        13
38.140        20
38.150         7
38.160         0
38.170        13
38.180        40
38.190        13
38.200        33
38.210        33
38.220         7
38.230        13
38.240        20
38.250        27
38.260        33
38.270        20
38.280        27
38.290        40
38.300        13
38.310        27
38.320        13
38.330         7
38.340        13
38.350        13
38.360         7
38.370        27
38.380         0
38.390        13
38.400        20
38.410        27
38.420        33
38.430         7
38.440        40
38.450        20
38.460        33
38.470         7
38.480         7
38.490         7
38.500        27
38.510        13
38.520        20
38.530         7
38.540        40
38.550         7
38.560        20
38.570        27
38.580        20
38.590        13
38.600        20
38.610        20
38.620        27
38.630        20
38.640        27
38.650        33
38.660         7
38.670        40
38.680        20
38.690        20
38.700        13
38.710        33
38.720        20
38.730        13
38.740         7
38.750        20
38.760        47
38.770        13
38.780        20
38.790        13
38.800         7
38.810        33
38.820        13
38.830        20
38.840        27
38.850         7
38.860        27
38.870        13
38.880        40
38.890         7
38.900        40
38.910        13
38.920        20
38.930        27
38.940         7
38.950        13
38.960        27
38.970         7
38.980        20
38.990        20
39.000        13
39.010        13
39.020        27
39.030        27
39.040         0
39.050        27
39.060        40
39.070        13
39.080        33
39.090        47
39.100        13
39.110        20
39.120         7
39.130        40
39.140        27
39.150         0
39.160        20
39.170         0
39.180        33
39.190        13
39.200        33
39.210        47
39.220        13
39.230        33
39.240        13
39.250         7
39.260        20
39.270        40
39.280        27
39.290        20
39.300         7
39.310        27
39.320        33
39.330        27
39.340        27
39.350         7
39.360        60
39.370        27
39.380        27
39.390        20
39.400        33
39.410        40
39.420        20
39.430        27
39.440        20
39.450         7
39.460        20
39.470        13
39.480        13
39.490         0
39.500        20
39.510        20
39.520        27
39.530        47
39.540         0
39.550        20
39.560        20
39.570        20
39.580        33
39.590         7
39.600         7
39.610         0
39.620        13
39.630        40
39.640        13
39.650         7
39.660        20
39.670        13
39.680         7
39.690        13
39.700        13
39.710         7
39.720        13
39.730        13
39.740        20
39.750        20
39.760         7
39.770        33
39.780         7
39.790        13
39.800         7
39.810        33
39.820        27
39.830        27
39.840        20
39.850        20
39.860        13
39.870        13
39.880         0
39.890        27
39.900        13
39.910        13
39.920        13
39.930        20
39.940        27
39.950        13
39.960        20
39.970        27
39.980        33
39.990        33
40.000         7
40.010        20
40.020        20
40.030        20
40.040        53
40.050        20
40.060        47
40.070        27
40.080         7
40.090        20
40.100        33
40.110        13
40.120        20
40.130         7
40.140        67
40.150         7
40.160        27
40.170        13
40.180        40
40.190        40
40.200        13
40.210        13
40.220        20
40.230        20
40.240        27
40.250        33
40.260         7
40.270        20
40.280        27
40.290        20
40.300        13
40.310         0
40.320         7
40.330        20
40.340        20
40.350        20
40.360        27
40.370         7
40.380        20
40.390        27
40.400         7
40.410        33
40.420        13
40.430        13
40.440        13
40.450        13
40.460        20
40.470        27
40.480        27
40.490         7
40.500        40
40.510         7
40.520        27
40.530         7
40.540        33
40.550        40
40.560         7
40.570        33
40.580        27
40.590        13
40.600        20
40.610         7
40.620        33
40.630        33
40.640         0
40.650        13
40.660        20
40.670        13
40.680        27
40.690        33
40.700        13
40.710         0
40.720        33
40.730        33
40.740        13
40.750        20
40.760        20
40.770        33
40.780        20
40.790        20
40.800        13
40.810        27
40.820        53
40.830        20
40.840        40
40.850        13
40.860        20
40.870        20
40.880        40
40.890        40
40.900        40
40.910        13
40.920        20
40.930        13
40.940         0
40.950        20
40.960        27
40.970         7
40.980        27
40.990        20
41.000        33
41.010        13
41.020        33
41.030        27
41.040        13
41.050         7
41.060        20
41.070        20
41.080        40
41.090        33
41.100        13
41.110        20
41.120        20
41.130         0
41.140        20
41.150        27
41.160        13
41.170        20
41.180         0
41.190         0
41.200        27
41.210        33
41.220        20
41.230        13
41.240        20
41.250         7
41.260        13
41.270        20
41.280        40
41.290        27
41.300        20
41.310        20
41.320        20
41.330        20
41.340        20
41.350        13
41.360        13
41.370        40
41.380         7
41.390         7
41.400        20
41.410        20
41.420        27
41.430        20
41.440         7
41.450        40
41.460        13
41.470         7
41.480        20
41.490        13
41.500        20
41.510         7
41.520        13
41.530         7
41.540        13
41.550        13
41.560        20
41.570        27
41.580        13
41.590        47
41.600         7
41.610        27
41.620        13
41.630        13
41.640         0
41.650         7
41.660        13
41.670        53
41.680        20
41.690        20
41.700        53
41.710        20
41.720        13
41.730        27
41.740        27
41.750        27
41.760        33
41.770        33
41.780        53
41.790        27
41.800        27
41.810        20
41.820        40
41.830        40
41.840        47
41.850        20
41.860        67
41.870        27
41.880        53
41.890        33
41.900        20
41.910        27
41.920        20
41.930        47
41.940        40
41.950        13
41.960        33
41.970        20
41.980        53
41.990        27
42.000        27
42.010        13
42.020        27
42.030        33
42.040         7
42.050        20
42.060        33
42.070        33
42.080        27
42.090        27
42.100         7
42.110        27
42.120        27
42.130        47
42.140        20
42.150        40
42.160        33
42.170        40
42.180        33
42.190        33
42.200        40
42.210        20
42.220        27
42.230        13
42.240        20
42.250        13
42.260         0
42.270         7
42.280         7
42.290        13
42.300        20
42.310        13
42.320        40
42.330        40
42.340         0
42.350        20
42.360         7
42.370         7
42.380        27
42.390        33
42.400        13
42.410        20
42.420        20
42.430        20
42.440        20
42.450         7
42.460        20
42.470        13
42.480        27
42.490        13
42.500        27
42.510        27
42.520        13
42.530        20
42.540         7
42.550        13
42.560        33
42.570        33
42.580        27
42.590         0
42.600        20
42.610        13
42.620         7
42.630        40
42.640         7
42.650        33
42.660         7
42.670        13
42.680        13
42.690         0
42.700        33
42.710         0
42.720        40
42.730         7
42.740        13
42.750        27
42.760        33
42.770        33
42.780        27
42.790        27
42.800        27
42.810        20
42.820        40
42.830        33
42.840        20
42.850        13
42.860        33
42.870        40
42.880        33
42.890        33
42.900         7
42.910        33
42.920        20
42.930        33
42.940        47
42.950        27
42.960        27
42.970        47
42.980        47
42.990        27
43.000        20
43.010        13
43.020        33
43.030        33
43.040        40
43.050        13
43.060        40
43.070        33
43.080        40
43.090        33
43.100         7
43.110        13
43.120        20
43.130        13
43.140        27
43.150        20
43.160        27
43.170        27
43.180         0
43.190        27
43.200        13
43.210        47
43.220        13
43.230        47
43.240        27
43.250        27
43.260         0
43.270        13
43.280         7
43.290        13
43.300        27
43.310        20
43.320        20
43.330        13
43.340        20
43.350        20
43.360        13
43.370        27
43.380         7
43.390        13
43.400        13
43.410        40
43.420        13
43.430        13
43.440        27
43.450        13
43.460         7
43.470        13
43.480         7
43.490        47
43.500        27
43.510        13
43.520        13
43.530        20
43.540        27
43.550        13
43.560        27
43.570        33
43.580        27
43.590         7
43.600         7
43.610         7
43.620        13
43.630        13
43.640        33
43.650        20
43.660        20
43.670        13
43.680        40
43.690        20
43.700        20
43.710         7
43.720         7
43.730        20
43.740        33
43.750        27
43.760        13
43.770        40
43.780        20
43.790        13
43.800        27
43.810        27
43.820        40
43.830        13
43.840        20
43.850         7
43.860        20
43.870        13
43.880        20
43.890        33
43.900        13
43.910        13
43.920        13
43.930        13
43.940        47
43.950         7
43.960        20
43.970        27
43.980        27
43.990        33
44.000        20
44.010        13
44.020        40
44.030        33
44.040        20
44.050        13
44.060        27
44.070        13
44.080        13
44.090        40
44.100        13
44.110         7
44.120        33
44.130        13
44.140         7
44.150        13
44.160        20
44.170        33
44.180         7
44.190         0
44.200        40
44.210        20
44.220        20
44.230        47
44.240         7
44.250        27
44.260        27
44.270        20
44.280         7
44.290        27
44.300         7
44.310         0
44.320        27
44.330        33
44.340        33
44.350         7
44.360        20
44.370        13
44.380        40
44.390        47
44.400         7
44.410        33
44.420        13
44.430        40
44.440        33
44.450        27
44.460         7
44.470        13
44.480        33
44.490         7
44.500        40
44.510         0
44.520         7
44.530        13
44.540        20
44.550        60
44.560         7
44.570        13
44.580        27
44.590        33
44.600        20
44.610         0
44.620        33
44.630        13
44.640        13
44.650        20
44.660        13
44.670        20
44.680        33
44.690        13
44.700        13
44.710        13
44.720        40
44.730        13
44.740         7
44.750        20
44.760        13
44.770        33
44.780        33
44.790        13
44.800        33
44.810        33
44.820        13
44.830        20
44.840        40
44.850        27
44.860         7
44.870        20
44.880        40
44.890        27
44.900        33
44.910        20
44.920        60
44.930        27
44.940        13
44.950        33
44.960        20
44.970        20
44.980        20
44.990        33
45.000        33
45.010        73
45.020        33
45.030        33
45.040        27
45.050        33
45.060        40
45.070        27
45.080        47
45.090        20
45.100        33
45.110        40
45.120        20
45.130         0
45.140        27
45.150        47
45.160        40
45.170        13
45.180        27
45.190        33
45.200        27
45.210        20
45.220        27
45.230        40
45.240        20
45.250        20
45.260        27
45.270        40
45.280        47
45.290        20
45.300        53
45.310        20
45.320        27
45.330        40
45.340        33
45.350        73
45.360        53
45.370        60
45.380        53
45.390        47
45.400        33
45.410        33
45.420        27
45.430        20
45.440        47
45.450        53
45.460        40
45.470        60
45.480        40
45.490        33
45.500        27
45.510        33
45.520        40
45.530        13
45.540        40
45.550        27
45.560        13
45.570        47
45.580        27
45.590        47
45.600        33
45.610        60
45.620        20
45.630        53
45.640        20
45.650        20
45.660        67
45.670        13
45.680        20
45.690        40
45.700        53
45.710        60
45.720        87
45.730        33
45.740        60
45.750        67
45.760        40
45.770        60
45.780        33
45.790        47
45.800        13
45.810        47
45.820        53
45.830        40
45.840        33
45.850        87
45.860        60
45.870        60
45.880        60
45.890        60
45.900        47
45.910        33
45.920        33
45.930        53
45.940        73
45.950        53
45.960       100
45.970        73
45.980        40
45.990       100
46.000        80
46.010        60
46.020        60
46.030        53
46.040        80
46.050       107
46.060        87
46.070        73
46.080       120
46.090       120
46.100        73
46.110       100
46.120       100
46.130        87
46.140       127
46.150       147
46.160       207
46.170       153
46.180       147
46.190       193
46.200       113
46.210       167
46.220       133
46.230       193
46.240       153
46.250       267
46.260       180
46.270       307
46.280       253
46.290       347
46.300       340
46.310       433
46.320       360
46.330       440
46.340       566
46.350       480
46.360       586
46.370       706
46.380       740
46.390       820
46.400       773
46.410       860
46.420       980
46.430      1073
46.440      1200
46.450      1120
46.460      1326
46.470      1486
46.480      1519
46.490      1999
46.500      1926
46.510      2179
46.520      2346
46.530      2266
46.540      2432
46.550      2806
46.560      2339
46.570      2892
46.580      2899
46.590      2579
46.600      3005
46.610      2766
46.620      3079
46.630      2806
46.640      2692
46.650      2566
46.660      2619
46.670      2479
46.680      2306
46.690      2232
46.700      2252
46.710      2059
46.720      1906
46.730      1793
46.740      1546
46.750      1373
46.760      1393
46.770      1386
46.780      1153
46.790      1053
46.800       866
46.810       766
46.820       633
46.830       733
46.840       640
46.850       540
46.860       513
46.870       473
46.880       413
46.890       293
46.900       367
46.910       347
46.920       253
46.930       240
46.940       273
46.950       233
46.960       227
46.970       200
46.980       187
46.990       173
47.000       173
47.010       100
47.020       147
47.030       140
47.040       120
47.050       147
47.060        93
47.070       147
47.080       107
47.090       113
47.100        60
47.110        80
47.120       120
47.130        73
47.140        80
47.150       127
47.160        93
47.170        60
47.180        73
47.190        67
47.200        40
47.210       107
47.220        93
47.230        67
47.240        47
47.250       100
47.260        53
47.270        67
47.280        33
47.290       100
47.300        73
47.310        40
47.320        73
47.330        80
47.340        73
47.350        73
47.360        73
47.370        73
47.380        53
47.390        47
47.400        53
47.410        67
47.420        47
47.430        53
47.440        53
47.450        60
47.460        47
47.470        67
47.480        33
47.490        20
47.500        40
47.510        73
47.520        60
47.530        40
47.540        27
47.550        47
47.560        67
47.570        60
47.580        47
47.590        40
47.600        53
47.610        27
47.620        33
47.630        60
47.640        67
47.650        20
47.660        60
47.670        40
47.680        27
47.690        53
47.700        20
47.710         7
47.720        47
47.730        27
47.740        53
47.750        27
47.760        33
47.770        33
47.780        33
47.790        33
47.800        33
47.810        33
47.820        20
47.830        33
47.840        40
47.850        53
47.860         7
47.870        33
47.880        33
47.890        53
47.900        33
47.910        67
47.920        60
47.930        20
47.940        33
47.950        47
47.960        47
47.970        20
47.980        87
47.990        40
48.000        33
48.010        20
48.020        33
48.030        33
48.040        20
48.050        47
48.060        40
48.070        13
48.080        33
48.090        33
48.100        33
48.110        20
48.120         7
48.130        33
48.140        27
48.150        13
48.160        40
48.170        33
48.180        40
48.190        20
48.200        33
48.210        27
48.220        27
48.230        47
48.240        33
48.250        27
48.260        33
48.270        80
48.280        27
48.290         0
48.300        33
48.310        27
48.320        40
48.330        27
48.340        33
48.350        13
48.360        47
48.370        53
48.380        47
48.390        27
48.400        33
48.410        60
48.420        13
48.430        33
48.440        20
48.450        33
48.460        20
48.470        47
48.480         7
48.490        33
48.500        33
48.510        33
48.520        27
48.530        33
48.540        33
48.550         7
48.560        60
48.570        40
48.580        27
48.590        33
48.600        47
48.610        47
48.620        33
48.630        27
48.640        20
48.650        27
48.660        33
48.670        60
48.680        60
48.690        53
48.700        33
48.710        13
48.720        13
48.730        13
48.740        53
48.750        27
48.760        53
48.770        27
48.780        27
48.790        27
48.800        13
48.810        20
48.820        40
48.830        27
48.840        33
48.850         0
48.860        27
48.870        27
48.880        73
48.890        60
48.900        20
48.910         7
48.920        20
48.930        27
48.940         7
48.950        27
48.960        33
48.970        27
48.980        33
48.990        27
49.000        47
49.010        33
49.020        33
49.030         7
49.040        33
49.050        53
49.060        13
49.070        53
49.080        40
49.090        20
49.100         7
49.110        13
49.120        27
49.130        13
49.140        27
49.150         7
49.160        27
49.170        20
49.180        13
49.190        60
49.200        33
49.210        27
49.220         7
49.230        33
49.240        27
49.250         7
49.260        13
49.270        40
49.280        13
49.290         0
49.300        33
49.310        13
49.320        27
49.330        27
49.340        27
49.350        13
49.360        40
49.370        20
49.380        33
49.390        40
49.400         7
49.410        27
49.420        20
49.430        13
49.440        20
49.450        40
49.460         7
49.470        20
49.480        13
49.490        13
49.500        33
49.510        20
49.520        33
49.530        27
49.540        53
49.550        20
49.560        60
49.570        27
49.580        20
49.590        33
49.600         7
49.610        20
49.620        20
49.630        20
49.640        20
49.650        13
49.660        27
49.670        13
49.680        20
49.690        33
49.700         7
49.710        27
49.720        13
49.730         7
49.740         7
49.750        20
49.760        20
49.770        20
49.780        40
49.790        20
49.800        13
49.810        20
49.820        13
49.830        40
49.840        13
49.850        20
49.860        33
49.870        27
49.880        20
49.890        13
49.900        27
49.910         7
49.920        40
49.930        20
49.940        27
49.950        13
49.960        20
49.970        33
49.980         7
49.990        20
50.000        33
50.010        13
50.020        33
50.030        33
50.040        20
50.050        47
50.060        13
50.070        27
50.080         0
50.090         7
50.100        27
50.110        33
50.120        13
50.130        27
50.140        33
50.150        20
50.160        67
50.170        27
50.180         7
50.190         7
50.200        27
50.210        33
50.220        47
50.230        13
50.240        13
50.250         7
50.260        27
50.270        33
50.280        13
50.290        13
50.300        33
50.310        27
50.320        13
50.330        27
50.340        67
50.350        27
50.360        60
50.370        20
50.380        33
50.390        20
50.400        20
50.410        33
50.420        13
50.430        33
50.440        27
50.450        33
50.460        20
50.470        47
50.480        13
50.490        40
50.500        27
50.510        13
50.520        33
50.530        20
50.540        20
50.550        13
50.560        13
50.570        27
50.580        13
50.590        47
50.600        47
50.610        47
50.620         7
50.630        13
50.640        27
50.650        27
50.660        53
50.670        20
50.680         0
50.690        33
50.700        27
50.710        27
50.720        40
50.730        20
50.740        20
50.750         7
50.760         7
50.770        33
50.780        47
50.790        20
50.800        20
50.810        20
50.820        60
50.830        27
50.840        27
50.850        33
50.860        33
50.870        20
50.880        20
50.890        13
50.900        33
50.910        33
50.920        53
50.930        27
50.940        13
50.950        13
50.960        13
50.970        13
50.980         0
50.990        47
51.000        27
51.010        27
51.020        33
51.030        20
51.040        27
51.050        27
51.060        27
51.070        47
51.080        13
51.090         7
51.100        47
51.110        40
51.120        47
51.130        27
51.140        60
51.150        60
51.160        13
51.170        13
51.180        40
51.190         7
51.200        27
51.210        13
51.220        33
51.230        27
51.240         7
51.250        13
51.260        27
51.270        20
51.280        27
51.290        40
51.300        20
51.310        13
51.320        33
51.330        20
51.340        20
51.350         7
51.360        13
51.370        27
51.380        33
51.390        13
51.400        53
51.410         7
51.420         7
51.430        27
51.440        27
51.450        27
51.460        27
51.470        27
51.480        13
51.490         7
51.500        20
51.510        33
51.520        47
51.530        27
51.540         7
51.550        27
51.560        33
51.570        20
51.580        33
51.590        20
51.600        27
51.610        27
51.620        27
51.630        20
51.640        13
51.650        27
51.660        47
51.670        33
51.680        40
51.690        13
51.700        27
51.710        20
51.720        60
51.730        40
51.740        13
51.750        27
51.760        53
51.770        53
51.780        20
51.790         0
51.800         7
51.810        27
51.820        40
51.830        20
51.840        53
51.850        20
51.860        33
51.870        20
51.880        27
51.890         7
51.900        40
51.910        40
51.920        27
51.930        27
51.940        47
51.950        20
51.960        27
51.970        13
51.980        20
51.990        27
52.000        27
52.010        40
52.020        53
52.030        13
52.040        20
52.050        27
52.060        47
52.070        33
52.080        60
52.090         0
52.100        27
52.110        33
52.120        20
52.130        20
52.140        13
52.150        20
52.160        40
52.170        33
52.180        47
52.190        20
52.200        33
52.210        13
52.220        47
52.230        53
52.240        67
52.250        53
52.260        67
52.270        27
52.280        27
52.290        20
52.300        47
52.310        53
52.320        53
52.330        40
52.340        33
52.350        20
52.360        27
52.370        40
52.380        73
52.390        27
52.400        73
52.410        60
52.420        47
52.430        13
52.440         0
52.450        33
52.460        33
52.470        33
52.480        20
52.490        27
52.500        33
52.510        53
52.520        47
52.530        47
52.540        27
52.550        67
52.560        33
52.570        60
52.580        53
52.590        27
52.600        47
52.610        73
52.620        60
52.630        47
52.640        47
52.650        73
52.660        47
52.670        47
52.680        47
52.690         7
52.700        40
52.710        33
52.720        40
52.730        40
52.740        33
52.750        40
52.760        60
52.770        13
52.780        20
52.790        27
52.800        27
52.810        40
52.820        40
52.830        20
52.840        53
52.850        60
52.860        40
52.870        33
52.880        67
52.890        40
52.900        53
52.910        40
52.920        13
52.930        20
52.940        27
52.950         7
52.960        27
52.970        20
52.980         7
52.990        53
53.000        33
53.010        53
53.020        20
53.030        27
53.040        47
53.050        53
53.060        33
53.070        33
53.080         0
53.090        40
53.100        20
53.110        47
53.120        40
53.130        53
53.140        27
53.150         7
53.160         0
53.170        40
53.180        40
53.190        20
53.200        33
53.210        40
53.220        40
53.230        27
53.240         7
53.250        33
53.260        20
53.270        13
53.280        33
53.290        47
53.300        27
53.310        27
53.320        27
53.330        13
53.340        27
53.350        20
53.360        33
53.370        27
53.380        27
53.390         7
53.400        33
53.410        27
53.420        33
53.430        33
53.440        40
53.450        33
53.460        33
53.470        60
53.480        20
53.490        20
53.500        13
53.510        27
53.520        13
53.530        40
53.540        20
53.550        20
53.560        13
53.570        27
53.580        33
53.590        47
53.600        20
53.610        27
53.620        20
53.630        20
53.640        40
53.650        40
53.660        13
53.670        20
53.680        27
53.690        47
53.700        47
53.710        40
53.720        13
53.730        40
53.740        27
53.750        33
53.760         7
53.770        33
53.780        20
53.790        27
53.800        13
53.810         7
53.820        33
53.830        33
53.840        27
53.850        27
53.860        13
53.870        33
53.880        40
53.890        40
53.900        13
53.910        53
53.920        27
53.930        40
53.940        20
53.950         0
53.960        20
53.970        20
53.980        13
53.990        13
54.000        27
54.010        20
54.020        33
54.030        20
54.040        40
54.050        20
54.060        20
54.070        53
54.080        27
54.090        20
54.100        20
54.110        20
54.120        20
54.130        27
54.140        20
54.150        27
54.160        40
54.170        27
54.180        13
54.190        27
54.200        20
54.210         7
54.220        27
54.230        33
54.240        33
54.250        33
54.260        33
54.270         7
54.280        20
54.290        27
54.300        27
54.310        27
54.320        27
54.330        20
54.340        27
54.350        60
54.360        20
54.370        13
54.380        20
54.390        20
54.400        20
54.410         0
54.420        40
54.430        40
54.440        27
54.450        33
54.460        33
54.470        40
54.480        53
54.490        27
54.500        13
54.510        33
54.520        20
54.530        27
54.540        13
54.550         7
54.560         0
54.570        33
54.580        53
54.590        27
54.600         7
54.610        13
54.620        27
54.630        40
54.640        13
54.650        20
54.660        33
54.670        13
54.680        13
54.690        27
54.700        13
54.710        13
54.720        13
54.730         7
54.740        13
54.750        27
54.760        20
54.770         7
54.780        20
54.790        27
54.800        20
54.810         7
54.820        47
54.830        20
54.840        13
54.850        20
54.860        13
54.870        53
54.880        33
54.890         7
54.900        20
54.910        20
54.920        20
54.930         7
54.940        20
54.950        27
54.960        13
54.970        13
54.980        13
54.990        53
55.000        27
55.010        13
55.020        20
55.030         7
55.040        13
55.050        27
55.060         7
55.070        27
55.080        20
55.090        20
55.100        47
55.110        20
55.120        13
55.130        13
55.140        20
55.150        27
55.160        33
55.170        13
55.180        27
55.190        13
55.200        33
55.210         7
55.220         7
55.230        33
55.240        20
55.250        27
55.260        20
55.270        20
55.280         7
55.290        53
55.300        13
55.310         7
55.320        27
55.330         7
55.340         0
55.350        13
55.360         7
55.370        27
55.380        20
55.390        20
55.400        27
55.410        20
55.420        33
55.430         0
55.440        27
55.450        40
55.460        13
55.470        40
55.480        27
55.490        33
55.500        27
55.510         7
55.520        20
55.530        13
55.540        53
55.550        53
55.560        13
55.570        27
55.580        20
55.590        13
55.600        40
55.610        33
55.620        27
55.630        20
55.640        20
55.650        33
55.660        13
55.670        20
55.680        20
55.690        20
55.700        33
55.710         7
55.720         0
55.730        20
55.740        13
55.750        40
55.760        27
55.770         7
55.780        20
55.790         7
55.800        40
55.810        20
55.820        27
55.830        13
55.840        27
55.850        20
55.860        53
55.870         0
55.880        33
55.890        33
55.900        13
55.910        47
55.920        47
55.930         7
55.940        27
55.950        33
55.960        27
55.970        13
55.980        27
55.990        13
56.000        27
56.010        20
56.020        47
56.030        20
56.040        47
56.050        13
56.060        20
56.070        33
56.080        13
56.090        27
56.100         7
56.110        13
56.120        13
56.130        40
56.140        27
56.150        20
56.160        20
56.170        47
56.180         7
56.190        27
56.200        13
56.210        13
56.220        20
56.230         7
56.240         7
56.250        13
56.260        20
56.270        53
56.280        40
56.290        27
56.300        20
56.310         0
56.320         7
56.330        33
56.340        13
56.350        13
56.360        20
56.370         0
56.380        13
56.390        33
56.400        13
56.410        20
56.420        13
56.430        27
56.440        13
56.450         7
56.460        27
56.470        27
56.480         7
56.490        13
56.500        20
56.510        13
56.520        13
56.530        13
56.540         0
56.550         7
56.560         7
56.570        40
56.580        27
56.590         7
56.600        13
56.610        13
56.620        33
56.630        13
56.640        27
56.650        13
56.660        13
56.670         0
56.680         7
56.690        27
56.700        27
56.710        47
56.720         7
56.730        20
56.740         0
56.750        13
56.760        20
56.770         7
56.780        20
56.790        13
56.800         7
56.810        40
56.820        13
56.830        40
56.840        27
56.850        13
56.860        33
56.870         7
56.880        13
56.890         7
56.900         7
56.910        20
56.920         7
56.930        20
56.940        20
56.950        47
56.960        27
56.970         7
56.980        27
56.990        13
57.000        20
57.010        33
57.020        13
57.030        33
57.040         0
57.050        13
57.060        27
57.070         7
57.080        40
57.090        27
57.100        20
57.110        13
57.120        20
57.130         7
57.140         7
57.150        13
57.160        47
57.170        13
57.180        27
57.190        20
57.200        27
57.210        13
57.220        20
57.230        33
57.240        27
57.250         0
57.260        33
57.270        13
57.280        13
57.290        27
57.300        20
57.310        27
57.320        20
57.330        13
57.340        13
57.350        40
57.360         7
57.370        33
57.380        27
57.390         0
57.400        13
57.410        20
57.420        20
57.430        33
57.440         7
57.450         7
57.460        27
57.470        13
57.480        20
57.490        13
57.500        13
57.510         0
57.520         7
57.530        20
57.540        20
57.550         0
57.560         7
57.570        33
57.580        20
57.590        13
57.600        13
57.610         7
57.620        27
57.630        27
57.640         0
57.650        13
57.660        13
57.670         0
57.680         7
57.690         7
57.700        40
57.710        20
57.720        13
57.730        13
57.740         0
57.750        13
57.760        13
57.770        20
57.780         7
57.790        27
57.800         7
57.810        13
57.820        27
57.830        33
57.840        20
57.850        20
57.860         7
57.870        20
57.880        13
57.890         7
57.900        20
57.910         0
57.920         0
57.930         7
57.940        33
57.950        20
57.960        20
57.970        13
57.980        20
57.990        27
58.000         7
58.010        40
58.020        27
58.030        27
58.040        13
58.050        20
58.060        20
58.070         7
58.080        20
58.090        20
58.100        20
58.110         7
58.120        27
58.130        20
58.140        20
58.150        27
58.160        13
58.170         7
58.180        33
58.190         7
58.200         0
58.210        13
58.220        13
58.230        33
58.240         0
58.250         7
58.260        20
58.270        13
58.280         0
58.290        13
58.300        27
58.310         7
58.320        20
58.330         7
58.340         7
58.350         7
58.360        20
58.370         0
58.380        13
58.390        13
58.400        13
58.410         7
58.420        13
58.430        27
58.440        20
58.450         7
58.460        27
58.470         7
58.480        13
58.490         7
58.500        27
58.510        27
58.520        13
58.530         7
58.540        20
58.550        20
58.560        27
58.570        13
58.580         0
58.590        33
58.600         7
58.610        33
58.620        20
58.630         7
58.640        20
58.650        27
58.660        13
58.670        27
58.680        20
58.690        20
58.700        27
58.710        13
58.720        40
58.730        20
58.740        13
58.750        20
58.760         0
58.770        13
58.780        13
58.790         0
58.800        13
58.810        27
58.820        20
58.830         7
58.840        27
58.850        13
58.860        27
58.870        27
58.880         7
58.890         7
58.900        20
58.910        20
58.920        20
58.930        13
58.940        13
58.950        20
58.960        13
58.970        47
58.980        20
58.990         7
59.000        20
59.010        27
59.020        13
59.030        27
59.040        13
59.050        20
59.060        13
59.070        20
59.080         0
59.090         7
59.100        20
59.110        13
59.120        27
59.130        27
59.140        40
59.150        33
59.160        27
59.170        33
59.180         7
59.190         7
59.200        13
59.210        40
59.220         7
59.230        13
59.240        20
59.250         0
59.260        27
59.270         7
59.280        20
59.290         0
59.300        13
59.310        13
59.320        33
59.330        20
59.340         7
59.350        13
59.360        13
59.370        33
59.380        13
59.390        20
59.400        13
59.410        13
59.420        33
59.430        13
59.440         7
59.450        13
59.460         0
59.470        27
59.480        27
59.490        20
59.500        27
59.510        13
59.520         7
59.530         0
59.540        20
59.550         0
59.560         7
59.570         7
59.580         0
59.590        13
59.600        13
59.610        27
59.620         0
59.630         7
59.640         7
59.650         7
59.660        13
59.670        20
59.680        13
59.690        27
59.700        20
59.710        13
59.720        33
59.730        13
59.740         7
59.750        13
59.760         0
59.770         7
59.780        13
59.790        13
59.800        13
59.810        20
59.820        33
59.830        13
59.840         0
59.850        33
59.860        40
59.870        20
59.880         7
59.890         7
59.900        27
59.910        33
59.920         7
59.930         7
59.940        20
59.950        27
59.960        27
59.970        20
59.980         7
59.990        20
60.000        20
