20.000        47
20.010        27
20.020        33
20.030        20
20.040        20
20.050        27
20.060        53
20.070        47
20.080        40
20.090        13
20.100        67
20.110        13
20.120        33
20.130        53
20.140        60
20.150        27
20.160        33
20.170        53
20.180        47
20.190        40
20.200        40
20.210        47
20.220        53
20.230        27
20.240        53
20.250        40
20.260        40
20.270        60
20.280        13
20.290        80
20.300        27
20.310        47
20.320        33
20.330        47
20.340        40
20.350        53
20.360        20
20.370        53
20.380        33
20.390        47
20.400        53
20.410        33
20.420         7
20.430        73
20.440        67
20.450        53
20.460        93
20.470        73
20.480        47
20.490        40
20.500        73
20.510        27
20.520        67
20.530        40
20.540        67
20.550        47
20.560        40
20.570        40
20.580        60
20.590        47
20.600        40
20.610        27
20.620        73
20.630        33
20.640        73
20.650        60
20.660        47
20.670        33
20.680        27
20.690        47
20.700        67
20.710        33
20.720        33
20.730        60
20.740        53
20.750        20
20.760        53
20.770        27
20.780        40
20.790        27
20.800        40
20.810        27
20.820        13
20.830        47
20.840        33
20.850        33
20.860        40
20.870        33
20.880        60
20.890        67
20.900        47
20.910        40
20.920        33
20.930        40
20.940        27
20.950        47
20.960        13
20.970        33
20.980        40
20.990        47
21.000        33
21.010        27
21.020        73
21.030        47
21.040        40
21.050         0
21.060         7
21.070        40
21.080        40
21.090        20
21.100        27
21.110        60
21.120        47
21.130        53
21.140        87
21.150        60
21.160        67
21.170        13
21.180        60
21.190        67
21.200        87
21.210        33
21.220        20
21.230        53
21.240        27
21.250        53
21.260        47
21.270        20
21.280        27
21.290        53
21.300        47
21.310        47
21.320        60
21.330        33
21.340        47
21.350        33
21.360        40
21.370        27
21.380        40
21.390        73
21.400         7
21.410         7
21.420        47
21.430        40
21.440        33
21.450        27
21.460        60
21.470        40
21.480        53
21.490        47
21.500        33
21.510        27
21.520        40
21.530        67
21.540        20
21.550        13
21.560        33
21.570        40
21.580        40
21.590        60
21.600        33
21.610        60
21.620        47
21.630        33
21.640        33
21.650        47
21.660        40
21.670        27
21.680        47
21.690        60
21.700        27
21.710        40
21.720        47
21.730        47
21.740        67
21.750        20
21.760        40
21.770        27
21.780        40
21.790        33
21.800        13
21.810        67
21.820        40
21.830        40
21.840        40
21.850        27
21.860        40
21.870        33
21.880        20
21.890       100
21.900        53
21.910        40
21.920        40
21.930        33
21.940        60
21.950        47
21.960        40
21.970        47
21.980        47
21.990        47
22.000        20
22.010        27
22.020        40
22.030        47
22.040        33
22.050        20
22.060        67
22.070        33
22.080        40
22.090        73
22.100        67
22.110        47
22.120        33
22.130        47
22.140        47
22.150        53
22.160        53
22.170        33
22.180        53
22.190        20
22.200        40
22.210        40
22.220        20
22.230        53
22.240        13
22.250        40
22.260        40
22.270        40
22.280        73
22.290        47
22.300        33
22.310        33
22.320        40
22.330        40
22.340        53
22.350        47
22.360        27
22.370        67
22.380        20
22.390        47
22.400        53
22.410        53
22.420        73
22.430        40
22.440        40
22.450        67
22.460        53
22.470        53
22.480        53
22.490        53
22.500        60
22.510        87
22.520       107
22.530        73
22.540        80
22.550        80
22.560        73
22.570        93
22.580        93
22.590       107
22.600       153
22.610       107
22.620        93
22.630       147
22.640       213
22.650       153
22.660       127
22.670       173
22.680       260
22.690       300
22.700       233
22.710       273
22.720       320
22.730       200
22.740       200
22.750       273
22.760       240
22.770       313
22.780       313
22.790       287
22.800       233
22.810       113
22.820       260
22.830       153
22.840       160
22.850       200
22.860       180
22.870       160
22.880       180
22.890       133
22.900       167
22.910       140
22.920       127
22.930        87
22.940        93
22.950        73
22.960        87
22.970        47
22.980        87
22.990        60
23.000        93
23.010        53
23.020        53
23.030        60
23.040        13
23.050        67
23.060        80
23.070        47
23.080        53
23.090        53
23.100        53
23.110        73
23.120        13
23.130        33
23.140        27
23.150        33
23.160        47
23.170        53
23.180        47
23.190        53
23.200        47
23.210        33
23.220        67
23.230        40
23.240        33
23.250        33
23.260        27
23.270        47
23.280        53
23.290        27
23.300         7
23.310        27
23.320        60
23.330        27
23.340        47
23.350        47
23.360        33
23.370        27
23.380        67
23.390        33
23.400        13
23.410        60
23.420        40
23.430        27
23.440        27
23.450        33
23.460        47
23.470        53
23.480        20
23.490        60
23.500        47
23.510        40
23.520        47
23.530        27
23.540        27
23.550        20
23.560        80
23.570        47
23.580        60
23.590        40
23.600        20
23.610        67
23.620        40
23.630        60
23.640        60
23.650         7
23.660        40
23.670        27
23.680        40
23.690        33
23.700        40
23.710        33
23.720        47
23.730        47
23.740        27
23.750        27
23.760        20
23.770        53
23.780        47
23.790        60
23.800        47
23.810        53
23.820        40
23.830        47
23.840        40
23.850        33
23.860        40
23.870        60
23.880        87
23.890        67
23.900        27
23.910        40
23.920        47
23.930        40
23.940        20
23.950        47
23.960        80
23.970        27
23.980        20
23.990        27
24.000        87
24.010        40
24.020        27
24.030        20
24.040        20
24.050        40
24.060        27
24.070        13
24.080        27
24.090        47
24.100        20
24.110        20
24.120        53
24.130        33
24.140        47
24.150        13
24.160        47
24.170        27
24.180        40
24.190        20
24.200        27
24.210        40
24.220         7
24.230        40
24.240        40
24.250        40
24.260        40
24.270        33
24.280        33
24.290        53
24.300        33
24.310        87
24.320        27
24.330        47
24.340        33
24.350        13
24.360        53
24.370         0
24.380        40
24.390        53
24.400        40
24.410        53
24.420        53
24.430        33
24.440        33
24.450        27
24.460        33
24.470        47
24.480        47
24.490        47
24.500        80
24.510        13
24.520        53
24.530        60
24.540        53
24.550        27
24.560        20
24.570        27
24.580        27
24.590        13
24.600        20
24.610        40
24.620        73
24.630        40
24.640        27
24.650        60
24.660        27
24.670        40
24.680        40
24.690        27
24.700        53
24.710        40
24.720        60
24.730        47
24.740        13
24.750        60
24.760        40
24.770        20
24.780        40
24.790        53
24.800        80
24.810        27
24.820        33
24.830        60
24.840        20
24.850        20
24.860        33
24.870        40
24.880        13
24.890        60
24.900        53
24.910        33
24.920        40
24.930         7
24.940        33
24.950        53
24.960        33
24.970         7
24.980        20
24.990        27
25.000        27
25.010        67
25.020        13
25.030        27
25.040        33
25.050        27
25.060        40
25.070        60
25.080        20
25.090        33
25.100        47
25.110        40
25.120        53
25.130        47
25.140        53
25.150        40
25.160        40
25.170        40
25.180        47
25.190        47
25.200        53
25.210        27
25.220        27
25.230        20
25.240         7
25.250        20
25.260        20
25.270        53
25.280        40
25.290        27
25.300        33
25.310        27
25.320        27
25.330        40
25.340        27
25.350        33
25.360        53
25.370        53
25.380        47
25.390        33
25.400        13
25.410        13
25.420        40
25.430        40
25.440        33
25.450        33
25.460        27
25.470        33
25.480        20
25.490        47
25.500        47
25.510         7
25.520        27
25.530        33
25.540        33
25.550        27
25.560        33
25.570        20
25.580        20
25.590        27
25.600        20
25.610        53
25.620        47
25.630        47
25.640        40
25.650        53
25.660        27
25.670        13
25.680        33
25.690        27
25.700        40
25.710        33
25.720        20
25.730        40
25.740        47
25.750        47
25.760        20
25.770        33
25.780        20
25.790        13
25.800        53
25.810        40
25.820        53
25.830        53
25.840        60
25.850        53
25.860        33
25.870        27
25.880        20
25.890        47
25.900        20
25.910        27
25.920        40
25.930        13
25.940        40
25.950        27
25.960        33
25.970        47
25.980        33
25.990         7
26.000        53
26.010        20
26.020        40
26.030        40
26.040        20
26.050        40
26.060        40
26.070        67
26.080        27
26.090        67
26.100        53
26.110        40
26.120        67
26.130        13
26.140        27
26.150        47
26.160        53
26.170        13
26.180        40
26.190        33
26.200        20
26.210        20
26.220        60
26.230         7
26.240        20
26.250        47
26.260        27
26.270        60
26.280        53
26.290        33
26.300        40
26.310        27
26.320        20
26.330        27
26.340        53
26.350        53
26.360         7
26.370        67
26.380        27
26.390        27
26.400        13
26.410        47
26.420        20
26.430        27
26.440        33
26.450        20
26.460        27
26.470        20
26.480        27
26.490        27
26.500        20
26.510        47
26.520        33
26.530        27
26.540        40
26.550        40
26.560        20
26.570        47
26.580        47
26.590        27
26.600        33
26.610        27
26.620        20
26.630        33
26.640        40
26.650        40
26.660        33
26.670        47
26.680        27
26.690        33
26.700        33
26.710        33
26.720        47
26.730        33
26.740        40
26.750        27
26.760        27
26.770        40
26.780        67
26.790        53
26.800        13
26.810        40
26.820         7
26.830        27
26.840        13
26.850        13
26.860        20
26.870        27
26.880        20
26.890        33
26.900        27
26.910        33
26.920        53
26.930        27
26.940        33
26.950        60
26.960        27
26.970        27
26.980        53
26.990        27
27.000        20
27.010        40
27.020        27
27.030        53
27.040        27
27.050        47
27.060         7
27.070        33
27.080        47
27.090        13
27.100        27
27.110        20
27.120        40
27.130        40
27.140        53
27.150        53
27.160        27
27.170        47
27.180        27
27.190        20
27.200        40
27.210        13
27.220        47
27.230        40
27.240        20
27.250        33
27.260        47
27.270        40
27.280        33
27.290        47
27.300        33
27.310        27
27.320        40
27.330        40
27.340        13
27.350        60
27.360        33
27.370        33
27.380         7
27.390        40
27.400        20
27.410        40
27.420        33
27.430        27
27.440        20
27.450        40
27.460        40
27.470        33
27.480        20
27.490        53
27.500        47
27.510        20
27.520        33
27.530        20
27.540        20
27.550        40
27.560        20
27.570        27
27.580        27
27.590        13
27.600        20
27.610        27
27.620        20
27.630        27
27.640         7
27.650        33
27.660        53
27.670        13
27.680        33
27.690        40
27.700        27
27.710        20
27.720        40
27.730         7
27.740        40
27.750        60
27.760        33
27.770        40
27.780        20
27.790        20
27.800        13
27.810        13
27.820        60
27.830        20
27.840        13
27.850        40
27.860        20
27.870        27
27.880        13
27.890         7
27.900        27
27.910        40
27.920        27
27.930        60
27.940        33
27.950        47
27.960        13
27.970         7
27.980        13
27.990        40
28.000        20
28.010        40
28.020         7
28.030        33
28.040        53
28.050        53
28.060        33
28.070        27
28.080        47
28.090        33
28.100        20
28.110        20
28.120        40
28.130        27
28.140        40
28.150         0
28.160        33
28.170        33
28.180        27
28.190        27
28.200        53
28.210        33
28.220        33
28.230        20
28.240        53
28.250        33
28.260        40
28.270        13
28.280        20
28.290         7
28.300        20
28.310        53
28.320        13
28.330        27
28.340        20
28.350        33
28.360        20
28.370        47
28.380        33
28.390        53
28.400        27
28.410        13
28.420        33
28.430        20
28.440         7
28.450        13
28.460        27
28.470        40
28.480        13
28.490        20
28.500        27
28.510        40
28.520        27
28.530        40
28.540        20
28.550        33
28.560        27
28.570        20
28.580        40
28.590        40
28.600        27
28.610        13
28.620        20
28.630        40
28.640        27
28.650         7
28.660        33
28.670        40
28.680        33
28.690        40
28.700        27
28.710        13
28.720        27
28.730        27
28.740        20
28.750        33
28.760        13
28.770        27
28.780        20
28.790        40
28.800         7
28.810         7
28.820        27
28.830        13
28.840        47
28.850        33
28.860        33
28.870        27
28.880        20
28.890        20
28.900        33
28.910        20
28.920         7
28.930        40
28.940        33
28.950        40
28.960        20
28.970        33
28.980        40
28.990        47
29.000        53
29.010        27
29.020        40
29.030        53
29.040        20
29.050        27
29.060        40
29.070        27
29.080        40
29.090        47
29.100        47
29.110        40
29.120        47
29.130        27
29.140        33
29.150        20
29.160        20
29.170        60
29.180        33
29.190        40
29.200        33
29.210        33
29.220        60
29.230        40
29.240        60
29.250        40
29.260        67
29.270        53
29.280        40
29.290        20
29.300        60
29.310        53
29.320        47
29.330        27
29.340        40
29.350        27
29.360        40
29.370        20
29.380        27
29.390        27
29.400        27
29.410        33
29.420        73
29.430        20
29.440        27
29.450        27
29.460        40
29.470        33
29.480        20
29.490        33
29.500        40
29.510        40
29.520         7
29.530        27
29.540        20
29.550        13
29.560        33
29.570         7
29.580        27
29.590        27
29.600        47
29.610        20
29.620         7
29.630        27
29.640        13
29.650        20
29.660        27
29.670         7
29.680        20
29.690        47
29.700        27
29.710        53
29.720        13
29.730        20
29.740        20
29.750        33
29.760        20
29.770        20
29.780        20
29.790        13
29.800        27
29.810        60
29.820        13
29.830        40
29.840        33
29.850        20
29.860        47
29.870        27
29.880        27
29.890        27
29.900        20
29.910        20
29.920        20
29.930        33
29.940        27
29.950        40
29.960        13
29.970        13
29.980         7
29.990        33
30.000        33
30.010        33
30.020        27
30.030        33
30.040        33
30.050        33
30.060        47
30.070        27
30.080        20
30.090        13
30.100        40
30.110        13
30.120        20
30.130         0
30.140         7
30.150        13
30.160        27
30.170        27
30.180        27
30.190        47
30.200         0
30.210        27
30.220        20
30.230        67
30.240         7
30.250         7
30.260        13
30.270        20
30.280        13
30.290        33
30.300        20
30.310        40
30.320        20
30.330        13
30.340        20
30.350        20
30.360        47
30.370        47
30.380        33
30.390        40
30.400        20
30.410        33
30.420         7
30.430        27
30.440        60
30.450        13
30.460        27
30.470        20
30.480        13
30.490        33
30.500        53
30.510        20
30.520        20
30.530        27
30.540        13
30.550        33
30.560        33
30.570        33
30.580        13
30.590        53
30.600         7
30.610        40
30.620        20
30.630        53
30.640        33
30.650        20
30.660        27
30.670        20
30.680        40
30.690        33
30.700        40
30.710         7
30.720        20
30.730        33
30.740        13
30.750        13
30.760        27
30.770        13
30.780        27
30.790        40
30.800        33
30.810        20
30.820        33
30.830        33
30.840        33
30.850        13
30.860        13
30.870        40
30.880        53
30.890         7
30.900        13
30.910        33
30.920        13
30.930        47
30.940         7
30.950        13
30.960        20
30.970         7
30.980        27
30.990        53
31.000        47
31.010        13
31.020        47
31.030         7
31.040        53
31.050         7
31.060        13
31.070        20
31.080        27
31.090        33
31.100        20
31.110        33
31.120        20
31.130        27
31.140        47
31.150         7
31.160        27
31.170        20
31.180        47
31.190        20
31.200        20
31.210        27
31.220        47
31.230        27
31.240        20
31.250        33
31.260        40
31.270        20
31.280        20
31.290        40
31.300        27
31.310        20
31.320        20
31.330        20
31.340        80
31.350        40
31.360        13
31.370        20
31.380        13
31.390        33
31.400         0
31.410        27
31.420        27
31.430        73
31.440        33
31.450        40
31.460         7
31.470        20
31.480         7
31.490        33
31.500        13
31.510        47
31.520        40
31.530        13
31.540         7
31.550        20
31.560        27
31.570        33
31.580        20
31.590        13
31.600        33
31.610        13
31.620        20
31.630        33
31.640        27
31.650        20
31.660        20
31.670        27
31.680        20
31.690        27
31.700        33
31.710        33
31.720        20
31.730        53
31.740        13
31.750        27
31.760        40
31.770        27
31.780        40
31.790        53
31.800        13
31.810        27
31.820        33
31.830        33
31.840        13
31.850        33
31.860        33
31.870        47
31.880        40
31.890        60
31.900        20
31.910        20
31.920        47
31.930        33
31.940        27
31.950        40
31.960        33
31.970        53
31.980        40
31.990        13
32.000        20
32.010        27
32.020        67
32.030        67
32.040        27
32.050        60
32.060        53
32.070        27
32.080        20
32.090        13
32.100        53
32.110        60
32.120        53
32.130        67
32.140        60
32.150        60
32.160        53
32.170       107
32.180        80
32.190        73
32.200        80
32.210        93
32.220        73
32.230       153
32.240       140
32.250       113
32.260       133
32.270       113
32.280       193
32.290       120
32.300       207
32.310       193
32.320       207
32.330       287
32.340       313
32.350       220
32.360       300
32.370       233
32.380       280
32.390       327
32.400       247
32.410       300
32.420       293
32.430       367
32.440       227
32.450       253
32.460       180
32.470       287
32.480       227
32.490       213
32.500       240
32.510       187
32.520       160
32.530       113
32.540       207
32.550       173
32.560       133
32.570       113
32.580       127
32.590       153
32.600        73
32.610       127
32.620       133
32.630        67
32.640        80
32.650        60
32.660        87
32.670        60
32.680        53
32.690        93
32.700        13
32.710        53
32.720        53
32.730        53
32.740        60
32.750        27
32.760        53
32.770        53
32.780        53
32.790        47
32.800        53
32.810        20
32.820        20
32.830        27
32.840        40
32.850        40
32.860        40
32.870        33
32.880        27
32.890        27
32.900        33
32.910        47
32.920        33
32.930        27
32.940        20
32.950        20
32.960        40
32.970        27
32.980        20
32.990        20
33.000        20
33.010        40
33.020         7
33.030        20
33.040        20
33.050        33
33.060        27
33.070        13
33.080        40
33.090        27
33.100        13
33.110        27
33.120        33
33.130        13
33.140        47
33.150        13
33.160        13
33.170        20
33.180        20
33.190        20
33.200        13
33.210         7
33.220        33
33.230        20
33.240        53
33.250        53
33.260        13
33.270        13
33.280        27
33.290        27
33.300        20
33.310        13
33.320        27
33.330        27
33.340        27
33.350        53
33.360        20
33.370        27
33.380        13
33.390         7
33.400        33
33.410        27
33.420        27
33.430        13
33.440        13
33.450         7
33.460        33
33.470        40
33.480        20
33.490        13
33.500        20
33.510         7
33.520        27
33.530        20
33.540        27
33.550        13
33.560        27
33.570        13
33.580        40
33.590        27
33.600        13
33.610        20
33.620         7
33.630        20
33.640         0
33.650        40
33.660        20
33.670        27
33.680        33
33.690        33
33.700         7
33.710         0
33.720        33
33.730        33
33.740        33
33.750        27
33.760         7
33.770        27
33.780        27
33.790        33
33.800        20
33.810        27
33.820        33
33.830        20
33.840        20
33.850        20
33.860        13
33.870        13
33.880        27
33.890        13
33.900        20
33.910        33
33.920        20
33.930         0
33.940        13
33.950         7
33.960        13
33.970        47
33.980        27
33.990        20
34.000         7
34.010        27
34.020        47
34.030        33
34.040        27
34.050        13
34.060        27
34.070        20
34.080        20
34.090        40
34.100        20
34.110        13
34.120        20
34.130        40
34.140        20
34.150        13
34.160        20
34.170         7
34.180        27
34.190        33
34.200        27
34.210        20
34.220        27
34.230        13
34.240         7
34.250        13
34.260         0
34.270         0
34.280        40
34.290        27
34.300        33
34.310        33
34.320         7
34.330        13
34.340        33
34.350        27
34.360        13
34.370         7
34.380        27
34.390         7
34.400         7
34.410         7
34.420        60
34.430         7
34.440         7
34.450        20
34.460        13
34.470         7
34.480        13
34.490         7
34.500        13
34.510        20
34.520         7
34.530        27
34.540        13
34.550        40
34.560        33
34.570        13
34.580         7
34.590        20
34.600        13
34.610        27
34.620         7
34.630        40
34.640        20
34.650        13
34.660         7
34.670        20
34.680         7
34.690        20
34.700        20
34.710         7
34.720        27
34.730         7
34.740        20
34.750        20
34.760        27
34.770         0
34.780        33
34.790        40
34.800        27
34.810         0
34.820        13
34.830        47
34.840         0
34.850        20
34.860        33
34.870         7
34.880        47
34.890        27
34.900        47
34.910         7
34.920        20
34.930        13
34.940        33
34.950        13
34.960        40
34.970        33
34.980        27
34.990         7
35.000         0
35.010        27
35.020         0
35.030         7
35.040        20
35.050         7
35.060        13
35.070        20
35.080        13
35.090        27
35.100        13
35.110        33
35.120        20
35.130        13
35.140        27
35.150         0
35.160        27
35.170        13
35.180        20
35.190         7
35.200        20
35.210        27
35.220        33
35.230         7
35.240        27
35.250        20
35.260         0
35.270        13
35.280        13
35.290        20
35.300        13
35.310        20
35.320        27
35.330        13
35.340         7
35.350        27
35.360        20
35.370         7
35.380        20
35.390        27
35.400        13
35.410        13
35.420         7
35.430        13
35.440        20
35.450         7
35.460        40
35.470        27
35.480        20
35.490        20
35.500        47
35.510        33
35.520        33
35.530         7
35.540        33
35.550        13
35.560        20
35.570        40
35.580         0
35.590        40
35.600        13
35.610        40
35.620        13
35.630        40
35.640        27
35.650        40
35.660        20
35.670        20
35.680        13
35.690        27
35.700        13
35.710        20
35.720        33
35.730        33
35.740        40
35.750        27
35.760        20
35.770        13
35.780        20
35.790        33
35.800        33
35.810        27
35.820        33
35.830         0
35.840        40
35.850        13
35.860        47
35.870         7
35.880        33
35.890        33
35.900        13
35.910        20
35.920        20
35.930        20
35.940        20
35.950         7
35.960         7
35.970        27
35.980        13
35.990        33
36.000         7
36.010        13
36.020         7
36.030        13
36.040        20
36.050        13
36.060         0
36.070        13
36.080         7
36.090        27
36.100        20
36.110        13
36.120        20
36.130         0
36.140        47
36.150        27
36.160        20
36.170         7
36.180        13
36.190        20
36.200        40
36.210        13
36.220        33
36.230        20
36.240        13
36.250        27
36.260        20
36.270         0
36.280        20
36.290        47
36.300        27
36.310         0
36.320        13
36.330        13
36.340         7
36.350        27
36.360        27
36.370        27
36.380        33
36.390        20
36.400        27
36.410         7
36.420        33
36.430        20
36.440        20
36.450         7
36.460        33
36.470        27
36.480         7
36.490        13
36.500        13
36.510        13
36.520        13
36.530        13
36.540        20
36.550         7
36.560         7
36.570        13
36.580         7
36.590        33
36.600        20
36.610        40
36.620        20
36.630        27
36.640        40
36.650        20
36.660        27
36.670        40
36.680        33
36.690        20
36.700        40
36.710        13
36.720        20
36.730         7
36.740        27
36.750         7
36.760        13
36.770         7
36.780        20
36.790        47
36.800        47
36.810        33
36.820        27
36.830        13
36.840        20
36.850        20
36.860        27
36.870        20
36.880        20
36.890        20
36.900         7
36.910        20
36.920        20
36.930        20
36.940        20
36.950        27
36.960        20
36.970        13
36.980        20
36.990        20
37.000        20
37.010        13
37.020         7
37.030        40
37.040        20
37.050        20
37.060        20
37.070        13
37.080         0
37.090        20
37.100         7
37.110        27
37.120        20
37.130        27
37.140        27
37.150        13
37.160        33
37.170        33
37.180        33
37.190         7
37.200         7
37.210         7
37.220         7
37.230        40
37.240        27
37.250        47
37.260        33
37.270        13
37.280        20
37.290        20
37.300         0
37.310        20
37.320        27
37.330        13
37.340        13
37.350        20
37.360        27
37.370        13
37.380        13
37.390        27
37.400        33
37.410        33
37.420        13
37.430        20
37.440        13
37.450        13
37.460         0
37.470        20
37.480         7
37.490        33
37.500        13
37.510        27
37.520        20
37.530        33
37.540         7
37.550        13
37.560        60
37.570        27
37.580        47
37.590        40
37.600        20
37.610         7
37.620        27
37.630        20
37.640        33
37.650        20
37.660        27
37.670        27
37.680        13
37.690        13
37.700        20
37.710        27
37.720         7
37.730        27
37.740         7
37.750        13
37.760        20
37.770        27
37.780        33
37.790        13
37.800        33
37.810         7
37.820        27
37.830        27
37.840        13
37.850        27
37.860        13
37.870        20
37.880        27
37.890        20
37.900         7
37.910        13
37.920        20
37.930        33
37.940        13
37.950         7
37.960        27
37.970        27
37.980        13
37.990        20
38.000         0
38.010        20
38.020        13
38.030        40
38.040        20
38.050        13
38.060        27
38.070        20
38.080         0
38.090        20
38.100         0
38.110        13
38.120         7
38.130         0
38.140        13
38.150        20
38.160        40
38.170         7
38.180        13
38.190        20
38.200        20
38.210         0
38.220        13
38.230        40
38.240        13
38.250        20
38.260        27
38.270        33
38.280        13
38.290         7
38.300         7
38.310        27
38.320        33
38.330        27
38.340        13
38.350        40
38.360         7
38.370        40
38.380        27
38.390        33
38.400        27
38.410         0
38.420        27
38.430        20
38.440        33
38.450         7
38.460        20
38.470        13
38.480        13
38.490        20
38.500        20
38.510         7
38.520         7
38.530        20
38.540        33
38.550        27
38.560        13
38.570         7
38.580         7
38.590         7
38.600        20
38.610        13
38.620         0
38.630        33
38.640        40
38.650         7
38.660        13
38.670         7
38.680        47
38.690        27
38.700         7
38.710         7
38.720        27
38.730        27
38.740        13
38.750        13
38.760        20
38.770        27
38.780        13
38.790        20
38.800        13
38.810        13
38.820        27
38.830        33
38.840        33
38.850        47
38.860         7
38.870        13
38.880        13
38.890        20
38.900        13
38.910        13
38.920        13
38.930        13
38.940        47
38.950        27
38.960         7
38.970        20
38.980        27
38.990        40
39.000        27
39.010        33
39.020        27
39.030        20
39.040        33
39.050        27
39.060        27
39.070        33
39.080        13
39.090        47
39.100        33
39.110        13
39.120        20
39.130        40
39.140        20
39.150         0
39.160        20
39.170        13
39.180        13
39.190        20
39.200         0
39.210         7
39.220        13
39.230        20
39.240        27
39.250        33
39.260        13
39.270        67
39.280        27
39.290        27
39.300        33
39.310        40
39.320         7
39.330        20
39.340        27
39.350        20
39.360         7
39.370        40
39.380         7
39.390         0
39.400        40
39.410         7
39.420        13
39.430        13
39.440         7
39.450        33
39.460        27
39.470         7
39.480         7
39.490        20
39.500        33
39.510        27
39.520         0
39.530        33
39.540        27
39.550        27
39.560        33
39.570        20
39.580        13
39.590         0
39.600        13
39.610        33
39.620        27
39.630        20
39.640        13
39.650        13
39.660        27
39.670        20
39.680        27
39.690        13
39.700        13
39.710        27
39.720         0
39.730        60
39.740        20
39.750         0
39.760         7
39.770        13
39.780        20
39.790        33
39.800        40
39.810        20
39.820         0
39.830        40
39.840        27
39.850        27
39.860        33
39.870        27
39.880        33
39.890        40
39.900        27
39.910        53
39.920        13
39.930        20
39.940        27
39.950        20
39.960        47
39.970        47
39.980        47
39.990        20
40.000        47
40.010        40
40.020        40
40.030        60
40.040        20
40.050        20
40.060        33
40.070        53
40.080        73
40.090        33
40.100        40
40.110        33
40.120        20
40.130        27
40.140        33
40.150        27
40.160        33
40.170        13
40.180        60
40.190        33
40.200        13
40.210        20
40.220        27
40.230        20
40.240        27
40.250         7
40.260        27
40.270        20
40.280        27
40.290        33
40.300        33
40.310        13
40.320        27
40.330         7
40.340        20
40.350        13
40.360         7
40.370        13
40.380         7
40.390        33
40.400        20
40.410         7
40.420        27
40.430        33
40.440        13
40.450        20
40.460        13
40.470        33
40.480        13
40.490        13
40.500        13
40.510        20
40.520        33
40.530         0
40.540        13
40.550        20
40.560         7
40.570         7
40.580         0
40.590        13
40.600        27
40.610         7
40.620        20
40.630        20
40.640        27
40.650        20
40.660        13
40.670        13
40.680        20
40.690        20
40.700        53
40.710        13
40.720        27
40.730        20
40.740        33
40.750         7
40.760        13
40.770         7
40.780        13
40.790        13
40.800        20
40.810         7
40.820         7
40.830        13
40.840         7
40.850        20
40.860        27
40.870        13
40.880        33
40.890        27
40.900        27
40.910        13
40.920        13
40.930        33
40.940        20
40.950        33
40.960        27
40.970        13
40.980        33
40.990        20
41.000         0
41.010        27
41.020        20
41.030        13
41.040         7
41.050        40
41.060        27
41.070        13
41.080        40
41.090        27
41.100        20
41.110        20
41.120        40
41.130         0
41.140        20
41.150        20
41.160        40
41.170        13
41.180         0
41.190         7
41.200         7
41.210        20
41.220        13
41.230        13
41.240        47
41.250        13
41.260         7
41.270        20
41.280         0
41.290        40
41.300        13
41.310        20
41.320        27
41.330        27
41.340        33
41.350        13
41.360         7
41.370        20
41.380         7
41.390        27
41.400        20
41.410        27
41.420         7
41.430        13
41.440         0
41.450        27
41.460         7
41.470        13
41.480        53
41.490         7
41.500        67
41.510        20
41.520        20
41.530        33
41.540        20
41.550         7
41.560        27
41.570         7
41.580        33
41.590        13
41.600        13
41.610        27
41.620        13
41.630        53
41.640        20
41.650        33
41.660        20
41.670        20
41.680        27
41.690         7
41.700        33
41.710        20
41.720        27
41.730        33
41.740        53
41.750        40
41.760        33
41.770        47
41.780        27
41.790        33
41.800        13
41.810        20
41.820        27
41.830        27
41.840        40
41.850        20
41.860        33
41.870        40
41.880        33
41.890        20
41.900        33
41.910         7
41.920        27
41.930        13
41.940        20
41.950        20
41.960        13
41.970        20
41.980        47
41.990         7
42.000        13
42.010        20
42.020        67
42.030         7
42.040        27
42.050        20
42.060         0
42.070        13
42.080        27
42.090        27
42.100         7
42.110        27
42.120        27
42.130        47
42.140        20
42.150        40
42.160        27
42.170        33
42.180        13
42.190        33
42.200        27
42.210        13
42.220        13
42.230        20
42.240        20
42.250        13
42.260         7
42.270        40
42.280        40
42.290         0
42.300        20
42.310        33
42.320        33
42.330        13
42.340        20
42.350        20
42.360        33
42.370        20
42.380         7
42.390        33
42.400        13
42.410        13
42.420        47
42.430        27
42.440        20
42.450        20
42.460        13
42.470        20
42.480        20
42.490        13
42.500        27
42.510         7
42.520        27
42.530         7
42.540        33
42.550        13
42.560        13
42.570        33
42.580         7
42.590        13
42.600        47
42.610        13
42.620        13
42.630        27
42.640        13
42.650         7
42.660        27
42.670        27
42.680        27
42.690        20
42.700        27
42.710        20
42.720        13
42.730        13
42.740        20
42.750        13
42.760        13
42.770        27
42.780        13
42.790        20
42.800        13
42.810        13
42.820         7
42.830        27
42.840         7
42.850        27
42.860         7
42.870        33
42.880        13
42.890        27
42.900        27
42.910        27
42.920         7
42.930        20
42.940        27
42.950        20
42.960        20
42.970        20
42.980        20
42.990        13
43.000        27
43.010        20
43.020        20
43.030        27
43.040        20
43.050        20
43.060        20
43.070        20
43.080         7
43.090        27
43.100        20
43.110         7
43.120        20
43.130        27
43.140        20
43.150        13
43.160        33
43.170        33
43.180         0
43.190        20
43.200        33
43.210         0
43.220        20
43.230         7
43.240        20
43.250        13
43.260        13
43.270        47
43.280        33
43.290        13
43.300         7
43.310        13
43.320        27
43.330        20
43.340        27
43.350         7
43.360        53
43.370        13
43.380        33
43.390        13
43.400         0
43.410        33
43.420        20
43.430         7
43.440        27
43.450        13
43.460        27
43.470        20
43.480        13
43.490        27
43.500        33
43.510        47
43.520         7
43.530        27
43.540         0
43.550        33
43.560        20
43.570        13
43.580        27
43.590         0
43.600        40
43.610        20
43.620        20
43.630         7
43.640        20
43.650         7
43.660        13
43.670        20
43.680        13
43.690         7
43.700        20
43.710        13
43.720         0
43.730        20
43.740        33
43.750        20
43.760        33
43.770        40
43.780        40
43.790         7
43.800         7
43.810        27
43.820        27
43.830        13
43.840         0
43.850         7
43.860        13
43.870        20
43.880        20
43.890        27
43.900        13
43.910        33
43.920        27
43.930        27
43.940        40
43.950        33
43.960        20
43.970        40
43.980         0
43.990         7
44.000        20
44.010         7
44.020         7
44.030        20
44.040        13
44.050        13
44.060        33
44.070        20
44.080        60
44.090        40
44.100        33
44.110        13
44.120         0
44.130        33
44.140        47
44.150        13
44.160        13
44.170        27
44.180        13
44.190        13
44.200         0
44.210        33
44.220        13
44.230        13
44.240        33
44.250        27
44.260        20
44.270        13
44.280        20
44.290        13
44.300        13
44.310         0
44.320        20
44.330        27
44.340        20
44.350        27
44.360        40
44.370        20
44.380        40
44.390        20
44.400        47
44.410        20
44.420        27
44.430         7
44.440        27
44.450        20
44.460        33
44.470        33
44.480        20
44.490        20
44.500        33
44.510        13
44.520        20
44.530        33
44.540        20
44.550        40
44.560        33
44.570        33
44.580        20
44.590        27
44.600        20
44.610        53
44.620        13
44.630        53
44.640        33
44.650        20
44.660        40
44.670        27
44.680        20
44.690        27
44.700         0
44.710        13
44.720        20
44.730        40
44.740        33
44.750        27
44.760        20
44.770        13
44.780        47
44.790        60
44.800        20
44.810        33
44.820        33
44.830        40
44.840        53
44.850        20
44.860        40
44.870        67
44.880        87
44.890        33
44.900        33
44.910        27
44.920        40
44.930        40
44.940        67
44.950        13
44.960        40
44.970        40
44.980        33
44.990        73
45.000        27
45.010        60
45.020        33
45.030        53
45.040        27
45.050        40
45.060        53
45.070        33
45.080        33
45.090        13
45.100         0
45.110        33
45.120        33
45.130        47
45.140        33
45.150        53
45.160        27
45.170        20
45.180        47
45.190        20
45.200        53
45.210        47
45.220        67
45.230        73
45.240        40
45.250        67
45.260        67
45.270        53
45.280        27
45.290        47
45.300        47
45.310        53
45.320        60
45.330        40
45.340        60
45.350        53
45.360        47
45.370        67
45.380        80
45.390        67
45.400        27
45.410        73
45.420        60
45.430        67
45.440        73
45.450        80
45.460        87
45.470        60
45.480        47
45.490        27
45.500        73
45.510        73
45.520        47
45.530        40
45.540       107
45.550        53
45.560        60
45.570        47
45.580        67
45.590        80
45.600        60
45.610        33
45.620        47
45.630        60
45.640       113
45.650        60
45.660       107
45.670        80
45.680        80
45.690        93
45.700        93
45.710       107
45.720       120
45.730       133
45.740        60
45.750        67
45.760       113
45.770       100
45.780       100
45.790        80
45.800       120
45.810       133
45.820       120
45.830       213
45.840       153
45.850       200
45.860       147
45.870       133
45.880       173
45.890       127
45.900       200
45.910       180
45.920       213
45.930       227
45.940       167
45.950       247
45.960       253
45.970       253
45.980       327
45.990       293
46.000       273
46.010       287
46.020       353
46.030       320
46.040       367
46.050       420
46.060       380
46.070       340
46.080       446
46.090       393
46.100       426
46.110       526
46.120       566
46.130       553
46.140       586
46.150       586
46.160       813
46.170       646
46.180       920
46.190       846
46.200       906
46.210       900
46.220       940
46.230       966
46.240      1013
46.250      1220
46.260      1133
46.270      1359
46.280      1399
46.290      1346
46.300      1286
46.310      1486
46.320      1479
46.330      1499
46.340      1739
46.350      1679
46.360      1733
46.370      1766
46.380      2099
46.390      1919
46.400      1839
46.410      1793
46.420      1899
46.430      1706
46.440      1946
46.450      2019
46.460      1686
46.470      1973
46.480      1806
46.490      2139
46.500      2006
46.510      1786
46.520      1799
46.530      1939
46.540      1606
46.550      1706
46.560      1566
46.570      1626
46.580      1453
46.590      1426
46.600      1466
46.610      1246
46.620      1153
46.630      1193
46.640      1353
46.650      1153
46.660      1013
46.670      1113
46.680       900
46.690       720
46.700      1000
46.710       780
46.720       833
46.730       746
46.740       666
46.750       626
46.760       506
46.770       600
46.780       613
46.790       500
46.800       493
46.810       460
46.820       506
46.830       400
46.840       360
46.850       393
46.860       440
46.870       327
46.880       313
46.890       293
46.900       280
46.910       273
46.920       300
46.930       280
46.940       207
46.950       200
46.960       193
46.970       247
46.980       187
46.990       173
47.000       207
47.010       200
47.020       180
47.030       160
47.040       253
47.050       133
47.060       160
47.070       160
47.080       167
47.090       193
47.100       120
47.110       160
47.120       133
47.130        80
47.140       107
47.150        73
47.160       133
47.170       147
47.180       120
47.190       113
47.200       113
47.210        93
47.220       127
47.230       120
47.240       100
47.250       127
47.260       120
47.270        67
47.280       100
47.290        93
47.300        80
47.310       120
47.320        80
47.330       127
47.340        67
47.350        60
47.360       113
47.370        67
47.380        73
47.390        87
47.400        93
47.410        67
47.420       127
47.430       153
47.440        47
47.450        33
47.460        33
47.470       113
47.480        73
47.490        67
47.500        73
47.510        87
47.520        53
47.530        60
47.540        73
47.550       127
47.560        40
47.570        73
47.580        80
47.590        40
47.600        80
47.610        60
47.620        53
47.630        13
47.640        53
47.650        27
47.660        33
47.670        33
47.680        67
47.690        53
47.700        80
47.710        87
47.720        53
47.730        47
47.740        73
47.750        47
47.760        27
47.770        53
47.780        40
47.790        53
47.800        13
47.810        40
47.820        53
47.830        40
47.840        67
47.850        67
47.860        40
47.870        47
47.880        33
47.890        53
47.900        33
47.910        27
47.920        67
47.930        40
47.940        60
47.950        53
47.960        47
47.970        40
47.980        40
47.990        53
48.000        40
48.010        27
48.020        20
48.030        27
48.040        53
48.050        47
48.060        27
48.070        40
48.080        20
48.090        20
48.100        53
48.110        20
48.120        67
48.130        27
48.140        47
48.150        60
48.160        53
48.170        47
48.180        40
48.190        53
48.200        40
48.210        73
48.220        60
48.230        20
48.240        33
48.250        40
48.260        33
48.270        47
48.280        20
48.290        20
48.300        13
48.310        47
48.320        47
48.330        40
48.340        47
48.350        40
48.360        47
48.370        53
48.380        33
48.390        33
48.400        27
48.410        33
48.420        33
48.430        60
48.440        53
48.450        47
48.460        73
48.470        20
48.480        47
48.490        40
48.500        13
48.510        80
48.520        33
48.530        20
48.540        33
48.550         7
48.560        27
48.570        33
48.580        13
48.590        13
48.600        27
48.610        27
48.620        13
48.630        27
48.640        33
48.650        13
48.660        20
48.670        33
48.680        33
48.690        33
48.700        33
48.710        67
48.720        47
48.730        47
48.740        33
48.750        27
48.760        27
48.770        40
48.780        33
48.790        27
48.800        20
48.810        33
48.820        40
48.830        27
48.840        20
48.850         7
48.860        40
48.870        20
48.880        33
48.890        20
48.900        33
48.910        33
48.920        27
48.930        27
48.940        40
48.950        40
48.960         0
48.970        13
48.980         0
48.990        40
49.000        13
49.010        13
49.020        27
49.030        40
49.040        47
49.050        20
49.060        20
49.070        20
49.080         7
49.090        47
49.100        27
49.110        27
49.120        20
49.130        27
49.140        20
49.150        80
49.160        20
49.170        47
49.180        27
49.190        13
49.200        13
49.210        20
49.220        47
49.230        27
49.240        13
49.250        20
49.260        20
49.270        33
49.280        47
49.290        27
49.300        33
49.310         7
49.320        20
49.330         7
49.340        20
49.350        13
49.360        33
49.370        13
49.380        53
49.390        20
49.400        33
49.410        33
49.420        53
49.430        20
49.440        27
49.450        47
49.460         7
49.470        33
49.480        40
49.490        20
49.500        47
49.510         7
49.520        27
49.530        20
49.540        13
49.550        20
49.560        27
49.570        20
49.580        13
49.590        20
49.600        27
49.610        13
49.620        20
49.630         7
49.640        27
49.650        27
49.660        27
49.670        13
49.680        20
49.690        13
49.700        33
49.710        27
49.720        27
49.730         7
49.740        33
49.750        33
49.760         7
49.770        47
49.780        40
49.790        47
49.800        33
49.810         7
49.820         7
49.830        13
49.840        27
49.850        33
49.860         7
49.870        27
49.880        33
49.890        27
49.900         7
49.910        20
49.920         7
49.930         7
49.940        33
49.950        27
49.960        27
49.970         7
49.980         0
49.990        20
50.000        47
50.010        33
50.020        27
50.030        20
50.040         7
50.050        40
50.060        27
50.070         7
50.080        33
50.090        53
50.100        53
50.110        13
50.120        47
50.130         7
50.140        20
50.150        27
50.160        13
50.170        20
50.180         0
50.190         0
50.200        20
50.210         7
50.220        53
50.230        20
50.240        27
50.250        27
50.260         0
50.270        33
50.280         0
50.290        20
50.300        33
50.310        33
50.320        40
50.330        27
50.340        27
50.350        33
50.360        33
50.370        13
50.380        33
50.390        27
50.400        40
50.410        40
50.420        27
50.430        47
50.440        13
50.450        13
50.460        27
50.470        13
50.480        33
50.490        20
50.500        27
50.510        33
50.520        20
50.530        13
50.540        20
50.550        20
50.560        20
50.570        27
50.580        20
50.590        33
50.600        47
50.610        33
50.620        27
50.630        27
50.640        20
50.650        27
50.660        33
50.670        20
50.680        33
50.690        13
50.700        20
50.710        20
50.720        53
50.730        27
50.740        27
50.750        27
50.760        47
50.770        40
50.780        53
50.790        13
50.800        40
50.810        20
50.820        20
50.830        20
50.840        13
50.850        40
50.860        13
50.870        27
50.880        20
50.890        40
50.900        13
50.910        40
50.920        20
50.930        20
50.940        40
50.950        33
50.960        27
50.970        33
50.980        20
50.990        33
51.000        40
51.010        13
51.020        27
51.030        20
51.040        40
51.050        33
51.060        27
51.070         7
51.080        20
51.090        27
51.100        53
51.110        20
51.120        33
51.130        33
51.140        53
51.150         7
51.160        40
51.170        33
51.180        40
51.190        73
51.200        20
51.210        27
51.220        33
51.230        13
51.240        40
51.250        27
51.260        20
51.270        33
51.280        33
51.290        20
51.300        33
51.310        33
51.320        73
51.330        33
51.340        40
51.350        40
51.360         7
51.370        13
51.380        27
51.390        20
51.400        20
51.410         7
51.420        27
51.430        27
51.440        33
51.450        13
51.460        20
51.470        33
51.480        27
51.490        40
51.500        27
51.510        33
51.520        20
51.530        20
51.540        13
51.550        27
51.560        33
51.570        20
51.580         7
51.590        33
51.600        13
51.610        53
51.620        27
51.630        53
51.640        33
51.650        27
51.660        47
51.670        40
51.680        33
51.690        40
51.700        40
51.710        27
51.720        40
51.730         7
51.740        27
51.750         7
51.760        13
51.770        20
51.780        40
51.790        33
51.800        47
51.810        27
51.820        33
51.830        20
51.840        47
51.850        13
51.860        27
51.870        40
51.880        33
51.890        33
51.900        60
51.910        33
51.920        47
51.930        33
51.940        27
51.950        27
51.960        40
51.970        40
51.980        40
51.990        40
52.000        27
52.010        27
52.020        20
52.030        33
52.040        13
52.050        47
52.060        33
52.070        27
52.080        47
52.090        47
52.100        40
52.110        53
52.120        27
52.130        27
52.140        40
52.150        60
52.160        40
52.170        47
52.180        33
52.190        33
52.200        73
52.210        33
52.220        53
52.230        33
52.240        40
52.250        47
52.260        33
52.270        53
52.280         7
52.290        20
52.300        53
52.310        40
52.320        27
52.330        40
52.340        33
52.350        33
52.360        47
52.370        53
52.380        80
52.390        27
52.400        53
52.410        73
52.420        27
52.430        27
52.440        47
52.450        20
52.460        20
52.470        60
52.480        47
52.490        67
52.500        67
52.510        20
52.520        80
52.530        53
52.540        47
52.550        27
52.560        27
52.570        73
52.580        53
52.590        47
52.600        33
52.610        53
52.620        60
52.630        47
52.640        27
52.650        60
52.660        53
52.670        87
52.680        40
52.690        33
52.700        53
52.710        33
52.720        80
52.730        60
52.740        47
52.750        27
52.760        33
52.770        60
52.780        47
52.790        40
52.800        27
52.810        53
52.820        33
52.830        27
52.840        40
52.850        67
52.860        60
52.870        73
52.880        60
52.890        33
52.900        20
52.910        40
52.920        67
52.930        40
52.940        53
52.950        60
52.960        47
52.970        60
52.980        27
52.990        47
53.000        67
53.010        33
53.020        60
53.030        40
53.040        20
53.050        33
53.060        73
53.070        27
53.080        13
53.090        27
53.100        53
53.110        27
53.120        47
53.130        20
53.140        33
53.150        53
53.160        27
53.170        27
53.180        40
53.190        13
53.200        40
53.210        13
53.220        33
53.230        47
53.240        40
53.250        53
53.260        33
53.270        20
53.280        33
53.290        47
53.300        33
53.310        33
53.320        40
53.330        53
53.340        40
53.350        53
53.360        60
53.370        27
53.380        60
53.390        13
53.400        27
53.410        47
53.420        40
53.430        47
53.440        60
53.450        13
53.460        47
53.470        33
53.480        33
53.490         7
53.500        20
53.510        33
53.520        27
53.530        13
53.540        20
53.550        27
53.560        13
53.570        40
53.580        47
53.590        20
53.600        33
53.610        13
53.620        20
53.630        33
53.640        33
53.650        13
53.660        13
53.670        27
53.680        27
53.690         7
53.700        33
53.710         7
53.720        47
53.730        33
53.740         0
53.750        27
53.760        13
53.770        20
53.780        40
53.790        27
53.800        33
53.810        20
53.820        20
53.830        20
53.840        33
53.850        47
53.860        33
53.870        13
53.880        13
53.890        33
53.900        33
53.910        27
53.920        40
53.930         7
53.940        40
53.950        27
53.960        27
53.970         0
53.980        20
53.990        40
54.000        33
54.010        13
54.020        20
54.030        20
54.040        20
54.050         7
54.060        33
54.070        33
54.080        20
54.090        20
54.100        20
54.110         7
54.120        13
54.130        33
54.140        13
54.150        13
54.160        33
54.170         0
54.180        13
54.190         7
54.200        40
54.210        27
54.220         0
54.230        20
54.240        20
54.250        20
54.260        13
54.270        13
54.280        27
54.290        20
54.300         7
54.310        33
54.320        33
54.330        13
54.340        13
54.350         7
54.360        20
54.370        13
54.380        27
54.390        20
54.400        13
54.410         7
54.420        13
54.430        20
54.440        20
54.450        13
54.460        27
54.470        40
54.480        20
54.490        20
54.500        40
54.510        53
54.520        27
54.530        27
54.540        27
54.550        20
54.560        20
54.570        20
54.580        13
54.590        20
54.600        47
54.610        40
54.620        13
54.630        47
54.640        33
54.650        27
54.660        20
54.670        20
54.680        33
54.690         0
54.700        27
54.710         7
54.720        40
54.730        27
54.740        33
54.750        13
54.760        33
54.770        20
54.780        47
54.790         7
54.800         7
54.810        13
54.820        20
54.830        27
54.840         7
54.850        27
54.860        27
54.870        20
54.880         7
54.890        13
54.900         7
54.910        20
54.920        13
54.930        27
54.940        27
54.950        40
54.960        27
54.970        20
54.980        20
54.990        33
55.000        27
55.010        13
55.020        33
55.030         7
55.040        27
55.050        47
55.060        20
55.070        27
55.080        20
55.090        33
55.100        13
55.110        20
55.120        13
55.130        20
55.140         7
55.150        33
55.160        13
55.170         7
55.180        13
55.190        33
55.200        13
55.210        13
55.220         7
55.230        20
55.240        40
55.250        40
55.260        20
55.270        33
55.280        13
55.290        27
55.300         7
55.310         7
55.320        13
55.330        20
55.340        33
55.350         0
55.360        27
55.370         7
55.380        20
55.390         0
55.400        33
55.410        13
55.420        40
55.430        13
55.440        20
55.450        53
55.460        27
55.470        40
55.480        13
55.490        13
55.500        27
55.510        47
55.520        20
55.530        20
55.540        13
55.550         0
55.560        13
55.570        27
55.580        20
55.590        13
55.600        13
55.610        20
55.620         7
55.630        20
55.640        20
55.650         7
55.660        40
55.670        20
55.680        13
55.690        13
55.700        20
55.710        13
55.720         0
55.730        27
55.740        27
55.750        27
55.760        33
55.770        20
55.780        13
55.790        27
55.800         0
55.810         0
55.820        40
55.830        53
55.840        20
55.850        13
55.860        20
55.870        27
55.880        40
55.890         0
55.900        13
55.910        33
55.920        13
55.930        20
55.940        13
55.950        20
55.960        13
55.970        20
55.980        27
55.990        20
56.000        27
56.010        13
56.020        20
56.030        13
56.040         7
56.050        13
56.060        20
56.070        27
56.080        20
56.090        13
56.100        13
56.110         0
56.120        13
56.130        13
56.140         7
56.150         7
56.160        20
56.170        13
56.180        27
56.190        33
56.200        13
56.210        20
56.220        20
56.230        13
56.240        20
56.250        20
56.260        27
56.270        20
56.280        13
56.290        20
56.300        33
56.310         7
56.320         7
56.330        33
56.340         0
56.350        13
56.360        20
56.370        20
56.380        20
56.390         7
56.400        40
56.410        20
56.420        27
56.430        27
56.440        20
56.450         0
56.460        40
56.470        20
56.480        20
56.490        40
56.500        40
56.510         7
56.520        20
56.530        20
56.540        13
56.550        13
56.560        13
56.570         7
56.580        13
56.590        13
56.600        20
56.610         0
56.620        13
56.630         7
56.640        13
56.650        13
56.660        20
56.670        13
56.680         0
56.690        13
56.700        33
56.710        13
56.720         7
56.730        33
56.740        20
56.750         7
56.760        27
56.770        27
56.780         7
56.790         7
56.800        47
56.810         7
56.820         7
56.830        13
56.840        13
56.850        13
56.860        27
56.870         7
56.880         7
56.890        27
56.900        13
56.910         7
56.920        20
56.930        13
56.940        13
56.950        20
56.960        13
56.970        40
56.980        27
56.990        33
57.000        20
57.010         7
57.020        27
57.030        20
57.040        20
57.050        20
57.060        13
57.070         0
57.080        27
57.090        13
57.100        20
57.110        20
57.120        20
57.130        33
57.140        13
57.150        27
57.160         7
57.170        20
57.180        27
57.190        13
57.200        20
57.210        20
57.220        13
57.230        13
57.240         7
57.250        20
57.260        13
57.270        27
57.280        20
57.290        13
57.300        27
57.310        20
57.320        27
57.330        27
57.340        20
57.350        20
57.360        13
57.370         0
57.380        20
57.390         0
57.400        20
57.410        13
57.420        13
57.430        20
57.440        13
57.450         7
57.460        33
57.470        27
57.480        27
57.490         0
57.500         7
57.510        27
57.520        13
57.530        27
57.540        13
57.550         7
57.560        33
57.570        20
57.580        20
57.590         7
57.600         7
57.610        13
57.620        33
57.630        20
57.640        20
57.650        27
57.660        13
57.670        20
57.680        20
57.690        13
57.700        27
57.710         7
57.720        27
57.730        13
57.740        27
57.750         7
57.760        13
57.770        27
57.780        33
57.790        33
57.800        33
57.810        47
57.820        40
57.830        13
57.840        27
57.850        33
57.860        33
57.870        20
57.880        20
57.890        27
57.900        20
57.910        33
57.920        47
57.930        20
57.940        13
57.950        20
57.960        53
57.970        20
57.980        13
57.990        27
58.000        27
58.010         7
58.020        33
58.030        13
58.040        27
58.050        20
58.060        13
58.070        27
58.080        27
58.090         7
58.100         7
58.110        13
58.120        20
58.130         7
58.140         7
58.150        33
58.160         7
58.170        13
58.180        20
58.190        20
58.200        13
58.210         7
58.220         7
58.230         7
58.240         7
58.250        13
58.260        27
58.270        20
58.280         7
58.290        13
58.300         0
58.310        27
58.320         7
58.330         0
58.340        13
58.350        20
58.360         7
58.370        20
58.380        27
58.390        27
58.400        13
58.410        13
58.420        13
58.430        27
58.440        20
58.450         7
58.460        20
58.470         7
58.480        13
58.490        20
58.500        20
58.510         7
58.520        20
58.530        33
58.540        33
58.550         7
58.560        33
58.570         7
58.580         7
58.590         0
58.600        13
58.610        13
58.620        13
58.630        20
58.640         0
58.650        20
58.660        27
58.670        13
58.680        20
58.690        13
58.700        13
58.710        27
58.720        20
58.730        13
58.740        20
58.750        13
58.760         7
58.770        13
58.780        33
58.790        13
58.800         0
58.810        27
58.820        13
58.830        13
58.840        13
58.850        20
58.860         7
58.870        27
58.880        20
58.890        13
58.900         7
58.910        13
58.920         7
58.930        20
58.940         7
58.950         7
58.960         7
58.970        20
58.980        20
58.990        27
59.000        27
59.010        27
59.020        13
59.030        27
59.040         7
59.050         0
59.060         7
59.070         0
59.080        13
59.090        13
59.100        13
59.110         7
59.120         0
59.130         7
59.140        20
59.150        27
59.160         7
59.170        20
59.180         7
59.190         7
59.200        13
59.210        20
59.220        13
59.230        20
59.240        20
59.250        20
59.260        27
59.270        20
59.280         7
59.290        13
59.300        20
59.310        13
59.320         7
59.330        20
59.340        27
59.350        13
59.360         7
59.370         0
59.380        20
59.390        13
59.400        13
59.410        13
59.420        13
59.430        13
59.440        33
59.450        13
59.460        13
59.470         0
59.480        13
59.490        27
59.500        20
59.510        13
59.520         0
59.530        20
59.540        20
59.550        13
59.560        13
59.570         7
59.580        13
59.590         7
59.600        13
59.610        20
59.620        13
59.630         7
59.640        27
59.650         0
59.660         7
59.670        20
59.680        53
59.690         7
59.700         7
59.710        13
59.720         7
59.730        20
59.740         7
59.750         7
59.760        13
59.770        13
59.780        13
59.790         7
59.800        20
59.810        20
59.820        27
59.830        20
59.840         7
59.850        27
59.860         0
59.870        47
59.880         0
59.890         7
59.900        20
59.910        13
59.920         7
59.930         7
59.940        20
59.950        13
59.960         0
59.970        13
59.980         7
59.990         0
60.000         0
