20.000        33
20.020        33
20.040        40
20.060        33
20.080        47
20.100        23
20.120        73
20.140        40
20.160        17
20.180        37
20.200        67
20.220        60
20.240        30
20.260        63
20.280        27
20.300        43
20.320        20
20.340        57
20.360        47
20.380        57
20.400        43
20.420        50
20.440        53
20.460        47
20.480        37
20.500        40
20.520        30
20.540        43
20.560        33
20.580        53
20.600        40
20.620        30
20.640        27
20.660        33
20.680        33
20.700        53
20.720        30
20.740        33
20.760        23
20.780        33
20.800        43
20.820        40
20.840        40
20.860        50
20.880        30
20.900        17
20.920        60
20.940        50
20.960        40
20.980        50
21.000        37
21.020        13
21.040        33
21.060        37
21.080        47
21.100        33
21.120        33
21.140        33
21.160        33
21.180        43
21.200        27
21.220        57
21.240        40
21.260        30
21.280        43
21.300        33
21.320        20
21.340        33
21.360        33
21.380        23
21.400        53
21.420        47
21.440        33
21.460        30
21.480        43
21.500        37
21.520        37
21.540        63
21.560        57
21.580        53
21.600        30
21.620        20
21.640        63
21.660        37
21.680        57
21.700        40
21.720        43
21.740        53
21.760        27
21.780        33
21.800        37
21.820        17
21.840        53
21.860        17
21.880        43
21.900        50
21.920        47
21.940        33
21.960        37
21.980        60
22.000        43
22.020        43
22.040        57
22.060        57
22.080        63
22.100        57
22.120        47
22.140        73
22.160        53
22.180        67
22.200        40
22.220        60
22.240        50
22.260        77
22.280        87
22.300       117
22.320       113
22.340       123
22.360       100
22.380       123
22.400        83
22.420       137
22.440       123
22.460       137
22.480       127
22.500       153
22.520       133
22.540       137
22.560       147
22.580       193
22.600       140
22.620       193
22.640       163
22.660       147
22.680       137
22.700       173
22.720       173
22.740       147
22.760        93
22.780        87
22.800        93
22.820        90
22.840       103
22.860       100
22.880        87
22.900        67
22.920       107
22.940        63
22.960        80
22.980        67
23.000        83
23.020        50
23.040        73
23.060        67
23.080        37
23.100        70
23.120        60
23.140        23
23.160        63
23.180        50
23.200        40
23.220        50
23.240        77
23.260        43
23.280        43
23.300        40
23.320        40
23.340        60
23.360        57
23.380        30
23.400        60
23.420        43
23.440        57
23.460        50
23.480        50
23.500        53
23.520        77
23.540        33
23.560        37
23.580        43
23.600        33
23.620        37
23.640        63
23.660        47
23.680        20
23.700        33
23.720        37
23.740        67
23.760        53
23.780        20
23.800        37
23.820        37
23.840        37
23.860        47
23.880        47
23.900        47
23.920        47
23.940        40
23.960        70
23.980        53
24.000        50
24.020        60
24.040        37
24.060        43
24.080        43
24.100        47
24.120        53
24.140        27
24.160        50
24.180        60
24.200        27
24.220        47
24.240        27
24.260        47
24.280        30
24.300        50
24.320        30
24.340        33
24.360        33
24.380        33
24.400        30
24.420        30
24.440        47
24.460        57
24.480        40
24.500        30
24.520        43
24.540        40
24.560        30
24.580        43
24.600        50
24.620        40
24.640        40
24.660        30
24.680        50
24.700        53
24.720        43
24.740        23
24.760        50
24.780        50
24.800        33
24.820        43
24.840        43
24.860        40
24.880        37
24.900        53
24.920        27
24.940        40
24.960        43
24.980        47
25.000        33
25.020        30
25.040        30
25.060        33
25.080        30
25.100        30
25.120        40
25.140        30
25.160        23
25.180        53
25.200        23
25.220        40
25.240        27
25.260        40
25.280        37
25.300        27
25.320        33
25.340        53
25.360        27
25.380        30
25.400        23
25.420        27
25.440        20
25.460        47
25.480        27
25.500        37
25.520        47
25.540        30
25.560        40
25.580        33
25.600        27
25.620        37
25.640        47
25.660        47
25.680        40
25.700        47
25.720        37
25.740        60
25.760        57
25.780        33
25.800        40
25.820        30
25.840        33
25.860        37
25.880        27
25.900        40
25.920        23
25.940        30
25.960        53
25.980        33
26.000        23
26.020        37
26.040        37
26.060        47
26.080        20
26.100        37
26.120        23
26.140        33
26.160        30
26.180        50
26.200        40
26.220        37
26.240        60
26.260        33
26.280        23
26.300        30
26.320        30
26.340        23
26.360        27
26.380        27
26.400        30
26.420        50
26.440        40
26.460        33
26.480        27
26.500        47
26.520        17
26.540        13
26.560        17
26.580        27
26.600        33
26.620        33
26.640        40
26.660        27
26.680        27
26.700        50
26.720        23
26.740        37
26.760        37
26.780        20
26.800        40
26.820        37
26.840        27
26.860        30
26.880        30
26.900        33
26.920        17
26.940        30
26.960        33
26.980        17
27.000        27
27.020        30
27.040        30
27.060        40
27.080        30
27.100        23
27.120        40
27.140        17
27.160        23
27.180        40
27.200        17
27.220        33
27.240        37
27.260        13
27.280        30
27.300        33
27.320        50
27.340        37
27.360        30
27.380        27
27.400        30
27.420        33
27.440        53
27.460        40
27.480        43
27.500        23
27.520        23
27.540        33
27.560        37
27.580        33
27.600        27
27.620        17
27.640        30
27.660        27
27.680        20
27.700        23
27.720        23
27.740        30
27.760        23
27.780        37
27.800        23
27.820        33
27.840        33
27.860        23
27.880        30
27.900        40
27.920        23
27.940        27
27.960        33
27.980        37
28.000        27
28.020        27
28.040        43
28.060        37
28.080        30
28.100        30
28.120        47
28.140        13
28.160        20
28.180        33
28.200        20
28.220        13
28.240        27
28.260        40
28.280        30
28.300        23
28.320        20
28.340        40
28.360        17
28.380        27
28.400        27
28.420        30
28.440        23
28.460        33
28.480        30
28.500        27
28.520        33
28.540        33
28.560        40
28.580        27
28.600        17
28.620        13
28.640        17
28.660        27
28.680        27
28.700        30
28.720        30
28.740        33
28.760        53
28.780        30
28.800        33
28.820        43
28.840        30
28.860        37
28.880        33
28.900        43
28.920        17
28.940        23
28.960        23
28.980        53
29.000        40
29.020        33
29.040        37
29.060        37
29.080        27
29.100        37
29.120        17
29.140        50
29.160        47
29.180        30
29.200        37
29.220        30
29.240        30
29.260        20
29.280        17
29.300        37
29.320        20
29.340        53
29.360        40
29.380        37
29.400        33
29.420        23
29.440        43
29.460        40
29.480        37
29.500        33
29.520        20
29.540        23
29.560        20
29.580        37
29.600        23
29.620        20
29.640        27
29.660        23
29.680        33
29.700        30
29.720        20
29.740        27
29.760        37
29.780        50
29.800        27
29.820        37
29.840        23
29.860        17
29.880        27
29.900        30
29.920        23
29.940        40
29.960        20
29.980        17
30.000        23
30.020        30
30.040        33
30.060        37
30.080        27
30.100        37
30.120        33
30.140        17
30.160        40
30.180        10
30.200        27
30.220        23
30.240        17
30.260        30
30.280        17
30.300        30
30.320        20
30.340        17
30.360        37
30.380        13
30.400        17
30.420        17
30.440        27
30.460        23
30.480        37
30.500        17
30.520        30
30.540        23
30.560        10
30.580        17
30.600        27
30.620        27
30.640        23
30.660        30
30.680        30
30.700        37
30.720        17
30.740        27
30.760        13
30.780        40
30.800        30
30.820        13
30.840        17
30.860        13
30.880        27
30.900        20
30.920        10
30.940        13
30.960        27
30.980        30
31.000        23
31.020        23
31.040        17
31.060        27
31.080        20
31.100        33
31.120        27
31.140        23
31.160        23
31.180        47
31.200        17
31.220        30
31.240        30
31.260        43
31.280        23
31.300        23
31.320        33
31.340        37
31.360        23
31.380        47
31.400        17
31.420        33
31.440        47
31.460        27
31.480        33
31.500        37
31.520        33
31.540        37
31.560        37
31.580        27
31.600        27
31.620        33
31.640        17
31.660        37
31.680        33
31.700        57
31.720        47
31.740        37
31.760        27
31.780        53
31.800        47
31.820        43
31.840        53
31.860        33
31.880        77
31.900        77
31.920        53
31.940        53
31.960       103
31.980       103
32.000        73
32.020        97
32.040       120
32.060       137
32.080       117
32.100       117
32.120       163
32.140       187
32.160       160
32.180       147
32.200       197
32.220       207
32.240       213
32.260       163
32.280       187
32.300       200
32.320       180
32.340       243
32.360       237
32.380       243
32.400       233
32.420       210
32.440       247
32.460       197
32.480       170
32.500       187
32.520       150
32.540       127
32.560       143
32.580       107
32.600       147
32.620        70
32.640       123
32.660       110
32.680        70
32.700        77
32.720        83
32.740       100
32.760        70
32.780        67
32.800        73
32.820        47
32.840        57
32.860        50
32.880        63
32.900        23
32.920        50
32.940        37
32.960        43
32.980        27
33.000        53
33.020        20
33.040        43
33.060        40
33.080        33
33.100        30
33.120        30
33.140        33
33.160        27
33.180        40
33.200        13
33.220        13
33.240        47
33.260        30
33.280        33
33.300        13
33.320        27
33.340        30
33.360        30
33.380        33
33.400        17
33.420        23
33.440        23
33.460        47
33.480        10
33.500        10
33.520        13
33.540        30
33.560        23
33.580         7
33.600        27
33.620        27
33.640        23
33.660        23
33.680        30
33.700        10
33.720        20
33.740        37
33.760        30
33.780        27
33.800        33
33.820        27
33.840        30
33.860        43
33.880        20
33.900        20
33.920        27
33.940        30
33.960        30
33.980        17
34.000        23
34.020        30
34.040        30
34.060        17
34.080        17
34.100        30
34.120        27
34.140        43
34.160        23
34.180         7
34.200        27
34.220        20
34.240        20
34.260        20
34.280        23
34.300        20
34.320        20
34.340        13
34.360        20
34.380        20
34.400        17
34.420        13
34.440        20
34.460        33
34.480        17
34.500        20
34.520        10
34.540        20
34.560        23
34.580        20
34.600        20
34.620        27
34.640        27
34.660        30
34.680        17
34.700        23
34.720        20
34.740        10
34.760         7
34.780        40
34.800        23
34.820        23
34.840        30
34.860        20
34.880        10
34.900        17
34.920        17
34.940        23
34.960        17
34.980        23
35.000        13
35.020        20
35.040        17
35.060        23
35.080        27
35.100         7
35.120        10
35.140        13
35.160        23
35.180        10
35.200        20
35.220        17
35.240        27
35.260        17
35.280        10
35.300        17
35.320        20
35.340        30
35.360        20
35.380        33
35.400        23
35.420        10
35.440        20
35.460        20
35.480        17
35.500         7
35.520        23
35.540        10
35.560        37
35.580        23
35.600        20
35.620        20
35.640        30
35.660        20
35.680        30
35.700        30
35.720        27
35.740        23
35.760        30
35.780        33
35.800        30
35.820        17
35.840        27
35.860        17
35.880        17
35.900        27
35.920        17
35.940        43
35.960        20
35.980        33
36.000        23
36.020        13
36.040        20
36.060        20
36.080        33
36.100        27
36.120        10
36.140        10
36.160         3
36.180        13
36.200        30
36.220        27
36.240        30
36.260        27
36.280        17
36.300        20
36.320        17
36.340        30
36.360        30
36.380        13
36.400        23
36.420        40
36.440        10
36.460        17
36.480        20
36.500        13
36.520        13
36.540        37
36.560        20
36.580        13
36.600        17
36.620        27
36.640        17
36.660        23
36.680        27
36.700        17
36.720        13
36.740        23
36.760        23
36.780        17
36.800        13
36.820        13
36.840        10
36.860        13
36.880        13
36.900        10
36.920        20
36.940        23
36.960        30
36.980        23
37.000        13
37.020        10
37.040        30
37.060        17
37.080        13
37.100        13
37.120        17
37.140        13
37.160        10
37.180         7
37.200        10
37.220        33
37.240        10
37.260        10
37.280        20
37.300        23
37.320        27
37.340        33
37.360        23
37.380        23
37.400        23
37.420         7
37.440        27
37.460        10
37.480        40
37.500        13
37.520        13
37.540        27
37.560        20
37.580        37
37.600        23
37.620        17
37.640        10
37.660        23
37.680        10
37.700        37
37.720        10
37.740        13
37.760        13
37.780        27
37.800        17
37.820        23
37.840        10
37.860        27
37.880        17
37.900        10
37.920        20
37.940        53
37.960        30
37.980        23
38.000        10
38.020        10
38.040         7
38.060        20
38.080        37
38.100        13
38.120        17
38.140        20
38.160        23
38.180        40
38.200        30
38.220        27
38.240        23
38.260        17
38.280         7
38.300        27
38.320        10
38.340        37
38.360        17
38.380        20
38.400        20
38.420        23
38.440        27
38.460        20
38.480        43
38.500        27
38.520        33
38.540        17
38.560        33
38.580        30
38.600        23
38.620        13
38.640        17
38.660        17
38.680        50
38.700        27
38.720        10
38.740        20
38.760        40
38.780        17
38.800        20
38.820         7
38.840        37
38.860        17
38.880        40
38.900        10
38.920        17
38.940        17
38.960        17
38.980        20
39.000        20
39.020        20
39.040        13
39.060        10
39.080        23
39.100        27
39.120        33
39.140        30
39.160        33
39.180        20
39.200        27
39.220        13
39.240        17
39.260        30
39.280        30
39.300        20
39.320        23
39.340        23
39.360        30
39.380        13
39.400        17
39.420        23
39.440        33
39.460        20
39.480        27
39.500        13
39.520        30
39.540        30
39.560        17
39.580        20
39.600        17
39.620        30
39.640        23
39.660        23
39.680        33
39.700        27
39.720        17
39.740         7
39.760        20
39.780        17
39.800        13
39.820        33
39.840        20
39.860        30
39.880        33
39.900        27
39.920        30
39.940        23
39.960        27
39.980        30
40.000        23
40.020        20
40.040        13
40.060        40
40.080        33
40.100        37
40.120        17
40.140        13
40.160        27
40.180        33
40.200        30
40.220        37
40.240        23
40.260        17
40.280        23
40.300        20
40.320        23
40.340        40
40.360        33
40.380        27
40.400        37
40.420        13
40.440        27
40.460        20
40.480        30
40.500        27
40.520        30
40.540        17
40.560        23
40.580        17
40.600        27
40.620        10
40.640        17
40.660        30
40.680        27
40.700         7
40.720        17
40.740        30
40.760        17
40.780        23
40.800        40
40.820        23
40.840        17
40.860        10
40.880        30
40.900        27
40.920        13
40.940        13
40.960        13
40.980        43
41.000        20
41.020        23
41.040        23
41.060        23
41.080        10
41.100        57
41.120        23
41.140        47
41.160        30
41.180        20
41.200        30
41.220        27
41.240        20
41.260        23
41.280        20
41.300        27
41.320        23
41.340        20
41.360        17
41.380        43
41.400        20
41.420        37
41.440        23
41.460        40
41.480        20
41.500        33
41.520        37
41.540        40
41.560        27
41.580        23
41.600        27
41.620        20
41.640        23
41.660        23
41.680        27
41.700        50
41.720        20
41.740        20
41.760        27
41.780        20
41.800        37
41.820        17
41.840        10
41.860        30
41.880        27
41.900        23
41.920        33
41.940        20
41.960        37
41.980        30
42.000        13
42.020        13
42.040        27
42.060        40
42.080        13
42.100        17
42.120        20
42.140        17
42.160        33
42.180        27
42.200        20
42.220        23
42.240        27
42.260        20
42.280        17
42.300        43
42.320        50
42.340        33
42.360        10
42.380        33
42.400        20
42.420        37
42.440        33
42.460        17
42.480        13
42.500        23
42.520        27
42.540        23
42.560        20
42.580        27
42.600        23
42.620        27
42.640        20
42.660        27
42.680        17
42.700        23
42.720        20
42.740        17
42.760        20
42.780        33
42.800        33
42.820        47
42.840        30
42.860        27
42.880        43
42.900        30
42.920        17
42.940        27
42.960        30
42.980        23
43.000        30
43.020        33
43.040        43
43.060        13
43.080        27
43.100        27
43.120        17
43.140        33
43.160        37
43.180        33
43.200        37
43.220        33
43.240        20
43.260        17
43.280        50
43.300        30
43.320        27
43.340        27
43.360        17
43.380        30
43.400        23
43.420        40
43.440        33
43.460         3
43.480        13
43.500        27
43.520        53
43.540        43
43.560        37
43.580        23
43.600        30
43.620        23
43.640        40
43.660        17
43.680        27
43.700        33
43.720        50
43.740        43
43.760        37
43.780        30
43.800        23
43.820        33
43.840        20
43.860        53
43.880        17
43.900        30
43.920        50
43.940        37
43.960        23
43.980        20
44.000        33
44.020        27
44.040        40
44.060        50
44.080        37
44.100        57
44.120        43
44.140        57
44.160        40
44.180        43
44.200        23
44.220        60
44.240        40
44.260        57
44.280        50
44.300        67
44.320        57
44.340        77
44.360        77
44.380        67
44.400        53
44.420        37
44.440        53
44.460        70
44.480        37
44.500        57
44.520        37
44.540        40
44.560        57
44.580        77
44.600        70
44.620        80
44.640        60
44.660        63
44.680        73
44.700        67
44.720        83
44.740        67
44.760        73
44.780       110
44.800        80
44.820        63
44.840        83
44.860       100
44.880       127
44.900       150
44.920       100
44.940       120
44.960       110
44.980        93
45.000       160
45.020       130
45.040       150
45.060       137
45.080       150
45.100       120
45.120       160
45.140       157
45.160       147
45.180       160
45.200       193
45.220       190
45.240       207
45.260       203
45.280       253
45.300       243
45.320       313
45.340       257
45.360       300
45.380       320
45.400       290
45.420       373
45.440       367
45.460       357
45.480       420
45.500       436
45.520       483
45.540       493
45.560       570
45.580       540
45.600       570
45.620       633
45.640       730
45.660       696
45.680       796
45.700       766
45.720       776
45.740       830
45.760       973
45.780       896
45.800      1090
45.820      1016
45.840      1123
45.860      1100
45.880      1243
45.900      1200
45.920      1316
45.940      1419
45.960      1349
45.980      1259
46.000      1379
46.020      1339
46.040      1363
46.060      1379
46.080      1319
46.100      1236
46.120      1453
46.140      1443
46.160      1399
46.180      1369
46.200      1233
46.220      1289
46.240      1246
46.260      1250
46.280      1196
46.300      1180
46.320      1133
46.340      1053
46.360      1133
46.380      1003
46.400      1006
46.420       940
46.440       933
46.460       930
46.480       763
46.500       890
46.520       770
46.540       673
46.560       670
46.580       680
46.600       580
46.620       583
46.640       546
46.660       556
46.680       510
46.700       546
46.720       453
46.740       417
46.760       410
46.780       347
46.800       400
46.820       380
46.840       290
46.860       363
46.880       327
46.900       287
46.920       297
46.940       270
46.960       227
46.980       210
47.000       197
47.020       277
47.040       223
47.060       183
47.080       183
47.100       180
47.120       187
47.140       157
47.160       160
47.180       143
47.200       150
47.220       153
47.240       157
47.260       123
47.280       107
47.300       117
47.320       100
47.340       120
47.360        90
47.380       167
47.400       130
47.420       107
47.440        90
47.460       103
47.480       100
47.500       130
47.520       137
47.540       117
47.560        77
47.580        83
47.600        67
47.620        97
47.640        60
47.660       103
47.680        80
47.700        53
47.720        47
47.740        83
47.760        67
47.780        70
47.800        50
47.820        57
47.840        57
47.860        77
47.880        37
47.900        53
47.920        53
47.940        33
47.960        70
47.980        43
48.000        50
48.020        57
48.040        50
48.060        70
48.080        40
48.100        60
48.120        63
48.140        27
48.160        43
48.180        53
48.200        40
48.220        33
48.240        33
48.260        53
48.280        47
48.300        60
48.320        30
48.340        50
48.360        77
48.380        30
48.400        30
48.420        63
48.440        57
48.460        70
48.480        67
48.500        43
48.520        57
48.540        47
48.560        47
48.580        43
48.600        47
48.620        40
48.640        77
48.660        47
48.680        53
48.700        20
48.720        50
48.740        23
48.760        30
48.780        47
48.800        20
48.820        33
48.840        73
48.860        37
48.880        47
48.900        23
48.920        50
48.940        67
48.960        60
48.980        30
49.000        50
49.020        33
49.040        33
49.060        50
49.080        37
49.100        33
49.120        30
49.140        40
49.160        40
49.180        27
49.200        27
49.220        40
49.240        27
49.260        43
49.280        37
49.300        47
49.320        47
49.340        30
49.360        43
49.380        23
49.400        50
49.420        57
49.440        20
49.460        53
49.480        53
49.500        53
49.520        50
49.540        53
49.560        53
49.580        30
49.600        27
49.620        37
49.640        27
49.660        53
49.680        30
49.700        67
49.720        43
49.740        37
49.760        27
49.780        20
49.800        30
49.820        50
49.840        33
49.860        47
49.880        37
49.900        30
49.920        43
49.940        27
49.960        37
49.980        27
50.000        20
50.020        33
50.040        37
50.060        43
50.080        40
50.100        17
50.120        47
50.140        27
50.160        37
50.180        23
50.200        23
50.220        30
50.240        30
50.260        23
50.280        20
50.300        27
50.320        33
50.340        43
50.360        30
50.380        27
50.400        20
50.420        40
50.440        23
50.460        43
50.480        17
50.500        47
50.520        40
50.540        30
50.560        23
50.580        27
50.600        33
50.620        30
50.640        30
50.660        33
50.680        17
50.700        47
50.720        17
50.740        30
50.760        33
50.780        23
50.800        37
50.820        30
50.840        20
50.860        30
50.880        13
50.900        23
50.920        43
50.940        47
50.960        40
50.980        27
51.000        43
51.020        23
51.040        27
51.060        23
51.080         7
51.100        43
51.120        30
51.140        33
51.160        40
51.180        33
51.200        37
51.220        23
51.240        33
51.260        33
51.280        40
51.300        37
51.320        37
51.340        47
51.360        27
51.380        37
51.400        47
51.420        37
51.440        43
51.460        33
51.480        23
51.500        43
51.520        40
51.540        27
51.560        23
51.580        47
51.600        40
51.620        23
51.640        47
51.660        17
51.680        37
51.700        50
51.720        37
51.740        43
51.760        37
51.780        27
51.800        33
51.820        57
51.840        27
51.860        23
51.880        50
51.900        33
51.920        27
51.940        33
51.960        37
51.980        57
52.000        43
52.020        33
52.040        43
52.060        53
52.080        57
52.100        43
52.120        40
52.140        27
52.160        27
52.180        47
52.200        37
52.220        47
52.240        50
52.260        50
52.280        43
52.300        33
52.320        53
52.340        50
52.360        67
52.380        40
52.400        57
52.420        47
52.440        47
52.460        77
52.480        40
52.500        37
52.520        27
52.540        37
52.560       110
52.580       103
52.600        83
52.620        73
52.640        80
52.660        70
52.680        43
52.700        53
52.720        67
52.740        70
52.760        60
52.780        93
52.800        83
52.820        37
52.840        53
52.860        50
52.880        63
52.900        47
52.920        43
52.940        70
52.960        47
52.980        63
53.000        30
53.020        43
53.040        43
53.060        43
53.080        40
53.100        37
53.120        53
53.140        23
53.160        23
53.180        40
53.200        47
53.220        50
53.240        53
53.260        37
53.280        40
53.300        47
53.320        23
53.340        30
53.360        40
53.380        27
53.400        37
53.420        63
53.440        47
53.460        37
53.480        33
53.500        13
53.520        43
53.540        30
53.560        30
53.580        20
53.600        30
53.620        17
53.640        40
53.660        30
53.680        20
53.700        30
53.720        23
53.740        30
53.760        30
53.780        33
53.800        37
53.820        27
53.840        17
53.860        30
53.880        40
53.900        37
53.920        27
53.940        33
53.960        47
53.980        43
54.000        37
54.020        33
54.040        20
54.060        23
54.080        27
54.100        17
54.120        20
54.140        17
54.160        23
54.180        30
54.200        27
54.220        20
54.240        17
54.260        40
54.280        37
54.300        23
54.320        17
54.340        27
54.360        43
54.380        30
54.400        33
54.420        30
54.440        20
54.460        13
54.480        40
54.500        23
54.520        43
54.540        27
54.560        30
54.580         7
54.600        50
54.620         7
54.640        27
54.660        23
54.680        40
54.700        27
54.720        33
54.740        13
54.760        20
54.780        40
54.800        30
54.820        17
54.840        30
54.860        33
54.880        13
54.900        37
54.920        33
54.940        17
54.960        27
54.980        27
55.000        23
55.020        27
55.040        27
55.060        17
55.080        33
55.100        37
55.120        17
55.140        33
55.160        20
55.180         7
55.200        20
55.220        20
55.240        17
55.260        17
55.280        27
55.300        17
55.320        20
55.340        27
55.360        17
55.380        17
55.400        13
55.420        43
55.440        23
55.460        20
55.480        20
55.500        10
55.520        30
55.540        10
55.560        27
55.580        30
55.600        20
55.620        20
55.640        20
55.660        23
55.680        20
55.700        13
55.720        13
55.740        13
55.760        20
55.780        17
55.800        23
55.820        27
55.840        13
55.860        17
55.880        17
55.900        17
55.920        27
55.940        17
55.960        77
55.980        10
56.000        30
56.020        27
56.040        33
56.060        17
56.080        30
56.100        17
56.120        13
56.140        13
56.160        17
56.180        23
56.200        17
56.220        13
56.240        20
56.260        13
56.280        20
56.300        33
56.320        20
56.340        20
56.360        13
56.380        27
56.400        33
56.420        17
56.440        23
56.460        20
56.480        13
56.500        33
56.520        40
56.540        17
56.560        17
56.580        17
56.600        13
56.620        33
56.640        27
56.660        10
56.680         7
56.700        20
56.720        27
56.740        10
56.760        27
56.780        10
56.800        17
56.820        17
56.840        13
56.860        17
56.880        30
56.900        13
56.920        33
56.940        20
56.960        30
56.980        17
57.000        27
57.020         7
57.040        13
57.060        17
57.080        10
57.100        27
57.120        23
57.140        27
57.160        20
57.180         7
57.200        17
57.220        33
57.240        43
57.260        23
57.280        27
57.300        23
57.320        17
57.340        20
57.360        30
57.380        10
57.400        27
57.420        30
57.440        50
57.460        27
57.480        30
57.500        33
57.520        23
57.540        27
57.560        20
57.580        23
57.600         7
57.620        37
57.640        10
57.660        17
57.680        27
57.700        17
57.720         7
57.740        27
57.760        23
57.780        23
57.800        17
57.820        20
57.840        17
57.860        13
57.880        20
57.900        37
57.920        40
57.940        43
57.960        10
57.980        27
58.000        10
58.020        33
58.040        17
58.060        30
58.080        13
58.100        20
58.120        20
58.140        17
58.160        27
58.180        20
58.200        23
58.220        13
58.240        27
58.260        13
58.280        13
58.300        13
58.320        20
58.340        17
58.360         3
58.380        20
58.400        13
58.420        33
58.440        13
58.460        13
58.480        17
58.500        23
58.520        10
58.540        17
58.560        17
58.580        13
58.600        30
58.620         7
58.640        27
58.660        23
58.680        30
58.700        13
58.720        10
58.740        17
58.760        23
58.780        23
58.800        20
58.820        27
58.840        30
58.860        17
58.880        23
58.900         7
58.920        10
58.940        10
58.960        17
58.980         7
59.000        33
59.020        33
59.040        17
59.060        13
59.080        13
59.100        20
59.120        30
59.140        17
59.160        17
59.180        13
59.200         7
59.220        13
59.240        17
59.260        13
59.280        33
59.300        17
59.320        23
59.340        30
59.360        13
59.380        17
59.400        10
59.420        13
59.440        20
59.460        27
59.480        10
59.500        20
59.520        30
59.540        23
59.560        10
59.580        10
59.600        33
59.620        10
59.640        20
59.660        23
59.680        20
59.700        30
59.720        23
59.740        17
59.760        23
59.780        13
59.800        30
59.820        17
59.840        10
59.860        30
59.880        30
59.900        23
59.920         7
59.940        23
59.960        10
59.980        23
60.000        27
