20.000         7
20.010         7
20.020        53
20.030        47
20.040        60
20.050        67
20.060        93
20.070        47
20.080        60
20.090        33
20.100        53
20.110        53
20.120        67
20.130        33
20.140        40
20.150       100
20.160        47
20.170        13
20.180        47
20.190        13
20.200        67
20.210        40
20.220        40
20.230        53
20.240        53
20.250        80
20.260        67
20.270        47
20.280        67
20.290        20
20.300        60
20.310        53
20.320        47
20.330        80
20.340        73
20.350        33
20.360        53
20.370        93
20.380        67
20.390        33
20.400        53
20.410        40
20.420        60
20.430        67
20.440        33
20.450        53
20.460        40
20.470        47
20.480        60
20.490        47
20.500        47
20.510        47
20.520        53
20.530        67
20.540        67
20.550        73
20.560        53
20.570        40
20.580        40
20.590        47
20.600        60
20.610        60
20.620        73
20.630        33
20.640        67
20.650        47
20.660        87
20.670         7
20.680        20
20.690        73
20.700        33
20.710        33
20.720        53
20.730        40
20.740        47
20.750        67
20.760        47
20.770        73
20.780        67
20.790        60
20.800        60
20.810        27
20.820        20
20.830        67
20.840       100
20.850        33
20.860        73
20.870        53
20.880        40
20.890        33
20.900        33
20.910        60
20.920        20
20.930        33
20.940        60
20.950        33
20.960        27
20.970        60
20.980        27
20.990        47
21.000        47
21.010        87
21.020        40
21.030        67
21.040        73
21.050        40
21.060        60
21.070        27
21.080        60
21.090       113
21.100        33
21.110        53
21.120        47
21.130        80
21.140        40
21.150        40
21.160        47
21.170        47
21.180        53
21.190        60
21.200        47
21.210        93
21.220        53
21.230        40
21.240        40
21.250        87
21.260        80
21.270        73
21.280        13
21.290        20
21.300        60
21.310        27
21.320        73
21.330        60
21.340        27
21.350        67
21.360        60
21.370        13
21.380        60
21.390        33
21.400        53
21.410        40
21.420        67
21.430        40
21.440        33
21.450        60
21.460        47
21.470        60
21.480        60
21.490        33
21.500        80
21.510        40
21.520        33
21.530        73
21.540        47
21.550        40
21.560        67
21.570        27
21.580       100
21.590        53
21.600        20
21.610        53
21.620        40
21.630        20
21.640        67
21.650        67
21.660        73
21.670        27
21.680        20
21.690        53
21.700        60
21.710        47
21.720        80
21.730        60
21.740        47
21.750        47
21.760        67
21.770        47
21.780        47
21.790        80
21.800        20
21.810        60
21.820        60
21.830        40
21.840        67
21.850        47
21.860        33
21.870        47
21.880        67
21.890        67
21.900        47
21.910        53
21.920        53
21.930        53
21.940        60
21.950        27
21.960        60
21.970        40
21.980        47
21.990        40
22.000        33
22.010        53
22.020        13
22.030        53
22.040        33
22.050        67
22.060        47
22.070        53
22.080        60
22.090        47
22.100        60
22.110        47
22.120        40
22.130        67
22.140       107
22.150        47
22.160        47
22.170        53
22.180        73
22.190       127
22.200        87
22.210        60
22.220        60
22.230        40
22.240        53
22.250        93
22.260        73
22.270        53
22.280        60
22.290       100
22.300        93
22.310        60
22.320        40
22.330        60
22.340        60
22.350        93
22.360        60
22.370        53
22.380        87
22.390       107
22.400        93
22.410        87
22.420       100
22.430       133
22.440       120
22.450       140
22.460       127
22.470       160
22.480       113
22.490       193
22.500       180
22.510       140
22.520       193
22.530       107
22.540       167
22.550       233
22.560       180
22.570       127
22.580       100
22.590       147
22.600       153
22.610       133
22.620       180
22.630       167
22.640       120
22.650       173
22.660       147
22.670       133
22.680        87
22.690       173
22.700       153
22.710       173
22.720       147
22.730       160
22.740       187
22.750       180
22.760       140
22.770       193
22.780       107
22.790       133
22.800       140
22.810        87
22.820       200
22.830       193
22.840       120
22.850       120
22.860        47
22.870       107
22.880       120
22.890       133
22.900        93
22.910        80
22.920       113
22.930       113
22.940        73
22.950        40
22.960        33
22.970        67
22.980        73
22.990        53
23.000        67
23.010        60
23.020        27
23.030        53
23.040        40
23.050        87
23.060        73
23.070        67
23.080        60
23.090        40
23.100        13
23.110        27
23.120        47
23.130        87
23.140        27
23.150        67
23.160        33
23.170        40
23.180        80
23.190        53
23.200        53
23.210        13
23.220        60
23.230        13
23.240        20
23.250        47
23.260        20
23.270        47
23.280       100
23.290        67
23.300        73
23.310        40
23.320        73
23.330        40
23.340        80
23.350        53
23.360        47
23.370        53
23.380        53
23.390        73
23.400        47
23.410        60
23.420        60
23.430        60
23.440        40
23.450        73
23.460        40
23.470        53
23.480        20
23.490        53
23.500        40
23.510        33
23.520        53
23.530        33
23.540        27
23.550        20
23.560        40
23.570        33
23.580        60
23.590        47
23.600        33
23.610        47
23.620        20
23.630        60
23.640        13
23.650        33
23.660        20
23.670        53
23.680        53
23.690        47
23.700        60
23.710        60
23.720        67
23.730        67
23.740        67
23.750        40
23.760        20
23.770        73
23.780         7
23.790        27
23.800        73
23.810        20
23.820       100
23.830        47
23.840        27
23.850        47
23.860        20
23.870        33
23.880        33
23.890        13
23.900        40
23.910        73
23.920        47
23.930        53
23.940        33
23.950        40
23.960        73
23.970        33
23.980        40
23.990        27
24.000        53
24.010        27
24.020        27
24.030        27
24.040        40
24.050        67
24.060        33
24.070        20
24.080        53
24.090        40
24.100        33
24.110        67
24.120        33
24.130        13
24.140        40
24.150        60
24.160        20
24.170        47
24.180         7
24.190        40
24.200        47
24.210        73
24.220        67
24.230        53
24.240        40
24.250        40
24.260        53
24.270        60
24.280        47
24.290        53
24.300        53
24.310        47
24.320        33
24.330         7
24.340        60
24.350        47
24.360        20
24.370        33
24.380        47
24.390        33
24.400        33
24.410        67
24.420        67
24.430        33
24.440        60
24.450        73
24.460        40
24.470        73
24.480        33
24.490        73
24.500        47
24.510        40
24.520        67
24.530        40
24.540        27
24.550        40
24.560        33
24.570        60
24.580        60
24.590        73
24.600        33
24.610        33
24.620        33
24.630        33
24.640        20
24.650        33
24.660        80
24.670        67
24.680        20
24.690        40
24.700        53
24.710        53
24.720        33
24.730        80
24.740        27
24.750        67
24.760        53
24.770        73
24.780        47
24.790        73
24.800        60
24.810        53
24.820        53
24.830        73
24.840        80
24.850        73
24.860       107
24.870        27
24.880        87
24.890        40
24.900        60
24.910        67
24.920       133
24.930        87
24.940        53
24.950        73
24.960       100
24.970        87
24.980        80
24.990        60
25.000        93
25.010        80
25.020        80
25.030        87
25.040        67
25.050        87
25.060       147
25.070        93
25.080        93
25.090        60
25.100        93
25.110        73
25.120       100
25.130        73
25.140        93
25.150        53
25.160        80
25.170       107
25.180       113
25.190        67
25.200        87
25.210        73
25.220        40
25.230        80
25.240        60
25.250        80
25.260        60
25.270        80
25.280        80
25.290        73
25.300        53
25.310        87
25.320        60
25.330        60
25.340        73
25.350        80
25.360        73
25.370        40
25.380        73
25.390       107
25.400       100
25.410        80
25.420        67
25.430        33
25.440        47
25.450        73
25.460        53
25.470        47
25.480        60
25.490        47
25.500        60
25.510        27
25.520        73
25.530        53
25.540        67
25.550        60
25.560        67
25.570        53
25.580        87
25.590        47
25.600        67
25.610        87
25.620       100
25.630        80
25.640        53
25.650        73
25.660        53
25.670        80
25.680        80
25.690        67
25.700        40
25.710        73
25.720        33
25.730        47
25.740        33
25.750        40
25.760        47
25.770        47
25.780        73
25.790        33
25.800        40
25.810        47
25.820        67
25.830        40
25.840        47
25.850        33
25.860        60
25.870        40
25.880        47
25.890        40
25.900        53
25.910        53
25.920        33
25.930        47
25.940        67
25.950        93
25.960        60
25.970        53
25.980        33
25.990        33
26.000        40
26.010        67
26.020        40
26.030        53
26.040       100
26.050        40
26.060        27
26.070        67
26.080        53
26.090        60
26.100        20
26.110        47
26.120        47
26.130       100
26.140        53
26.150        53
26.160        60
26.170        60
26.180        67
26.190        33
26.200        33
26.210        60
26.220        40
26.230        40
26.240        53
26.250        47
26.260        60
26.270        80
26.280         7
26.290       113
26.300        60
26.310        47
26.320        67
26.330        67
26.340        53
26.350        67
26.360        40
26.370        73
26.380        47
26.390        60
26.400        40
26.410        40
26.420        40
26.430        47
26.440        53
26.450        40
26.460       100
26.470        40
26.480        40
26.490       127
26.500        60
26.510        73
26.520        87
26.530        53
26.540        73
26.550        73
26.560        53
26.570        73
26.580       127
26.590        87
26.600        73
26.610        80
26.620        87
26.630        73
26.640       120
26.650       113
26.660        80
26.670        93
26.680       120
26.690        73
26.700        80
26.710        80
26.720        87
26.730       120
26.740        60
26.750       100
26.760       107
26.770        80
26.780        73
26.790       140
26.800       127
26.810        60
26.820        87
26.830        33
26.840       107
26.850        53
26.860        53
26.870        87
26.880       100
26.890       100
26.900        80
26.910       100
26.920        87
26.930        67
26.940        60
26.950        73
26.960       113
26.970       100
26.980        73
26.990        40
27.000        80
27.010        53
27.020        73
27.030        53
27.040        93
27.050        53
27.060        67
27.070        87
27.080        47
27.090        87
27.100        67
27.110        33
27.120        20
27.130        67
27.140       100
27.150       113
27.160        27
27.170        33
27.180        80
27.190        53
27.200        87
27.210        33
27.220        60
27.230        47
27.240        60
27.250        73
27.260        47
27.270        20
27.280        20
27.290        67
27.300        67
27.310        67
27.320        33
27.330        27
27.340        80
27.350        53
27.360        27
27.370        53
27.380        33
27.390        33
27.400        47
27.410        47
27.420        87
27.430        53
27.440        27
27.450        53
27.460        27
27.470        60
27.480        53
27.490        53
27.500        73
27.510        40
27.520        40
27.530        47
27.540        33
27.550        53
27.560        40
27.570        80
27.580        40
27.590        20
27.600        47
27.610        27
27.620        40
27.630        13
27.640        53
27.650        80
27.660        47
27.670        33
27.680        40
27.690        47
27.700        33
27.710        60
27.720        27
27.730        53
27.740        67
27.750        47
27.760        67
27.770        67
27.780        53
27.790        53
27.800        20
27.810        47
27.820        47
27.830        27
27.840        53
27.850        60
27.860        53
27.870        53
27.880        27
27.890        47
27.900        33
27.910        47
27.920        67
27.930        40
27.940        33
27.950        47
27.960       100
27.970        40
27.980        33
27.990        40
28.000        73
28.010        33
28.020        20
28.030        40
28.040        40
28.050        47
28.060        47
28.070        73
28.080        40
28.090        67
28.100        40
28.110        47
28.120        60
28.130        60
28.140        27
28.150        47
28.160        67
28.170        60
28.180        53
28.190        33
28.200        47
28.210        20
28.220        40
28.230        33
28.240        80
28.250        73
28.260        53
28.270        40
28.280        60
28.290        47
28.300        27
28.310        53
28.320        33
28.330        40
28.340        47
28.350        33
28.360        53
28.370        67
28.380       100
28.390        67
28.400        73
28.410        80
28.420        47
28.430        47
28.440        67
28.450        27
28.460        67
28.470        67
28.480        27
28.490        53
28.500        53
28.510        60
28.520        53
28.530        60
28.540        67
28.550        80
28.560        87
28.570        47
28.580        20
28.590        87
28.600        33
28.610        73
28.620       113
28.630        73
28.640        53
28.650        67
28.660       100
28.670        87
28.680        87
28.690        87
28.700       107
28.710       120
28.720       147
28.730       160
28.740       173
28.750       167
28.760       147
28.770       133
28.780       180
28.790       167
28.800       207
28.810       280
28.820       233
28.830       280
28.840       273
28.850       333
28.860       380
28.870       387
28.880       413
28.890       413
28.900       440
28.910       500
28.920       500
28.930       700
28.940       660
28.950       653
28.960       766
28.970       660
28.980      1040
28.990       966
29.000      1073
29.010      1046
29.020      1106
29.030      1293
29.040      1206
29.050      1253
29.060      1166
29.070      1286
29.080      1313
29.090      1206
29.100      1100
29.110      1126
29.120      1253
29.130      1140
29.140      1000
29.150       953
29.160       860
29.170       840
29.180       806
29.190       720
29.200       720
29.210       593
29.220       613
29.230       540
29.240       453
29.250       500
29.260       353
29.270       333
29.280       466
29.290       353
29.300       300
29.310       293
29.320       307
29.330       280
29.340       260
29.350       273
29.360       227
29.370       187
29.380       193
29.390       180
29.400       213
29.410       133
29.420       147
29.430       167
29.440       160
29.450       200
29.460       100
29.470       120
29.480       107
29.490       207
29.500       167
29.510        87
29.520       173
29.530        73
29.540        87
29.550       107
29.560       140
29.570       140
29.580        93
29.590       147
29.600       100
29.610       133
29.620        87
29.630        93
29.640       100
29.650       153
29.660       100
29.670       147
29.680       107
29.690        60
29.700        80
29.710        73
29.720        93
29.730       107
29.740       100
29.750        93
29.760        67
29.770        60
29.780       107
29.790        47
29.800        60
29.810       120
29.820        80
29.830        80
29.840       100
29.850        40
29.860       100
29.870       107
29.880       100
29.890        60
29.900        73
29.910       100
29.920        93
29.930        73
29.940       100
29.950        73
29.960        67
29.970        73
29.980        93
29.990        60
30.000        60
30.010        93
30.020        60
30.030        73
30.040       120
30.050        67
30.060        53
30.070        53
30.080       120
30.090        60
30.100        93
30.110        73
30.120        67
30.130        73
30.140        60
30.150       107
30.160        27
30.170        67
30.180        60
30.190        67
30.200        13
30.210        87
30.220        67
30.230        93
30.240        53
30.250        47
30.260        67
30.270        33
30.280        53
30.290        53
30.300        27
30.310        67
30.320        40
30.330        60
30.340       100
30.350        73
30.360        93
30.370        40
30.380        80
30.390        47
30.400        67
30.410        80
30.420        47
30.430        60
30.440        80
30.450        60
30.460        40
30.470        47
30.480        60
30.490        40
30.500        67
30.510        47
30.520        67
30.530        53
30.540        27
30.550        47
30.560        73
30.570        87
30.580        73
30.590        47
30.600        53
30.610        40
30.620        40
30.630        73
30.640        47
30.650        53
30.660        40
30.670        53
30.680        33
30.690        40
30.700        33
30.710        60
30.720        73
30.730        33
30.740        60
30.750        60
30.760        53
30.770        33
30.780        47
30.790        53
30.800        33
30.810        53
30.820        53
30.830        53
30.840       113
30.850        53
30.860        60
30.870        67
30.880        60
30.890        47
30.900        40
30.910        33
30.920        67
30.930        33
30.940        73
30.950        40
30.960        27
30.970        67
30.980        80
30.990        67
31.000        47
31.010        53
31.020        53
31.030        53
31.040        87
31.050        40
31.060        27
31.070        33
31.080        80
31.090        53
31.100        53
31.110        27
31.120        47
31.130        40
31.140        80
31.150        33
31.160        47
31.170        67
31.180        80
31.190        67
31.200        40
31.210        47
31.220        73
31.230        73
31.240       100
31.250        53
31.260        67
31.270        80
31.280        40
31.290        60
31.300        60
31.310        80
31.320        40
31.330        73
31.340        67
31.350        73
31.360        73
31.370        47
31.380        53
31.390        87
31.400        60
31.410        73
31.420        87
31.430        67
31.440        47
31.450        67
31.460        87
31.470        73
31.480        73
31.490        60
31.500        60
31.510        53
31.520        60
31.530        73
31.540        40
31.550        80
31.560        67
31.570        67
31.580        73
31.590        67
31.600        67
31.610        60
31.620        93
31.630        47
31.640        73
31.650        67
31.660        80
31.670        80
31.680        40
31.690        93
31.700        67
31.710        60
31.720        60
31.730        67
31.740        87
31.750        53
31.760        73
31.770        40
31.780        33
31.790        73
31.800        73
31.810        40
31.820        80
31.830        60
31.840        60
31.850        40
31.860        87
31.870        93
31.880        60
31.890        73
31.900        67
31.910        60
31.920        87
31.930        60
31.940        80
31.950        67
31.960        93
31.970        67
31.980       100
31.990        80
32.000        60
32.010        87
32.020        67
32.030       133
32.040       113
32.050        87
32.060       107
32.070       193
32.080       153
32.090       140
32.100        87
32.110       180
32.120       187
32.130       140
32.140       173
32.150       207
32.160       173
32.170       200
32.180       287
32.190       253
32.200       233
32.210       333
32.220       320
32.230       387
32.240       433
32.250       446
32.260       473
32.270       480
32.280       593
32.290       606
32.300       533
32.310       733
32.320       753
32.330       873
32.340       820
32.350       966
32.360       820
32.370       960
32.380      1040
32.390      1053
32.400      1180
32.410      1240
32.420      1200
32.430      1399
32.440      1226
32.450      1513
32.460      1273
32.470      1226
32.480      1306
32.490      1379
32.500      1140
32.510      1033
32.520      1033
32.530      1040
32.540       800
32.550       806
32.560       733
32.570       666
32.580       660
32.590       640
32.600       593
32.610       493
32.620       433
32.630       440
32.640       353
32.650       367
32.660       300
32.670       287
32.680       253
32.690       187
32.700       273
32.710       260
32.720       220
32.730       180
32.740       200
32.750       127
32.760       153
32.770       147
32.780       280
32.790       147
32.800       167
32.810       113
32.820       193
32.830       113
32.840       107
32.850       140
32.860       140
32.870       160
32.880       127
32.890       120
32.900       147
32.910       113
32.920       140
32.930        73
32.940        93
32.950       100
32.960        93
32.970        93
32.980        80
32.990        80
33.000       113
33.010        87
33.020       107
33.030       100
33.040        87
33.050        60
33.060        93
33.070        40
33.080       107
33.090        40
33.100        60
33.110        47
33.120        47
33.130        67
33.140        53
33.150        53
33.160        53
33.170       100
33.180        87
33.190        60
33.200        67
33.210        73
33.220        53
33.230       100
33.240        80
33.250        47
33.260        47
33.270        73
33.280        33
33.290        60
33.300        80
33.310        60
33.320        33
33.330        53
33.340        53
33.350        53
33.360        60
33.370        60
33.380        40
33.390        33
33.400        67
33.410        33
33.420        40
33.430        27
33.440        60
33.450        27
33.460        60
33.470        40
33.480        33
33.490        73
33.500        20
33.510        53
33.520        67
33.530        40
33.540        33
33.550        47
33.560        33
33.570        40
33.580        87
33.590        20
33.600        53
33.610        40
33.620        33
33.630        20
33.640        27
33.650        47
33.660        27
33.670        20
33.680        27
33.690       100
33.700        47
33.710        53
33.720        40
33.730        47
33.740        33
33.750        33
33.760        40
33.770        40
33.780        40
33.790        33
33.800        73
33.810        33
33.820        67
33.830         7
33.840        20
33.850        33
33.860        13
33.870        40
33.880        40
33.890        73
33.900        40
33.910        20
33.920        33
33.930        53
33.940        47
33.950        40
33.960        33
33.970        27
33.980        53
33.990        13
34.000        33
34.010        40
34.020        33
34.030        33
34.040        27
34.050        33
34.060        53
34.070        20
34.080        27
34.090        47
34.100        33
34.110        60
34.120        33
34.130        47
34.140        40
34.150        40
34.160        33
34.170        40
34.180        40
34.190        53
34.200        40
34.210        47
34.220        47
34.230        13
34.240        33
34.250        53
34.260        27
34.270        20
34.280        40
34.290        20
34.300        27
34.310        67
34.320        40
34.330        27
34.340        53
34.350        53
34.360        47
34.370        40
34.380        33
34.390        33
34.400        67
34.410        33
34.420        47
34.430        33
34.440        13
34.450        53
34.460        33
34.470        60
34.480        33
34.490        40
34.500        47
34.510        53
34.520        33
34.530        47
34.540        33
34.550        13
34.560        33
34.570        27
34.580        27
34.590         7
34.600        33
34.610        67
34.620        67
34.630        73
34.640        20
34.650        60
34.660        20
34.670        27
34.680        80
34.690        47
34.700        27
34.710        20
34.720        27
34.730        20
34.740        20
34.750        40
34.760        40
34.770        47
34.780         7
34.790        33
34.800        20
34.810         7
34.820        33
34.830        33
34.840        47
34.850        27
34.860        27
34.870        40
34.880        20
34.890        20
34.900        13
34.910        47
34.920        27
34.930        60
34.940        60
34.950        47
34.960        27
34.970        27
34.980        53
34.990        33
35.000        40
35.010        80
35.020        13
35.030        40
35.040        60
35.050        67
35.060        80
35.070        80
35.080        73
35.090        60
35.100        67
35.110        20
35.120        60
35.130        53
35.140        60
35.150        60
35.160       107
35.170       107
35.180        40
35.190       147
35.200       100
35.210       113
35.220       113
35.230        67
35.240       120
35.250        73
35.260        80
35.270        67
35.280        60
35.290       107
35.300        40
35.310        60
35.320        73
35.330        40
35.340        73
35.350        33
35.360        33
35.370        33
35.380        60
35.390        20
35.400        40
35.410        47
35.420        20
35.430        27
35.440        40
35.450        40
35.460        47
35.470        20
35.480        27
35.490        33
35.500        47
35.510        47
35.520        40
35.530        47
35.540        27
35.550        40
35.560        13
35.570        20
35.580        20
35.590        27
35.600        13
35.610        60
35.620        27
35.630        53
35.640        27
35.650        20
35.660        33
35.670        33
35.680        40
35.690        33
35.700        40
35.710        33
35.720        27
35.730        40
35.740         7
35.750        27
35.760        13
35.770        33
35.780        33
35.790        27
35.800        20
35.810        20
35.820        27
35.830        27
35.840        20
35.850        20
35.860        40
35.870        40
35.880        33
35.890        13
35.900        33
35.910        33
35.920        33
35.930        53
35.940        27
35.950        27
35.960        33
35.970        33
35.980        27
35.990        33
36.000        13
36.010        20
36.020        73
36.030        80
36.040        27
36.050        20
36.060        40
36.070        40
36.080         7
36.090        13
36.100        40
36.110        27
36.120        20
36.130        33
36.140        60
36.150        40
36.160        13
36.170        40
36.180        20
36.190        40
36.200        33
36.210        27
36.220        47
36.230        73
36.240        33
36.250        40
36.260        80
36.270        47
36.280        33
36.290        33
36.300        13
36.310        40
36.320        20
36.330        40
36.340        60
36.350        40
36.360        47
36.370        93
36.380        67
36.390        67
36.400        27
36.410        93
36.420        93
36.430         7
36.440        40
36.450        93
36.460        80
36.470        40
36.480        33
36.490        73
36.500        73
36.510        60
36.520        53
36.530        80
36.540        27
36.550        67
36.560        47
36.570        80
36.580        67
36.590        87
36.600        20
36.610        13
36.620        27
36.630        40
36.640        67
36.650        40
36.660        40
36.670        47
36.680        73
36.690        33
36.700        20
36.710        53
36.720        60
36.730        67
36.740        47
36.750        33
36.760        27
36.770        20
36.780        67
36.790        47
36.800        53
36.810        60
36.820        33
36.830        33
36.840        47
36.850        73
36.860        20
36.870        47
36.880        20
36.890        20
36.900        60
36.910        20
36.920        33
36.930        33
36.940        27
36.950        33
36.960        27
36.970        47
36.980        53
36.990        13
37.000        60
37.010        40
37.020        33
37.030        40
37.040        53
37.050        33
37.060        27
37.070        33
37.080        73
37.090        13
37.100        33
37.110        53
37.120         7
37.130        47
37.140        40
37.150        53
37.160        40
37.170        53
37.180        47
37.190        27
37.200        20
37.210        13
37.220        27
37.230        87
37.240        33
37.250        27
37.260        20
37.270        53
37.280        27
37.290        33
37.300        47
37.310        47
37.320        20
37.330        20
37.340        33
37.350        60
37.360        13
37.370        47
37.380        33
37.390        40
37.400        27
37.410        40
37.420        40
37.430        27
37.440        47
37.450        33
37.460        40
37.470         7
37.480        13
37.490        80
37.500        53
37.510        33
37.520        27
37.530         7
37.540        27
37.550        13
37.560        53
37.570        47
37.580        27
37.590        20
37.600        40
37.610        73
37.620        27
37.630        33
37.640        13
37.650        33
37.660        40
37.670        27
37.680        47
37.690        40
37.700        20
37.710        20
37.720        13
37.730        47
37.740        40
37.750        20
37.760        33
37.770        20
37.780        27
37.790        33
37.800        40
37.810        40
37.820        40
37.830        33
37.840        20
37.850        53
37.860        20
37.870        47
37.880        27
37.890        20
37.900        27
37.910        27
37.920        33
37.930        47
37.940        33
37.950        20
37.960        40
37.970        27
37.980        40
37.990        33
38.000        40
38.010        13
38.020        47
38.030        27
38.040        33
38.050        53
38.060        53
38.070         0
38.080        33
38.090        33
38.100        40
38.110        20
38.120        20
38.130        20
38.140        47
38.150        13
38.160        33
38.170         7
38.180        33
38.190        27
38.200        20
38.210        33
38.220        27
38.230        13
38.240        27
38.250        40
38.260        67
38.270        20
38.280        27
38.290        33
38.300        33
38.310        47
38.320        27
38.330        47
38.340        47
38.350        33
38.360        53
38.370        53
38.380        27
38.390        47
38.400        33
38.410        13
38.420        13
38.430        53
38.440        33
38.450        27
38.460        33
38.470        20
38.480        20
38.490        20
38.500        13
38.510        33
38.520        27
38.530        27
38.540        20
38.550        20
38.560        40
38.570        27
38.580        33
38.590        20
38.600        53
38.610        13
38.620        40
38.630        33
38.640        20
38.650        40
38.660        20
38.670        27
38.680        40
38.690        27
38.700        33
38.710        33
38.720        13
38.730        33
38.740         7
38.750        27
38.760        13
38.770        20
38.780        27
38.790        33
38.800        20
38.810        20
38.820        47
38.830        33
38.840        27
38.850        27
38.860        13
38.870        47
38.880        13
38.890        27
38.900        27
38.910        47
38.920        33
38.930        33
38.940        33
38.950        53
38.960        27
38.970        27
38.980         7
38.990        40
39.000        27
39.010        20
39.020        80
39.030        20
39.040        33
39.050        20
39.060        47
39.070        20
39.080         7
39.090        33
39.100        33
39.110        13
39.120        33
39.130        27
39.140        33
39.150        53
39.160        40
39.170        40
39.180        40
39.190        27
39.200        47
39.210        33
39.220        27
39.230         7
39.240        13
39.250        20
39.260        60
39.270        27
39.280        47
39.290        27
39.300        20
39.310        33
39.320        53
39.330        20
39.340        47
39.350        20
39.360        33
39.370        27
39.380        20
39.390        33
39.400        13
39.410        27
39.420        20
39.430        27
39.440        40
39.450        33
39.460        20
39.470        33
39.480        20
39.490        47
39.500        13
39.510        13
39.520        40
39.530        33
39.540        20
39.550        13
39.560        40
39.570        33
39.580        27
39.590        20
39.600        20
39.610        40
39.620        20
39.630        40
39.640        20
39.650        33
39.660        20
39.670        53
39.680         7
39.690        13
39.700        40
39.710        33
39.720        40
39.730        27
39.740        53
39.750        53
39.760         7
39.770        47
39.780        47
39.790        60
39.800        40
39.810        33
39.820        53
39.830        47
39.840        27
39.850        53
39.860        67
39.870        33
39.880        27
39.890        67
39.900        20
39.910        47
39.920        67
39.930        60
39.940        80
39.950        27
39.960        53
39.970        33
39.980        47
39.990        40
40.000        67
40.010        53
40.020        33
40.030        47
40.040        60
40.050        67
40.060        60
40.070        40
40.080        80
40.090        53
40.100        27
40.110        67
40.120        87
40.130        40
40.140        40
40.150        60
40.160        80
40.170        73
40.180        27
40.190        27
40.200        13
40.210        73
40.220        40
40.230        40
40.240        47
40.250        73
40.260        40
40.270        47
40.280        33
40.290        73
40.300        93
40.310        27
40.320        47
40.330        33
40.340        47
40.350        40
40.360        67
40.370        27
40.380        47
40.390        73
40.400        33
40.410        33
40.420        33
40.430        20
40.440        33
40.450        40
40.460         7
40.470        47
40.480        47
40.490        33
40.500        27
40.510         7
40.520        40
40.530        33
40.540        33
40.550        60
40.560        47
40.570        40
40.580        40
40.590        33
40.600        20
40.610        40
40.620        13
40.630         7
40.640        20
40.650        53
40.660        27
40.670        33
40.680        20
40.690        33
40.700        20
40.710        40
40.720        20
40.730        20
40.740        13
40.750        27
40.760        13
40.770        60
40.780        20
40.790        20
40.800        33
40.810        33
40.820        40
40.830        27
40.840        40
40.850        47
40.860        40
40.870        27
40.880        40
40.890        20
40.900        47
40.910        53
40.920        47
40.930        27
40.940        33
40.950        13
40.960        40
40.970        33
40.980        27
40.990        33
41.000        33
41.010        13
41.020        13
41.030        33
41.040        27
41.050        27
41.060        13
41.070        27
41.080         7
41.090        27
41.100        47
41.110        40
41.120        20
41.130        33
41.140        47
41.150        33
41.160        27
41.170        47
41.180        60
41.190        20
41.200        27
41.210        33
41.220        33
41.230        40
41.240        27
41.250        53
41.260        40
41.270        27
41.280        33
41.290        53
41.300        27
41.310        27
41.320        47
41.330        47
41.340        40
41.350        40
41.360        20
41.370        40
41.380        33
41.390        60
41.400        53
41.410        33
41.420        33
41.430        53
41.440        40
41.450        27
41.460        53
41.470        67
41.480        87
41.490        13
41.500        53
41.510        33
41.520        53
41.530        40
41.540        60
41.550        73
41.560        33
41.570        87
41.580        53
41.590        33
41.600        87
41.610        87
41.620        47
41.630        87
41.640        47
41.650       120
41.660        80
41.670        93
41.680       153
41.690       247
41.700       200
41.710       120
41.720       140
41.730       213
41.740       147
41.750       153
41.760       153
41.770       160
41.780       133
41.790       107
41.800        87
41.810       180
41.820        73
41.830       127
41.840       127
41.850        80
41.860       120
41.870       100
41.880        80
41.890        40
41.900        73
41.910        47
41.920        67
41.930        40
41.940        60
41.950        73
41.960        60
41.970        53
41.980        53
41.990        60
42.000        40
42.010        67
42.020        53
42.030        67
42.040        40
42.050        47
42.060         7
42.070        27
42.080        47
42.090        60
42.100        53
42.110        40
42.120        20
42.130        67
42.140        13
42.150        20
42.160        53
42.170        20
42.180        73
42.190        53
42.200        13
42.210        33
42.220        33
42.230        47
42.240        33
42.250        33
42.260        33
42.270        27
42.280        53
42.290         7
42.300        40
42.310        47
42.320        33
42.330        67
42.340        20
42.350        33
42.360        40
42.370        60
42.380        33
42.390        27
42.400        67
42.410        27
42.420        40
42.430        47
42.440        20
42.450        40
42.460        33
42.470        27
42.480        27
42.490        40
42.500        40
42.510        40
42.520        27
42.530        40
42.540        40
42.550         0
42.560        27
42.570        60
42.580        13
42.590        47
42.600        33
42.610        73
42.620        20
42.630        27
42.640        20
42.650        33
42.660        27
42.670         7
42.680        20
42.690         0
42.700        47
42.710        40
42.720        53
42.730         0
42.740        33
42.750        27
42.760        33
42.770        40
42.780        40
42.790        33
42.800        27
42.810        13
42.820        40
42.830        27
42.840        27
42.850        40
42.860        40
42.870        33
42.880        60
42.890        47
42.900        60
42.910        27
42.920        27
42.930        80
42.940        13
42.950        40
42.960        20
42.970        20
42.980         7
42.990        27
43.000        20
43.010        40
43.020        20
43.030        47
43.040        13
43.050        27
43.060        40
43.070        47
43.080        27
43.090        33
43.100        40
43.110        20
43.120        13
43.130        47
43.140        47
43.150        33
43.160        47
43.170        20
43.180        80
43.190        13
43.200        20
43.210        40
43.220        33
43.230        33
43.240        47
43.250        13
43.260        53
43.270        47
43.280        40
43.290        20
43.300        40
43.310        33
43.320        60
43.330        47
43.340        60
43.350        53
43.360        67
43.370        80
43.380        27
43.390        67
43.400        80
43.410       107
43.420       113
43.430       120
43.440        47
43.450        60
43.460        73
43.470        27
43.480        33
43.490        40
43.500        67
43.510        73
43.520        87
43.530        53
43.540        13
43.550        47
43.560        27
43.570        33
43.580        53
43.590        33
43.600        40
43.610        40
43.620        20
43.630        53
43.640        20
43.650        33
43.660        20
43.670        47
43.680         7
43.690        13
43.700        60
43.710        53
43.720        13
43.730        47
43.740        53
43.750        13
43.760        20
43.770        13
43.780        20
43.790        53
43.800        33
43.810        27
43.820        33
43.830        33
43.840        13
43.850        13
43.860        27
43.870         7
43.880        53
43.890        33
43.900        13
43.910        13
43.920         7
43.930        60
43.940        27
43.950        13
43.960        20
43.970        33
43.980        60
43.990        13
44.000        47
44.010         7
44.020        27
44.030        13
44.040        13
44.050        33
44.060        40
44.070        40
44.080        40
44.090        40
44.100        53
44.110        33
44.120        27
44.130        33
44.140        80
44.150        20
44.160        53
44.170        40
44.180        53
44.190        27
44.200        13
44.210        47
44.220        27
44.230        33
44.240        40
44.250        40
44.260        53
44.270        73
44.280        47
44.290        60
44.300        40
44.310        27
44.320        67
44.330        27
44.340        33
44.350        40
44.360        13
44.370        40
44.380        27
44.390        40
44.400        33
44.410        53
44.420        53
44.430        60
44.440        53
44.450        13
44.460        27
44.470        60
44.480         7
44.490        93
44.500        73
44.510        60
44.520        67
44.530        47
44.540        27
44.550        53
44.560        47
44.570        40
44.580        33
44.590        27
44.600        53
44.610        20
44.620        33
44.630        60
44.640        67
44.650        33
44.660        47
44.670        40
44.680        60
44.690        13
44.700        40
44.710        60
44.720        13
44.730        73
44.740        73
44.750        20
44.760        20
44.770        33
44.780        20
44.790        33
44.800        33
44.810        40
44.820        27
44.830        40
44.840        67
44.850        53
44.860        73
44.870        47
44.880        27
44.890        33
44.900        27
44.910        40
44.920        40
44.930        53
44.940        33
44.950        60
44.960        40
44.970        13
44.980        47
44.990        20
45.000        47
45.010        40
45.020        33
45.030        27
45.040         7
45.050        27
45.060        33
45.070         0
45.080        60
45.090        87
45.100        73
45.110        27
45.120        33
45.130        13
45.140       100
45.150        13
45.160        47
45.170        40
45.180        33
45.190        40
45.200        20
45.210        47
45.220        33
45.230        47
45.240        20
45.250        47
45.260        53
45.270        60
45.280        53
45.290        40
45.300        33
45.310        53
45.320        40
45.330        20
45.340        47
45.350        40
45.360        47
45.370        33
45.380        60
45.390        27
45.400        47
45.410        60
45.420        47
45.430        53
45.440        33
45.450        60
45.460        60
45.470        87
45.480        33
45.490        67
45.500        33
45.510       100
45.520        80
45.530       113
45.540        87
45.550        67
45.560        60
45.570       100
45.580        47
45.590        93
45.600        93
45.610        73
45.620        47
45.630       120
45.640        93
45.650        47
45.660        87
45.670       140
45.680       127
45.690       167
45.700       153
45.710       120
45.720       107
45.730       133
45.740       140
45.750       100
45.760       187
45.770       120
45.780       153
45.790       180
45.800       140
45.810       153
45.820       180
45.830       107
45.840       253
45.850       127
45.860       240
45.870       207
45.880       227
45.890       140
45.900       167
45.910       187
45.920       220
45.930       253
45.940       133
45.950       213
45.960       307
45.970       173
45.980       247
45.990       207
46.000       260
46.010       207
46.020       200
46.030       253
46.040       260
46.050       307
46.060       167
46.070       247
46.080       233
46.090       240
46.100       253
46.110       367
46.120       327
46.130       200
46.140       307
46.150       293
46.160       220
46.170       313
46.180       426
46.190       300
46.200       313
46.210       347
46.220       360
46.230       453
46.240       327
46.250       407
46.260       486
46.270       420
46.280       453
46.290       440
46.300       613
46.310       626
46.320       600
46.330       526
46.340       606
46.350       620
46.360       726
46.370       726
46.380       733
46.390       806
46.400       766
46.410       893
46.420       833
46.430      1000
46.440      1040
46.450      1073
46.460      1126
46.470      1013
46.480      1246
46.490      1206
46.500      1273
46.510      1080
46.520      1319
46.530      1166
46.540      1166
46.550      1439
46.560      1319
46.570      1186
46.580      1200
46.590      1193
46.600      1259
46.610      1186
46.620      1126
46.630       946
46.640      1046
46.650      1026
46.660       973
46.670       860
46.680       900
46.690       860
46.700       666
46.710       686
46.720       706
46.730       680
46.740       506
46.750       526
46.760       540
46.770       520
46.780       513
46.790       466
46.800       393
46.810       293
46.820       400
46.830       300
46.840       300
46.850       233
46.860       220
46.870       273
46.880       180
46.890       200
46.900       207
46.910       273
46.920       180
46.930       173
46.940       167
46.950       140
46.960       187
46.970       160
46.980        87
46.990        80
47.000       107
47.010       133
47.020       100
47.030       160
47.040       107
47.050        93
47.060       153
47.070        53
47.080        80
47.090       100
47.100       100
47.110        80
47.120       107
47.130       107
47.140        53
47.150       107
47.160        60
47.170        53
47.180        53
47.190        67
47.200        53
47.210       100
47.220        60
47.230        67
47.240        27
47.250        53
47.260        33
47.270        73
47.280        47
47.290        60
47.300       120
47.310        60
47.320        40
47.330        47
47.340        47
47.350        47
47.360        47
47.370        60
47.380        40
47.390        87
47.400        40
47.410        47
47.420        73
47.430        47
47.440        47
47.450        60
47.460        73
47.470        27
47.480        53
47.490        47
47.500        27
47.510        27
47.520        47
47.530        60
47.540        60
47.550        27
47.560        80
47.570        47
47.580        33
47.590        20
47.600        40
47.610        47
47.620        73
47.630        20
47.640        33
47.650        33
47.660        13
47.670        20
47.680        53
47.690        40
47.700        40
47.710        60
47.720        40
47.730        40
47.740         7
47.750        33
47.760        40
47.770        33
47.780        47
47.790        27
47.800        33
47.810        20
47.820        60
47.830        40
47.840        40
47.850        33
47.860        40
47.870         7
47.880        40
47.890        40
47.900        20
47.910        20
47.920        20
47.930        47
47.940        40
47.950        27
47.960        33
47.970        40
47.980        80
47.990        60
48.000        40
48.010        13
48.020        40
48.030        60
48.040        33
48.050        33
48.060        33
48.070        67
48.080        20
48.090        73
48.100        40
48.110         7
48.120        13
48.130        33
48.140        13
48.150        67
48.160        40
48.170        27
48.180        33
48.190        40
48.200        27
48.210        47
48.220        40
48.230        47
48.240        13
48.250        67
48.260        13
48.270        47
48.280        53
48.290        40
48.300        13
48.310        20
48.320        27
48.330        60
48.340        20
48.350        33
48.360        13
48.370        20
48.380        67
48.390        13
48.400        27
48.410        13
48.420        40
48.430        40
48.440        33
48.450        67
48.460        20
48.470        47
48.480        67
48.490        40
48.500        13
48.510        20
48.520        13
48.530        47
48.540        60
48.550        27
48.560        27
48.570        20
48.580        13
48.590        20
48.600         7
48.610        33
48.620        33
48.630        13
48.640        13
48.650        40
48.660        20
48.670        47
48.680        40
48.690        33
48.700        13
48.710        20
48.720         7
48.730        33
48.740        27
48.750        27
48.760        33
48.770         7
48.780        33
48.790        20
48.800        73
48.810        27
48.820        33
48.830        40
48.840        27
48.850         7
48.860         7
48.870        27
48.880        13
48.890        47
48.900        47
48.910        13
48.920        27
48.930        20
48.940        53
48.950        27
48.960        53
48.970        47
48.980        33
48.990        20
49.000        20
49.010        20
49.020        53
49.030        20
49.040        13
49.050        20
49.060         7
49.070        27
49.080         7
49.090        33
49.100        13
49.110        13
49.120        40
49.130        27
49.140        47
49.150        33
49.160        20
49.170        53
49.180         7
49.190        20
49.200        13
49.210        27
49.220        13
49.230        13
49.240        47
49.250        53
49.260        47
49.270         7
49.280        27
49.290        20
49.300        13
49.310        47
49.320        13
49.330        27
49.340        33
49.350        20
49.360        47
49.370        40
49.380        33
49.390        33
49.400        40
49.410        13
49.420        33
49.430        27
49.440        27
49.450        13
49.460        47
49.470         7
49.480        47
49.490        40
49.500        20
49.510        20
49.520        53
49.530        27
49.540        27
49.550        33
49.560        27
49.570        20
49.580        47
49.590         7
49.600        40
49.610        40
49.620        33
49.630        40
49.640        40
49.650        33
49.660        20
49.670        33
49.680        20
49.690        27
49.700        27
49.710        20
49.720        40
49.730        53
49.740        27
49.750        27
49.760        20
49.770        47
49.780        33
49.790         0
49.800        20
49.810        27
49.820        47
49.830        33
49.840        33
49.850        53
49.860        40
49.870        20
49.880        40
49.890        60
49.900        73
49.910        60
49.920        40
49.930        40
49.940        53
49.950       113
49.960        53
49.970        53
49.980        67
49.990        53
50.000        53
50.010        60
50.020        60
50.030        60
50.040        33
50.050        67
50.060        67
50.070        53
50.080        80
50.090        40
50.100        60
50.110        53
50.120        47
50.130        53
50.140        33
50.150       100
50.160        73
50.170        47
50.180        80
50.190        87
50.200        67
50.210        60
50.220        53
50.230        33
50.240        40
50.250        47
50.260        93
50.270        47
50.280        33
50.290        67
50.300        67
50.310        67
50.320        60
50.330        87
50.340        60
50.350        60
50.360        87
50.370        67
50.380        40
50.390        80
50.400        67
50.410        33
50.420        53
50.430        47
50.440        47
50.450        13
50.460        60
50.470        53
50.480        40
50.490        40
50.500        53
50.510        73
50.520        40
50.530        47
50.540        27
50.550        20
50.560        33
50.570        27
50.580         7
50.590        33
50.600        47
50.610        40
50.620        20
50.630        40
50.640        33
50.650        20
50.660        20
50.670        40
50.680        13
50.690        27
50.700        40
50.710        33
50.720        27
50.730        40
50.740        60
50.750        33
50.760        33
50.770        67
50.780        27
50.790        33
50.800        13
50.810        13
50.820        20
50.830        33
50.840        33
50.850        40
50.860        20
50.870        40
50.880        27
50.890        60
50.900        27
50.910         0
50.920        27
50.930        27
50.940         7
50.950        53
50.960        27
50.970        13
50.980        33
50.990        13
51.000        27
51.010         0
51.020        20
51.030        33
51.040         7
51.050        20
51.060        27
51.070        20
51.080        53
51.090        27
51.100        27
51.110        27
51.120         0
51.130        20
51.140        40
51.150        40
51.160        47
51.170        47
51.180        40
51.190        20
51.200        40
51.210        20
51.220        27
51.230         7
51.240         7
51.250        27
51.260        47
51.270        47
51.280        33
51.290        47
51.300        33
51.310        53
51.320        27
51.330        27
51.340        53
51.350        13
51.360        20
51.370        40
51.380        13
51.390        20
51.400        27
51.410        27
51.420         0
51.430        20
51.440        13
51.450        33
51.460        47
51.470        20
51.480        33
51.490        33
51.500        40
51.510        13
51.520        27
51.530        27
51.540         7
51.550        27
51.560         7
51.570        27
51.580        40
51.590        27
51.600        13
51.610        33
51.620        13
51.630        27
51.640        47
51.650        20
51.660        20
51.670        40
51.680        27
51.690         7
51.700        27
51.710        33
51.720        40
51.730        40
51.740        27
51.750        27
51.760        40
51.770        13
51.780        40
51.790        13
51.800        13
51.810        33
51.820        33
51.830        27
51.840        33
51.850        33
51.860        33
51.870        20
51.880        13
51.890        20
51.900        40
51.910        53
51.920        33
51.930        27
51.940        20
51.950        20
51.960        27
51.970        13
51.980        27
51.990        53
52.000        40
52.010        20
52.020        13
52.030        40
52.040         7
52.050        20
52.060         7
52.070        13
52.080        20
52.090         0
52.100        20
52.110        27
52.120        33
52.130        20
52.140        60
52.150        27
52.160        20
52.170        47
52.180        13
52.190        47
52.200        27
52.210        33
52.220        20
52.230        33
52.240        33
52.250        47
52.260        20
52.270        20
52.280        20
52.290        20
52.300        13
52.310        60
52.320        27
52.330        27
52.340        13
52.350        40
52.360        20
52.370        47
52.380        40
52.390        47
52.400        20
52.410        40
52.420        40
52.430        20
52.440        33
52.450        33
52.460        20
52.470        27
52.480        33
52.490        47
52.500        27
52.510        27
52.520        40
52.530        47
52.540        27
52.550        60
52.560        67
52.570        40
52.580       100
52.590        60
52.600        80
52.610       100
52.620        87
52.630        80
52.640       127
52.650       100
52.660        93
52.670        47
52.680        87
52.690        53
52.700        67
52.710        47
52.720        33
52.730        60
52.740        47
52.750       127
52.760        73
52.770       127
52.780        60
52.790        53
52.800        73
52.810        60
52.820        47
52.830        80
52.840        53
52.850        47
52.860        40
52.870        47
52.880        40
52.890        47
52.900        53
52.910        53
52.920        13
52.930        33
52.940        40
52.950        33
52.960        47
52.970        33
52.980        80
52.990        47
53.000        53
53.010        13
53.020        27
53.030        33
53.040        27
53.050        33
53.060        33
53.070        20
53.080        13
53.090        33
53.100        33
53.110        27
53.120        27
53.130        27
53.140        47
53.150        40
53.160         7
53.170        27
53.180        27
53.190        13
53.200        33
53.210        33
53.220        33
53.230        47
53.240        13
53.250        33
53.260        27
53.270        27
53.280        20
53.290        20
53.300        40
53.310        40
53.320        20
53.330        33
53.340        33
53.350        13
53.360        13
53.370        20
53.380        27
53.390        27
53.400        13
53.410        27
53.420         7
53.430        60
53.440        13
53.450        27
53.460        20
53.470        13
53.480        13
53.490         7
53.500        27
53.510        33
53.520        20
53.530        13
53.540        27
53.550         7
53.560        20
53.570        20
53.580        13
53.590        27
53.600        20
53.610        20
53.620        20
53.630        47
53.640        20
53.650        33
53.660        27
53.670        27
53.680        40
53.690        33
53.700        13
53.710        27
53.720        27
53.730        27
53.740        33
53.750         7
53.760         7
53.770        27
53.780        33
53.790         0
53.800        47
53.810        27
53.820        47
53.830        20
53.840        13
53.850        33
53.860        20
53.870        53
53.880        20
53.890        33
53.900        27
53.910        20
53.920         7
53.930        20
53.940         7
53.950        13
53.960        33
53.970        53
53.980         7
53.990        20
54.000        27
54.010        13
54.020        33
54.030        13
54.040        20
54.050        20
54.060        53
54.070        20
54.080        33
54.090        27
54.100        47
54.110        47
54.120        20
54.130         7
54.140        20
54.150        20
54.160         7
54.170        33
54.180        27
54.190        13
54.200        47
54.210        27
54.220        27
54.230        40
54.240        33
54.250        27
54.260        33
54.270        33
54.280        27
54.290        27
54.300        13
54.310        40
54.320        20
54.330        13
54.340        33
54.350        13
54.360        47
54.370        20
54.380         0
54.390        33
54.400        13
54.410        20
54.420        20
54.430        13
54.440        27
54.450        13
54.460        40
54.470        53
54.480        20
54.490        33
54.500        20
54.510        13
54.520        40
54.530        27
54.540         0
54.550        13
54.560        13
54.570        20
54.580        40
54.590        60
54.600        27
54.610        20
54.620        13
54.630         7
54.640        27
54.650         7
54.660         0
54.670        33
54.680        20
54.690        60
54.700         0
54.710        40
54.720        13
54.730        33
54.740        20
54.750        20
54.760        20
54.770        13
54.780        20
54.790        20
54.800        20
54.810        47
54.820        20
54.830        40
54.840        13
54.850        20
54.860        27
54.870        20
54.880        20
54.890        27
54.900        33
54.910        33
54.920         0
54.930         7
54.940        60
54.950        53
54.960        13
54.970        40
54.980        13
54.990        27
55.000        33
55.010        20
55.020        33
55.030        13
55.040        40
55.050        20
55.060        33
55.070        33
55.080        40
55.090        20
55.100        27
55.110        27
55.120        40
55.130        13
55.140        27
55.150        33
55.160        27
55.170        33
55.180         7
55.190        13
55.200        27
55.210        13
55.220        33
55.230        27
55.240        53
55.250        40
55.260         7
55.270        20
55.280        13
55.290        40
55.300        20
55.310         7
55.320        27
55.330        20
55.340         7
55.350        33
55.360        27
55.370        27
55.380        20
55.390         7
55.400        20
55.410        13
55.420        20
55.430        13
55.440        13
55.450        13
55.460        40
55.470        27
55.480        20
55.490         7
55.500        13
55.510         0
55.520        20
55.530        33
55.540         0
55.550        20
55.560        13
55.570        40
55.580        20
55.590        13
55.600        20
55.610         7
55.620        13
55.630        33
55.640        13
55.650        20
55.660        20
55.670         0
55.680         0
55.690        27
55.700        20
55.710        20
55.720         7
55.730        20
55.740        33
55.750        40
55.760        40
55.770        27
55.780        20
55.790        27
55.800        20
55.810        40
55.820        20
55.830        20
55.840        20
55.850        33
55.860        13
55.870        27
55.880         0
55.890        20
55.900        13
55.910        33
55.920        27
55.930         7
55.940        20
55.950         0
55.960        40
55.970        40
55.980        53
55.990        27
56.000        20
56.010        33
56.020        27
56.030        13
56.040        33
56.050         0
56.060        40
56.070        20
56.080        47
56.090         0
56.100         7
56.110        33
56.120        20
56.130        20
56.140        33
56.150        33
56.160        33
56.170        20
56.180        13
56.190         7
56.200        20
56.210        13
56.220         0
56.230        13
56.240        27
56.250        20
56.260        40
56.270        20
56.280         7
56.290         7
56.300        33
56.310         7
56.320        20
56.330        13
56.340        33
56.350        27
56.360        13
56.370        20
56.380        40
56.390        20
56.400        13
56.410        27
56.420        27
56.430         7
56.440        13
56.450        40
56.460        20
56.470        33
56.480        20
56.490        13
56.500        33
56.510        13
56.520        20
56.530         7
56.540        13
56.550        13
56.560        20
56.570        53
56.580        33
56.590        40
56.600        20
56.610        33
56.620        27
56.630        27
56.640        33
56.650        27
56.660        20
56.670        40
56.680        27
56.690        13
56.700         7
56.710        13
56.720         7
56.730        27
56.740        20
56.750        13
56.760        20
56.770        20
56.780        13
56.790        33
56.800        20
56.810         7
56.820         7
56.830        33
56.840        20
56.850        47
56.860        20
56.870         7
56.880        33
56.890        27
56.900        13
56.910        33
56.920        20
56.930        20
56.940        27
56.950        20
56.960        27
56.970        13
56.980        20
56.990         7
57.000        13
57.010         7
57.020        20
57.030        20
57.040        20
57.050         0
57.060        13
57.070         7
57.080         7
57.090         7
57.100        13
57.110        33
57.120        33
57.130        47
57.140         7
57.150        53
57.160        40
57.170        33
57.180        33
57.190        33
57.200        27
57.210        20
57.220        27
57.230        13
57.240        27
57.250        40
57.260        20
57.270        27
57.280         0
57.290        33
57.300        13
57.310        20
57.320        13
57.330        20
57.340        40
57.350        13
57.360        47
57.370        47
57.380        53
57.390         0
57.400        33
57.410        20
57.420        20
57.430        40
57.440        27
57.450        60
57.460         7
57.470        53
57.480        40
57.490        53
57.500        40
57.510       100
57.520       113
57.530        73
57.540       147
57.550       153
57.560       173
57.570       200
57.580       260
57.590       213
57.600       300
57.610       307
57.620       247
57.630       160
57.640       167
57.650       113
57.660        87
57.670        93
57.680       133
57.690        53
57.700        73
57.710        80
57.720       113
57.730       133
57.740       120
57.750       140
57.760       133
57.770       133
57.780       133
57.790        53
57.800        87
57.810        47
57.820        40
57.830        27
57.840        33
57.850        53
57.860        33
57.870        40
57.880        20
57.890        27
57.900        47
57.910        13
57.920        13
57.930        53
57.940        20
57.950        27
57.960        33
57.970        13
57.980        53
57.990         0
58.000        33
58.010        20
58.020        47
58.030        40
58.040        13
58.050        40
58.060        27
58.070        13
58.080         7
58.090        33
58.100        20
58.110         0
58.120        53
58.130        20
58.140        27
58.150        33
58.160        20
58.170         7
58.180        20
58.190        33
58.200        27
58.210        33
58.220        27
58.230        47
58.240        27
58.250        20
58.260        20
58.270        13
58.280        20
58.290         7
58.300        27
58.310        13
58.320        40
58.330        27
58.340        20
58.350        20
58.360        13
58.370        20
58.380         0
58.390        33
58.400        13
58.410        40
58.420        47
58.430        27
58.440        20
58.450        13
58.460        33
58.470        20
58.480        33
58.490         0
58.500        13
58.510        13
58.520        33
58.530         7
58.540        13
58.550        20
58.560        40
58.570        13
58.580        13
58.590        27
58.600         7
58.610        27
58.620        20
58.630        20
58.640        40
58.650        13
58.660        27
58.670        20
58.680        20
58.690        27
58.700        13
58.710        27
58.720        13
58.730        47
58.740        20
58.750        27
58.760        20
58.770        20
58.780        13
58.790        13
58.800        13
58.810        20
58.820        20
58.830        13
58.840        20
58.850        13
58.860        33
58.870        13
58.880         7
58.890        20
58.900        27
58.910        27
58.920        27
58.930        27
58.940        20
58.950        40
58.960         7
58.970        20
58.980        33
58.990        33
59.000         7
59.010        27
59.020        27
59.030        27
59.040        27
59.050        13
59.060        33
59.070        33
59.080        13
59.090        33
59.100         7
59.110        13
59.120        27
59.130        33
59.140        20
59.150        33
59.160        20
59.170         0
59.180        13
59.190        13
59.200        13
59.210        40
59.220         0
59.230        20
59.240        27
59.250        33
59.260        27
59.270        27
59.280        13
59.290        27
59.300        33
59.310        13
59.320        27
59.330         7
59.340        20
59.350        13
59.360        20
59.370        27
59.380        13
59.390         7
59.400        13
59.410        40
59.420         0
59.430        13
59.440        40
59.450        47
59.460        40
59.470         7
59.480        13
59.490        13
59.500        27
59.510        33
59.520        40
59.530        27
59.540        20
59.550        27
59.560        33
59.570         7
59.580        47
59.590        13
59.600        33
59.610        40
59.620        27
59.630        20
59.640        13
59.650        60
59.660        33
59.670         7
59.680        33
59.690        47
59.700        53
59.710        20
59.720        20
59.730         7
59.740        27
59.750        27
59.760         7
59.770        20
59.780        13
59.790        27
59.800        47
59.810        13
59.820        20
59.830        33
59.840        13
59.850        27
59.860        20
59.870         7
59.880         7
59.890        20
59.900        33
59.910        27
59.920        40
59.930         0
59.940        13
59.950        20
59.960        53
59.970        20
59.980         7
59.990        53
60.000        27
