20.000        60
20.010        27
20.020        67
20.030        47
20.040        20
20.050        33
20.060        53
20.070        47
20.080        27
20.090        20
20.100        20
20.110        33
20.120        53
20.130        47
20.140        40
20.150        33
20.160        60
20.170        27
20.180        40
20.190        33
20.200        80
20.210        20
20.220        67
20.230        60
20.240        40
20.250        20
20.260        67
20.270        53
20.280        27
20.290        27
20.300        47
20.310        20
20.320        47
20.330        47
20.340        60
20.350        33
20.360        13
20.370        27
20.380        60
20.390        20
20.400        60
20.410        27
20.420        40
20.430        47
20.440        60
20.450        27
20.460        27
20.470        53
20.480        33
20.490        33
20.500        53
20.510        27
20.520        27
20.530        47
20.540        47
20.550        33
20.560        40
20.570        60
20.580        60
20.590        53
20.600        73
20.610        20
20.620        53
20.630        67
20.640        73
20.650        40
20.660        40
20.670        13
20.680        33
20.690        13
20.700        40
20.710        33
20.720        33
20.730        47
20.740        40
20.750        80
20.760        33
20.770        40
20.780        27
20.790        27
20.800        20
20.810        20
20.820        13
20.830        53
20.840        13
20.850        60
20.860        27
20.870        73
20.880        27
20.890        27
20.900        47
20.910        53
20.920        67
20.930        13
20.940        33
20.950        60
20.960        47
20.970        27
20.980        33
20.990        27
21.000        40
21.010        27
21.020        40
21.030        27
21.040        27
21.050        13
21.060        27
21.070        20
21.080        33
21.090        13
21.100        40
21.110        33
21.120        20
21.130        33
21.140        27
21.150        13
21.160        27
21.170        27
21.180        33
21.190        40
21.200        47
21.210        40
21.220        33
21.230        40
21.240        13
21.250        60
21.260        53
21.270        40
21.280        53
21.290        67
21.300        40
21.310        27
21.320        33
21.330        67
21.340        47
21.350        53
21.360        20
21.370        47
21.380        40
21.390        40
21.400        67
21.410        47
21.420        60
21.430        33
21.440        33
21.450        80
21.460        47
21.470        60
21.480        20
21.490        40
21.500        53
21.510        53
21.520        47
21.530        47
21.540         7
21.550        53
21.560        53
21.570        40
21.580        27
21.590        67
21.600        40
21.610        53
21.620        20
21.630        60
21.640        33
21.650        20
21.660        40
21.670        27
21.680        27
21.690        40
21.700        20
21.710        80
21.720        33
21.730        33
21.740        33
21.750        33
21.760        33
21.770        33
21.780        27
21.790        40
21.800        40
21.810        53
21.820        67
21.830        40
21.840        53
21.850        60
21.860        20
21.870        60
21.880        27
21.890         7
21.900        33
21.910        13
21.920        27
21.930        47
21.940        20
21.950        40
21.960        40
21.970        33
21.980        20
21.990        60
22.000        40
22.010        20
22.020        40
22.030        20
22.040        47
22.050        27
22.060        40
22.070        33
22.080        40
22.090        27
22.100        33
22.110        33
22.120        53
22.130        53
22.140        40
22.150        27
22.160        67
22.170        33
22.180        40
22.190        53
22.200        53
22.210        47
22.220        47
22.230        33
22.240        40
22.250        40
22.260        40
22.270        27
22.280        53
22.290        20
22.300        33
22.310        47
22.320        40
22.330        27
22.340        40
22.350        27
22.360        47
22.370        67
22.380        60
22.390        27
22.400        33
22.410        40
22.420        47
22.430        33
22.440        40
22.450        40
22.460        53
22.470        47
22.480        27
22.490        20
22.500        87
22.510        40
22.520        33
22.530        40
22.540        47
22.550        47
22.560        47
22.570        47
22.580        67
22.590        53
22.600        47
22.610        67
22.620        87
22.630        67
22.640        47
22.650        80
22.660       113
22.670        80
22.680       140
22.690       120
22.700       133
22.710       107
22.720       187
22.730       207
22.740       233
22.750       200
22.760       220
22.770       333
22.780       367
22.790       353
22.800       347
22.810       333
22.820       373
22.830       260
22.840       280
22.850       373
22.860       293
22.870       187
22.880       247
22.890       227
22.900       107
22.910       140
22.920       107
22.930        93
22.940        87
22.950        47
22.960        40
22.970        67
22.980        73
22.990        73
23.000        53
23.010        47
23.020        47
23.030        73
23.040        20
23.050        27
23.060        40
23.070        27
23.080        33
23.090        33
23.100        33
23.110        53
23.120        40
23.130        40
23.140        40
23.150        40
23.160        47
23.170        33
23.180        33
23.190        80
23.200        40
23.210        13
23.220        27
23.230        13
23.240        47
23.250        53
23.260        60
23.270        27
23.280        40
23.290        33
23.300        20
23.310        20
23.320        53
23.330        20
23.340        67
23.350        40
23.360        53
23.370        60
23.380        40
23.390         7
23.400        47
23.410        53
23.420        27
23.430        33
23.440        47
23.450        33
23.460        20
23.470        33
23.480        53
23.490        40
23.500        73
23.510        47
23.520        27
23.530        47
23.540        27
23.550        73
23.560        20
23.570        40
23.580        53
23.590        33
23.600        53
23.610        33
23.620        27
23.630        47
23.640        47
23.650        20
23.660         7
23.670        20
23.680        40
23.690        67
23.700        40
23.710        13
23.720        47
23.730        60
23.740        40
23.750        40
23.760        33
23.770        27
23.780        20
23.790        53
23.800        33
23.810        33
23.820        20
23.830        27
23.840        27
23.850        27
23.860        47
23.870        33
23.880        27
23.890        60
23.900        13
23.910        40
23.920        40
23.930        27
23.940        27
23.950        47
23.960        47
23.970        40
23.980        33
23.990        27
24.000        47
24.010        40
24.020        40
24.030        27
24.040        47
24.050        20
24.060        27
24.070         0
24.080        20
24.090        33
24.100        47
24.110        53
24.120        47
24.130        33
24.140         7
24.150        20
24.160        40
24.170        47
24.180        47
24.190        53
24.200        33
24.210        27
24.220        53
24.230        67
24.240        20
24.250        20
24.260        33
24.270        47
24.280        33
24.290        20
24.300        53
24.310        40
24.320        20
24.330        27
24.340        53
24.350        40
24.360         7
24.370        20
24.380        13
24.390        47
24.400        20
24.410        33
24.420        40
24.430        73
24.440        27
24.450        60
24.460        13
24.470        40
24.480        33
24.490        27
24.500        27
24.510        27
24.520        27
24.530        13
24.540        47
24.550        33
24.560        40
24.570        27
24.580        73
24.590        40
24.600        20
24.610        60
24.620        40
24.630        47
24.640        53
24.650        20
24.660        27
24.670        47
24.680        20
24.690        60
24.700        40
24.710        53
24.720        33
24.730        27
24.740        33
24.750        60
24.760        40
24.770        53
24.780        27
24.790        33
24.800        27
24.810        67
24.820        53
24.830        47
24.840        47
24.850        40
24.860        33
24.870        20
24.880        40
24.890        13
24.900        13
24.910        60
24.920        33
24.930        40
24.940        20
24.950        20
24.960        27
24.970        53
24.980        33
24.990         7
25.000        20
25.010        60
25.020        27
25.030        13
25.040        20
25.050        47
25.060         7
25.070        33
25.080        27
25.090        33
25.100        27
25.110        33
25.120        40
25.130        27
25.140        40
25.150        47
25.160        40
25.170        33
25.180        13
25.190        47
25.200        13
25.210        20
25.220        27
25.230         7
25.240        20
25.250        60
25.260        47
25.270        33
25.280        27
25.290        20
25.300        47
25.310        13
25.320        87
25.330        33
25.340        27
25.350        40
25.360        13
25.370        33
25.380        27
25.390        60
25.400        27
25.410        20
25.420        27
25.430        33
25.440        27
25.450        40
25.460        40
25.470        53
25.480        60
25.490        33
25.500        67
25.510        40
25.520        27
25.530        47
25.540        53
25.550        60
25.560        53
25.570        67
25.580        33
25.590        67
25.600        13
25.610        40
25.620        40
25.630        27
25.640        67
25.650        53
25.660        20
25.670        47
25.680        27
25.690        60
25.700        60
25.710        20
25.720        40
25.730        33
25.740        40
25.750        27
25.760        33
25.770        27
25.780        27
25.790        47
25.800        33
25.810        40
25.820        47
25.830        47
25.840        40
25.850        47
25.860        27
25.870        33
25.880        33
25.890        33
25.900        27
25.910        53
25.920        33
25.930        60
25.940        33
25.950        67
25.960        33
25.970        13
25.980        47
25.990        47
26.000        27
26.010        33
26.020        47
26.030        33
26.040        33
26.050        13
26.060        67
26.070        33
26.080        40
26.090         7
26.100        33
26.110         7
26.120        33
26.130        13
26.140        60
26.150        13
26.160        27
26.170        47
26.180         0
26.190        33
26.200        20
26.210        20
26.220        40
26.230         7
26.240        47
26.250        27
26.260        47
26.270        40
26.280        53
26.290         7
26.300        33
26.310         7
26.320        20
26.330        60
26.340         0
26.350        27
26.360        33
26.370        20
26.380        13
26.390        47
26.400        33
26.410        53
26.420        20
26.430        47
26.440         0
26.450        20
26.460        20
26.470        13
26.480        40
26.490        40
26.500        47
26.510        13
26.520        33
26.530        53
26.540        40
26.550        33
26.560        13
26.570        20
26.580        27
26.590        20
26.600        47
26.610        27
26.620        53
26.630        33
26.640        53
26.650        13
26.660         7
26.670        47
26.680        27
26.690        73
26.700        33
26.710         7
26.720        27
26.730        60
26.740        33
26.750        13
26.760        47
26.770        33
26.780        53
26.790        40
26.800        33
26.810        27
26.820        47
26.830        20
26.840        40
26.850        27
26.860        40
26.870        20
26.880        13
26.890        20
26.900        27
26.910        40
26.920        33
26.930        33
26.940        20
26.950        27
26.960        53
26.970        40
26.980        27
26.990        27
27.000        13
27.010        33
27.020        40
27.030        33
27.040        47
27.050        27
27.060        40
27.070        27
27.080        20
27.090        27
27.100        27
27.110        27
27.120         7
27.130        33
27.140        33
27.150        20
27.160        27
27.170        40
27.180         0
27.190        27
27.200        20
27.210        33
27.220        40
27.230        40
27.240        13
27.250        33
27.260        20
27.270        33
27.280        13
27.290        40
27.300        20
27.310        13
27.320        47
27.330        60
27.340        20
27.350        27
27.360        33
27.370        47
27.380        27
27.390        33
27.400        20
27.410        40
27.420        33
27.430        33
27.440        27
27.450        27
27.460        53
27.470        20
27.480        33
27.490        33
27.500        13
27.510        53
27.520        33
27.530        27
27.540        47
27.550        27
27.560        20
27.570        33
27.580        60
27.590        20
27.600        20
27.610        40
27.620        13
27.630        20
27.640        13
27.650        27
27.660        40
27.670        33
27.680        13
27.690        27
27.700        13
27.710        27
27.720        27
27.730        20
27.740         7
27.750        40
27.760        33
27.770        33
27.780        33
27.790        13
27.800         0
27.810        47
27.820        33
27.830        20
27.840        33
27.850        13
27.860        27
27.870        53
27.880        27
27.890        27
27.900        13
27.910        13
27.920        40
27.930        27
27.940        47
27.950        13
27.960        20
27.970        20
27.980        20
27.990        33
28.000        20
28.010        47
28.020        20
28.030         0
28.040        13
28.050        27
28.060        73
28.070        27
28.080        20
28.090        33
28.100        33
28.110         0
28.120         0
28.130        20
28.140        33
28.150        27
28.160        33
28.170        40
28.180         7
28.190        40
28.200        40
28.210        47
28.220        20
28.230        33
28.240        20
28.250        40
28.260        47
28.270        20
28.280        27
28.290         7
28.300        27
28.310        13
28.320        53
28.330        33
28.340        13
28.350        33
28.360        33
28.370        47
28.380         7
28.390        20
28.400        27
28.410         7
28.420        60
28.430        20
28.440        13
28.450        53
28.460         7
28.470        27
28.480        20
28.490        13
28.500        13
28.510        67
28.520        13
28.530        27
28.540        33
28.550        33
28.560        20
28.570        40
28.580        27
28.590         0
28.600        13
28.610        20
28.620        20
28.630        33
28.640        33
28.650        27
28.660        27
28.670        13
28.680        27
28.690         0
28.700        13
28.710        40
28.720        60
28.730        27
28.740        13
28.750        13
28.760        13
28.770        20
28.780        33
28.790        33
28.800        20
28.810        13
28.820        27
28.830        40
28.840        33
28.850        27
28.860        13
28.870        20
28.880        20
28.890        33
28.900        13
28.910        33
28.920        33
28.930        27
28.940        33
28.950        13
28.960        20
28.970        20
28.980        33
28.990        27
29.000        40
29.010        27
29.020        20
29.030        27
29.040        40
29.050        33
29.060         7
29.070        40
29.080        40
29.090         7
29.100        27
29.110        27
29.120        47
29.130        20
29.140        27
29.150        20
29.160        73
29.170        27
29.180        27
29.190         7
29.200        20
29.210        33
29.220        33
29.230        47
29.240        33
29.250        80
29.260        40
29.270        27
29.280        67
29.290        47
29.300        33
29.310        47
29.320        73
29.330        27
29.340        27
29.350        33
29.360        53
29.370        33
29.380        27
29.390        27
29.400        60
29.410        20
29.420        20
29.430         7
29.440        13
29.450        33
29.460        13
29.470         7
29.480        33
29.490        27
29.500         7
29.510        13
29.520        20
29.530        40
29.540        33
29.550        13
29.560         7
29.570         7
29.580         7
29.590        33
29.600        27
29.610        27
29.620        33
29.630        13
29.640        13
29.650         0
29.660        20
29.670        33
29.680        20
29.690        13
29.700        27
29.710         7
29.720        20
29.730        13
29.740        20
29.750        20
29.760        20
29.770        20
29.780        27
29.790        20
29.800        40
29.810        13
29.820        27
29.830        20
29.840        13
29.850        20
29.860        27
29.870        27
29.880        27
29.890         7
29.900        53
29.910        27
29.920        27
29.930        27
29.940        40
29.950        20
29.960        13
29.970        13
29.980        33
29.990        20
30.000        20
30.010        27
30.020        33
30.030        40
30.040        13
30.050        27
30.060        27
30.070        40
30.080        20
30.090        20
30.100        33
30.110         7
30.120         7
30.130        27
30.140        13
30.150        20
30.160        53
30.170        27
30.180        20
30.190        13
30.200        27
30.210         7
30.220         7
30.230        20
30.240        13
30.250        20
30.260         7
30.270        27
30.280        40
30.290        20
30.300        13
30.310        27
30.320        20
30.330        27
30.340         7
30.350        13
30.360        47
30.370        20
30.380        13
30.390        33
30.400        13
30.410         0
30.420        20
30.430        13
30.440        27
30.450        20
30.460        47
30.470        13
30.480        20
30.490        33
30.500        27
30.510        40
30.520         7
30.530        27
30.540        20
30.550        40
30.560        13
30.570        33
30.580         7
30.590        27
30.600        20
30.610        33
30.620        33
30.630        27
30.640        27
30.650        27
30.660        20
30.670        13
30.680        13
30.690        40
30.700        13
30.710        13
30.720        13
30.730         7
30.740        20
30.750         7
30.760        27
30.770        20
30.780        13
30.790         7
30.800        13
30.810        13
30.820        13
30.830        47
30.840        40
30.850        13
30.860        20
30.870        20
30.880        33
30.890        13
30.900        13
30.910         7
30.920        33
30.930        40
30.940        13
30.950        60
30.960        20
30.970        40
30.980        73
30.990        27
31.000        20
31.010        27
31.020        27
31.030         7
31.040        13
31.050        13
31.060        27
31.070        13
31.080        20
31.090         7
31.100        40
31.110        20
31.120        13
31.130        20
31.140        20
31.150        33
31.160        33
31.170        20
31.180        27
31.190         7
31.200        40
31.210        27
31.220         7
31.230        33
31.240        53
31.250        27
31.260         7
31.270        27
31.280        20
31.290        27
31.300        13
31.310        33
31.320        20
31.330        27
31.340        40
31.350        20
31.360        33
31.370        40
31.380         7
31.390        13
31.400        13
31.410        27
31.420        13
31.430        13
31.440        53
31.450        47
31.460        13
31.470        40
31.480        27
31.490        13
31.500        47
31.510        13
31.520         0
31.530        20
31.540        47
31.550        20
31.560        13
31.570        20
31.580        40
31.590        27
31.600        13
31.610        40
31.620        33
31.630        53
31.640        60
31.650        13
31.660        13
31.670        33
31.680        47
31.690        53
31.700        20
31.710        13
31.720        20
31.730        40
31.740        13
31.750        20
31.760        40
31.770        33
31.780        27
31.790        13
31.800        27
31.810        27
31.820        13
31.830         7
31.840        13
31.850         0
31.860        20
31.870        40
31.880         7
31.890        33
31.900        27
31.910        13
31.920        13
31.930        33
31.940         7
31.950         0
31.960        47
31.970        27
31.980        13
31.990         0
32.000        20
32.010        13
32.020         7
32.030        33
32.040        27
32.050        20
32.060        13
32.070        20
32.080        13
32.090        33
32.100        13
32.110        33
32.120        40
32.130        33
32.140        20
32.150        40
32.160        53
32.170        27
32.180        27
32.190        27
32.200        27
32.210        33
32.220        60
32.230        60
32.240        47
32.250        47
32.260        13
32.270        13
32.280        60
32.290        80
32.300        67
32.310        93
32.320       100
32.330        60
32.340        60
32.350        60
32.360       100
32.370       133
32.380       193
32.390       180
32.400       200
32.410       253
32.420       173
32.430       247
32.440       233
32.450       253
32.460       300
32.470       340
32.480       287
32.490       240
32.500       327
32.510       273
32.520       267
32.530       227
32.540       147
32.550       140
32.560       140
32.570       120
32.580        87
32.590       147
32.600       107
32.610       107
32.620       113
32.630        67
32.640        33
32.650        40
32.660        67
32.670        27
32.680        27
32.690        20
32.700        27
32.710        27
32.720        27
32.730        33
32.740        33
32.750        20
32.760        20
32.770        33
32.780        33
32.790         7
32.800         7
32.810        33
32.820        13
32.830        27
32.840        13
32.850        27
32.860         7
32.870        33
32.880        20
32.890        13
32.900        13
32.910        27
32.920        33
32.930        13
32.940        33
32.950        33
32.960        40
32.970        20
32.980        20
32.990        27
33.000        20
33.010        20
33.020        13
33.030         7
33.040        47
33.050        27
33.060        20
33.070        27
33.080         7
33.090        33
33.100         7
33.110        13
33.120        33
33.130        13
33.140        13
33.150        33
33.160         7
33.170        33
33.180        33
33.190        33
33.200        13
33.210        13
33.220        13
33.230        20
33.240        33
33.250        13
33.260        27
33.270        60
33.280        20
33.290        27
33.300        20
33.310        13
33.320        20
33.330        13
33.340        40
33.350        13
33.360        27
33.370        13
33.380        20
33.390        13
33.400         0
33.410         0
33.420        20
33.430        27
33.440        27
33.450        40
33.460        20
33.470         7
33.480        13
33.490        13
33.500        27
33.510         7
33.520         0
33.530        13
33.540         0
33.550        27
33.560        47
33.570        40
33.580        13
33.590        20
33.600        27
33.610        27
33.620        40
33.630         7
33.640         7
33.650        33
33.660        13
33.670        13
33.680        13
33.690         0
33.700        13
33.710         7
33.720        20
33.730        13
33.740        13
33.750         7
33.760        13
33.770        27
33.780        33
33.790         7
33.800        33
33.810        13
33.820         0
33.830        20
33.840        13
33.850        33
33.860        20
33.870         7
33.880        20
33.890        47
33.900         7
33.910        13
33.920        40
33.930        27
33.940        13
33.950         7
33.960        20
33.970        47
33.980        27
33.990        33
34.000        13
34.010        20
34.020        20
34.030         0
34.040        47
34.050         7
34.060        27
34.070        33
34.080        27
34.090        20
34.100        13
34.110         7
34.120        33
34.130        20
34.140        20
34.150        27
34.160        20
34.170        20
34.180        33
34.190        20
34.200         7
34.210         7
34.220        33
34.230         0
34.240        33
34.250        27
34.260         7
34.270        27
34.280        27
34.290        27
34.300        13
34.310         7
34.320        27
34.330         7
34.340        13
34.350         7
34.360         0
34.370         7
34.380         7
34.390        67
34.400         0
34.410         7
34.420        33
34.430        27
34.440        40
34.450        33
34.460        40
34.470        20
34.480         0
34.490        20
34.500        33
34.510        20
34.520        13
34.530        40
34.540        13
34.550        13
34.560        27
34.570        20
34.580        27
34.590         7
34.600        20
34.610        40
34.620         7
34.630        13
34.640        20
34.650        27
34.660        20
34.670        33
34.680        13
34.690        20
34.700        27
34.710         7
34.720         7
34.730        27
34.740         7
34.750        27
34.760         0
34.770         7
34.780        20
34.790        13
34.800         7
34.810        33
34.820         7
34.830        47
34.840         0
34.850        20
34.860        20
34.870        27
34.880         0
34.890        20
34.900         7
34.910        13
34.920        13
34.930        13
34.940        13
34.950        13
34.960        27
34.970        27
34.980        20
34.990         7
35.000        13
35.010         7
35.020        13
35.030        13
35.040        20
35.050        20
35.060        53
35.070         7
35.080        27
35.090        13
35.100        27
35.110        20
35.120        13
35.130        20
35.140        13
35.150        47
35.160         7
35.170        27
35.180        20
35.190        13
35.200        20
35.210         7
35.220        40
35.230        40
35.240        40
35.250        20
35.260        13
35.270        13
35.280        27
35.290        40
35.300        13
35.310        13
35.320         7
35.330        13
35.340        20
35.350        27
35.360        27
35.370        13
35.380         7
35.390         7
35.400        20
35.410        20
35.420        13
35.430        13
35.440        27
35.450        33
35.460        13
35.470         7
35.480         7
35.490        13
35.500         7
35.510        53
35.520        33
35.530        20
35.540        27
35.550        20
35.560        13
35.570        33
35.580         7
35.590        13
35.600        20
35.610        27
35.620        13
35.630        33
35.640        40
35.650        20
35.660         7
35.670        20
35.680         7
35.690        13
35.700        27
35.710        20
35.720        20
35.730        20
35.740        20
35.750        13
35.760        27
35.770        33
35.780        13
35.790        20
35.800        27
35.810        20
35.820        13
35.830        33
35.840         7
35.850        33
35.860        20
35.870        33
35.880        20
35.890        27
35.900        33
35.910        13
35.920        40
35.930        33
35.940         7
35.950        33
35.960        13
35.970         7
35.980        33
35.990        27
36.000        13
36.010         7
36.020        13
36.030        20
36.040        20
36.050        20
36.060        20
36.070        20
36.080        20
36.090         7
36.100        20
36.110         7
36.120         7
36.130        20
36.140        13
36.150        27
36.160         7
36.170        27
36.180         7
36.190        20
36.200        20
36.210        20
36.220         0
36.230        40
36.240         7
36.250        20
36.260        33
36.270         0
36.280         7
36.290        33
36.300        13
36.310        33
36.320        13
36.330        20
36.340        33
36.350        20
36.360         0
36.370        20
36.380        20
36.390        27
36.400         7
36.410        13
36.420        27
36.430        20
36.440        20
36.450        20
36.460        13
36.470        47
36.480        13
36.490        40
36.500        13
36.510        20
36.520         7
36.530         7
36.540        20
36.550         0
36.560        13
36.570        20
36.580        13
36.590        27
36.600        20
36.610        20
36.620         7
36.630         7
36.640        20
36.650        27
36.660         7
36.670        27
36.680        33
36.690        20
36.700        20
36.710         7
36.720         7
36.730         7
36.740        27
36.750         7
36.760        27
36.770        27
36.780         7
36.790        20
36.800        20
36.810         7
36.820        13
36.830        20
36.840        40
36.850        13
36.860         0
36.870        20
36.880         0
36.890        47
36.900        13
36.910        13
36.920        13
36.930        27
36.940        13
36.950        20
36.960         7
36.970        20
36.980        27
36.990        27
37.000         7
37.010        20
37.020         7
37.030        20
37.040        33
37.050         7
37.060         0
37.070        13
37.080         7
37.090        27
37.100        13
37.110         7
37.120         7
37.130        27
37.140         7
37.150        20
37.160         7
37.170        20
37.180         0
37.190         7
37.200        13
37.210        33
37.220         0
37.230        20
37.240         7
37.250        13
37.260        40
37.270        20
37.280        13
37.290         0
37.300         7
37.310        20
37.320        33
37.330        27
37.340        13
37.350        47
37.360        33
37.370        13
37.380        13
37.390        13
37.400        47
37.410        13
37.420         7
37.430         7
37.440        33
37.450        27
37.460        13
37.470        20
37.480        33
37.490         7
37.500        40
37.510         7
37.520        20
37.530        13
37.540         7
37.550        20
37.560        13
37.570        20
37.580        13
37.590        20
37.600        13
37.610        33
37.620        13
37.630        20
37.640        20
37.650        47
37.660        13
37.670        53
37.680        33
37.690        13
37.700        27
37.710        13
37.720         7
37.730         7
37.740        20
37.750        13
37.760        33
37.770        20
37.780        27
37.790        20
37.800        13
37.810        27
37.820        33
37.830        13
37.840         7
37.850        40
37.860        13
37.870        13
37.880         0
37.890        27
37.900        20
37.910         0
37.920        13
37.930         7
37.940        33
37.950        13
37.960        20
37.970         0
37.980        33
37.990        13
38.000        20
38.010        27
38.020        13
38.030        27
38.040        13
38.050         7
38.060        27
38.070        27
38.080        33
38.090        33
38.100        27
38.110        13
38.120        33
38.130        13
38.140        13
38.150         7
38.160        27
38.170        20
38.180        20
38.190        47
38.200        13
38.210        13
38.220        33
38.230        20
38.240        20
38.250        13
38.260         7
38.270        20
38.280        20
38.290        27
38.300        40
38.310        27
38.320        33
38.330        13
38.340         7
38.350        13
38.360        20
38.370        20
38.380        20
38.390        20
38.400         0
38.410        27
38.420         7
38.430         7
38.440         7
38.450        13
38.460        13
38.470         0
38.480         0
38.490        13
38.500         7
38.510        13
38.520        13
38.530        27
38.540        13
38.550        13
38.560        13
38.570         7
38.580        13
38.590        27
38.600         7
38.610        13
38.620        20
38.630        20
38.640         7
38.650        20
38.660        20
38.670        33
38.680        20
38.690         7
38.700        27
38.710        13
38.720        40
38.730        20
38.740        20
38.750        20
38.760        13
38.770        20
38.780        33
38.790        13
38.800        27
38.810        20
38.820        20
38.830         7
38.840         7
38.850        20
38.860         7
38.870         7
38.880        13
38.890        20
38.900         7
38.910        13
38.920        13
38.930        20
38.940        33
38.950        20
38.960         7
38.970         7
38.980        20
38.990        13
39.000        20
39.010         7
39.020        27
39.030        27
39.040        33
39.050        13
39.060         7
39.070         7
39.080        27
39.090        13
39.100        20
39.110         7
39.120        13
39.130        33
39.140         0
39.150        33
39.160         0
39.170        13
39.180         7
39.190        33
39.200        33
39.210        27
39.220         7
39.230        13
39.240        33
39.250        20
39.260        33
39.270        20
39.280        33
39.290        27
39.300        40
39.310        40
39.320        40
39.330        40
39.340        13
39.350         0
39.360        20
39.370        27
39.380        20
39.390        27
39.400        33
39.410        20
39.420        13
39.430         7
39.440        27
39.450        20
39.460        13
39.470        13
39.480        40
39.490         7
39.500        13
39.510        13
39.520         7
39.530        27
39.540        20
39.550        27
39.560        33
39.570        13
39.580        27
39.590        33
39.600         7
39.610        27
39.620        20
39.630        13
39.640        20
39.650        27
39.660        13
39.670        20
39.680        40
39.690        13
39.700        33
39.710        27
39.720        20
39.730        53
39.740        13
39.750        20
39.760        20
39.770        40
39.780        27
39.790         7
39.800         7
39.810        47
39.820        20
39.830        27
39.840        27
39.850        20
39.860        20
39.870        13
39.880        33
39.890        47
39.900        20
39.910        33
39.920         7
39.930        40
39.940        13
39.950        33
39.960        60
39.970        73
39.980        33
39.990        40
40.000        47
40.010        73
40.020        47
40.030        53
40.040        53
40.050        20
40.060        87
40.070        40
40.080         0
40.090        47
40.100        67
40.110        13
40.120        20
40.130        33
40.140        47
40.150        40
40.160        33
40.170        67
40.180        40
40.190        27
40.200        33
40.210        67
40.220        20
40.230        33
40.240        13
40.250        27
40.260        40
40.270        27
40.280        13
40.290        20
40.300        27
40.310        20
40.320        20
40.330        20
40.340        27
40.350         7
40.360        20
40.370        13
40.380        33
40.390        27
40.400        13
40.410         0
40.420        20
40.430        13
40.440        27
40.450        27
40.460        13
40.470         7
40.480        20
40.490        13
40.500        33
40.510        33
40.520         7
40.530         7
40.540        27
40.550        13
40.560        27
40.570        33
40.580        20
40.590        13
40.600        33
40.610         0
40.620         0
40.630        13
40.640         7
40.650        27
40.660         7
40.670        20
40.680        33
40.690        13
40.700        33
40.710        27
40.720         0
40.730        27
40.740        27
40.750        20
40.760        13
40.770        13
40.780        13
40.790        27
40.800        27
40.810        13
40.820         7
40.830        27
40.840        27
40.850        20
40.860        27
40.870        20
40.880         0
40.890        20
40.900        20
40.910         0
40.920        27
40.930         7
40.940        33
40.950        27
40.960        20
40.970        27
40.980         7
40.990        13
41.000         0
41.010        33
41.020        20
41.030         0
41.040        27
41.050         7
41.060         0
41.070        20
41.080        27
41.090         7
41.100        20
41.110         0
41.120         0
41.130        13
41.140        20
41.150        33
41.160        13
41.170         0
41.180        53
41.190        20
41.200        33
41.210         7
41.220        20
41.230         7
41.240        27
41.250        13
41.260        13
41.270        20
41.280        13
41.290        20
41.300        33
41.310        20
41.320         7
41.330         7
41.340        33
41.350         7
41.360         7
41.370        33
41.380        13
41.390         7
41.400        20
41.410        13
41.420        27
41.430        27
41.440        13
41.450        13
41.460        13
41.470         7
41.480        47
41.490         7
41.500        13
41.510        13
41.520         7
41.530        13
41.540        13
41.550        20
41.560        20
41.570        27
41.580        20
41.590        20
41.600        13
41.610        27
41.620         7
41.630        67
41.640        27
41.650        40
41.660        27
41.670        33
41.680        33
41.690        20
41.700        27
41.710         0
41.720        13
41.730        13
41.740        13
41.750        27
41.760        20
41.770        20
41.780        53
41.790        13
41.800        20
41.810        27
41.820        73
41.830        40
41.840        47
41.850        33
41.860        20
41.870        33
41.880        47
41.890        13
41.900        27
41.910        40
41.920        33
41.930         7
41.940        20
41.950        20
41.960        27
41.970        27
41.980        20
41.990        20
42.000        13
42.010        27
42.020        20
42.030        60
42.040         7
42.050        13
42.060        13
42.070        13
42.080        13
42.090        13
42.100        27
42.110        20
42.120        27
42.130        40
42.140        20
42.150        13
42.160         0
42.170        40
42.180        33
42.190         7
42.200        20
42.210        13
42.220        13
42.230        33
42.240        13
42.250        13
42.260         7
42.270        33
42.280        13
42.290        33
42.300        40
42.310         0
42.320        20
42.330        13
42.340         7
42.350        13
42.360        20
42.370        20
42.380        13
42.390        27
42.400         7
42.410        20
42.420        13
42.430        20
42.440        33
42.450        33
42.460         7
42.470        27
42.480        40
42.490        20
42.500        20
42.510         7
42.520        27
42.530        13
42.540        27
42.550        13
42.560        33
42.570        20
42.580         7
42.590         7
42.600         7
42.610        13
42.620        27
42.630        20
42.640        27
42.650         7
42.660         0
42.670        13
42.680         7
42.690        27
42.700        27
42.710        27
42.720        13
42.730        27
42.740        20
42.750        47
42.760        13
42.770         7
42.780        13
42.790        27
42.800        33
42.810         7
42.820        20
42.830         7
42.840         0
42.850        13
42.860        33
42.870        33
42.880        20
42.890         7
42.900         0
42.910        13
42.920        13
42.930         7
42.940        27
42.950        13
42.960        20
42.970        20
42.980         7
42.990        27
43.000        47
43.010        27
43.020        33
43.030        60
43.040        20
43.050        20
43.060        27
43.070         7
43.080         7
43.090        40
43.100        20
43.110         7
43.120        13
43.130        40
43.140        33
43.150        40
43.160         7
43.170        13
43.180        20
43.190        13
43.200        13
43.210        20
43.220        13
43.230         0
43.240        13
43.250        20
43.260        13
43.270        33
43.280        20
43.290        27
43.300        27
43.310        33
43.320         0
43.330        27
43.340        33
43.350        13
43.360        40
43.370         7
43.380        33
43.390         7
43.400        33
43.410        13
43.420        20
43.430         0
43.440        20
43.450         0
43.460        33
43.470        13
43.480        33
43.490        13
43.500        13
43.510        33
43.520        13
43.530        20
43.540         7
43.550        20
43.560         7
43.570        47
43.580        27
43.590        33
43.600         0
43.610        40
43.620         7
43.630        20
43.640        40
43.650         0
43.660        20
43.670         0
43.680        13
43.690        40
43.700        33
43.710        13
43.720        33
43.730        20
43.740        13
43.750        20
43.760        27
43.770        13
43.780         7
43.790        13
43.800         7
43.810        40
43.820        20
43.830        27
43.840        13
43.850        20
43.860        20
43.870        13
43.880        13
43.890        13
43.900        27
43.910        20
43.920        40
43.930         0
43.940         7
43.950        27
43.960        20
43.970        27
43.980        33
43.990        13
44.000        13
44.010        27
44.020        13
44.030        27
44.040        20
44.050        20
44.060        33
44.070         7
44.080        20
44.090        27
44.100         7
44.110        53
44.120        40
44.130        13
44.140        27
44.150        20
44.160        40
44.170        13
44.180        20
44.190        20
44.200        20
44.210         7
44.220         0
44.230        20
44.240        27
44.250         7
44.260        20
44.270        13
44.280        27
44.290        20
44.300         7
44.310        53
44.320         0
44.330        33
44.340        20
44.350        13
44.360        20
44.370        20
44.380        27
44.390        13
44.400        13
44.410        20
44.420        40
44.430        27
44.440        27
44.450        20
44.460        27
44.470        13
44.480         7
44.490        20
44.500        13
44.510        20
44.520         7
44.530        20
44.540        47
44.550        27
44.560        40
44.570         7
44.580        27
44.590        13
44.600        27
44.610        13
44.620        40
44.630        20
44.640        20
44.650        33
44.660        20
44.670         7
44.680        13
44.690        20
44.700        13
44.710        40
44.720        27
44.730        13
44.740         7
44.750        40
44.760        20
44.770         7
44.780        27
44.790        47
44.800        20
44.810        27
44.820        20
44.830        20
44.840        33
44.850        20
44.860        20
44.870         7
44.880        40
44.890        13
44.900        33
44.910         7
44.920        27
44.930        33
44.940        60
44.950        20
44.960        40
44.970        27
44.980        27
44.990        27
45.000        20
45.010         7
45.020        33
45.030        20
45.040        20
45.050        33
45.060        27
45.070        53
45.080        20
45.090        33
45.100        20
45.110        27
45.120        47
45.130        20
45.140        67
45.150        47
45.160        40
45.170        20
45.180        13
45.190        27
45.200        27
45.210        20
45.220        47
45.230        20
45.240        40
45.250        60
45.260        33
45.270        20
45.280        47
45.290        40
45.300        27
45.310        73
45.320        40
45.330        13
45.340        47
45.350        60
45.360        33
45.370        13
45.380        27
45.390        33
45.400        33
45.410        53
45.420        47
45.430        20
45.440        27
45.450        40
45.460        47
45.470         0
45.480         0
45.490        40
45.500        73
45.510        47
45.520        53
45.530        47
45.540        27
45.550        33
45.560        27
45.570        67
45.580        27
45.590        40
45.600        27
45.610        33
45.620        60
45.630        47
45.640        53
45.650        27
45.660        33
45.670        20
45.680        40
45.690        40
45.700         7
45.710        20
45.720        60
45.730        47
45.740        73
45.750        53
45.760        20
45.770        33
45.780        47
45.790        13
45.800        47
45.810        40
45.820        27
45.830        33
45.840        60
45.850        60
45.860        60
45.870        47
45.880        67
45.890        80
45.900        47
45.910        73
45.920        60
45.930        20
45.940        40
45.950        60
45.960        67
45.970        53
45.980        53
45.990        80
46.000        80
46.010        93
46.020       107
46.030        80
46.040        87
46.050        60
46.060       107
46.070        93
46.080       120
46.090        80
46.100       100
46.110       133
46.120       107
46.130       113
46.140        87
46.150       160
46.160       147
46.170       153
46.180       160
46.190       193
46.200       213
46.210       133
46.220       233
46.230       227
46.240       213
46.250       287
46.260       273
46.270       413
46.280       353
46.290       313
46.300       533
46.310       433
46.320       526
46.330       620
46.340       540
46.350       646
46.360       653
46.370       833
46.380       913
46.390       960
46.400      1033
46.410      1013
46.420      1206
46.430      1373
46.440      1466
46.450      1673
46.460      1706
46.470      1993
46.480      1933
46.490      2139
46.500      2252
46.510      2226
46.520      2459
46.530      2432
46.540      2559
46.550      2679
46.560      2639
46.570      2652
46.580      2672
46.590      2572
46.600      2479
46.610      2659
46.620      2312
46.630      2073
46.640      2172
46.650      1959
46.660      2019
46.670      1899
46.680      2019
46.690      1466
46.700      1866
46.710      1466
46.720      1346
46.730      1173
46.740      1186
46.750       980
46.760       760
46.770       946
46.780       833
46.790       726
46.800       540
46.810       646
46.820       500
46.830       426
46.840       486
46.850       373
46.860       340
46.870       293
46.880       280
46.890       253
46.900       227
46.910       240
46.920       187
46.930       187
46.940       207
46.950       167
46.960       100
46.970       173
46.980       113
46.990       153
47.000       100
47.010       120
47.020       100
47.030       133
47.040        67
47.050        93
47.060       120
47.070        93
47.080        47
47.090        73
47.100        80
47.110        33
47.120        53
47.130        53
47.140       100
47.150        60
47.160        87
47.170        60
47.180        67
47.190        73
47.200        73
47.210        73
47.220        60
47.230        73
47.240        67
47.250       100
47.260        53
47.270        33
47.280        80
47.290        67
47.300        53
47.310        40
47.320        73
47.330        40
47.340        87
47.350        47
47.360        53
47.370        80
47.380        93
47.390        40
47.400        87
47.410        47
47.420        47
47.430        67
47.440        47
47.450        40
47.460        60
47.470        87
47.480        67
47.490        67
47.500        53
47.510        33
47.520        60
47.530        40
47.540        33
47.550        33
47.560        60
47.570        60
47.580        40
47.590        47
47.600        40
47.610        60
47.620        33
47.630        47
47.640        60
47.650        27
47.660        47
47.670        27
47.680        27
47.690        20
47.700        27
47.710        20
47.720        13
47.730        40
47.740        27
47.750        20
47.760        20
47.770        47
47.780        33
47.790        47
47.800        20
47.810        27
47.820        33
47.830        47
47.840        27
47.850        47
47.860        67
47.870        47
47.880        33
47.890         7
47.900        27
47.910        47
47.920        47
47.930        33
47.940        27
47.950        40
47.960        13
47.970        20
47.980        47
47.990        53
48.000         7
48.010        47
48.020        47
48.030        13
48.040        40
48.050        13
48.060        53
48.070        27
48.080        33
48.090        40
48.100        60
48.110         7
48.120        80
48.130        27
48.140        40
48.150        27
48.160        40
48.170        27
48.180        33
48.190        27
48.200        33
48.210        20
48.220        73
48.230        27
48.240        40
48.250        27
48.260        13
48.270         7
48.280        27
48.290        40
48.300        27
48.310        60
48.320        13
48.330        53
48.340        33
48.350        40
48.360        20
48.370        40
48.380        60
48.390        13
48.400        53
48.410        20
48.420        27
48.430        47
48.440        53
48.450        27
48.460        27
48.470        27
48.480        47
48.490        27
48.500        40
48.510         7
48.520        27
48.530        20
48.540        27
48.550        27
48.560        20
48.570        20
48.580        33
48.590        33
48.600         7
48.610        33
48.620        33
48.630        13
48.640        20
48.650        13
48.660        53
48.670        33
48.680        33
48.690        13
48.700        47
48.710        73
48.720        40
48.730        20
48.740        13
48.750        47
48.760        40
48.770        20
48.780        13
48.790        27
48.800        53
48.810        33
48.820        27
48.830        27
48.840        20
48.850        33
48.860        13
48.870        53
48.880        33
48.890        40
48.900        20
48.910        40
48.920        53
48.930        33
48.940        20
48.950        40
48.960        27
48.970        33
48.980         0
48.990        20
49.000        20
49.010        27
49.020        27
49.030        20
49.040        33
49.050        20
49.060        33
49.070         7
49.080        27
49.090        13
49.100        33
49.110        13
49.120         7
49.130        33
49.140        33
49.150        13
49.160        13
49.170        27
49.180        27
49.190        27
49.200        33
49.210        33
49.220         0
49.230        20
49.240        13
49.250        20
49.260        33
49.270        33
49.280        13
49.290        33
49.300        33
49.310        20
49.320        33
49.330        20
49.340        20
49.350        13
49.360        13
49.370        33
49.380        13
49.390        53
49.400        20
49.410        27
49.420        20
49.430        13
49.440         7
49.450        27
49.460        40
49.470        27
49.480         7
49.490        13
49.500        27
49.510        40
49.520         7
49.530        13
49.540        13
49.550        27
49.560        47
49.570        60
49.580        27
49.590        20
49.600        60
49.610         7
49.620        20
49.630        27
49.640        27
49.650        47
49.660        20
49.670         7
49.680        27
49.690        13
49.700        13
49.710        33
49.720        13
49.730        27
49.740        47
49.750        13
49.760         7
49.770        27
49.780        13
49.790         7
49.800        20
49.810        13
49.820         7
49.830        13
49.840        47
49.850        33
49.860        53
49.870        27
49.880         7
49.890        13
49.900        13
49.910         7
49.920        33
49.930        33
49.940        13
49.950        40
49.960        20
49.970        47
49.980        40
49.990        27
50.000        20
50.010        13
50.020        27
50.030        27
50.040        40
50.050        13
50.060        13
50.070        20
50.080        27
50.090        40
50.100        13
50.110         7
50.120        20
50.130        13
50.140         0
50.150        20
50.160        33
50.170        27
50.180        53
50.190         7
50.200         7
50.210         7
50.220        20
50.230        27
50.240        33
50.250        47
50.260        47
50.270        20
50.280        40
50.290        33
50.300        40
50.310        47
50.320        33
50.330        27
50.340         7
50.350        20
50.360        13
50.370        20
50.380        20
50.390        40
50.400         7
50.410         0
50.420         7
50.430        20
50.440        20
50.450        27
50.460         0
50.470        20
50.480        13
50.490        20
50.500        13
50.510        27
50.520        33
50.530        40
50.540        27
50.550        53
50.560        20
50.570        33
50.580        27
50.590        33
50.600        47
50.610        27
50.620        27
50.630        33
50.640        13
50.650        20
50.660        27
50.670        47
50.680        20
50.690        13
50.700        13
50.710        20
50.720        27
50.730        40
50.740        33
50.750        27
50.760        33
50.770        27
50.780        20
50.790        13
50.800        27
50.810        33
50.820        20
50.830        20
50.840        40
50.850        20
50.860        20
50.870        20
50.880        33
50.890        40
50.900        20
50.910        27
50.920        20
50.930        40
50.940        20
50.950        53
50.960        40
50.970        40
50.980         7
50.990        13
51.000        33
51.010        27
51.020        33
51.030         0
51.040        20
51.050        20
51.060        20
51.070        33
51.080        47
51.090        27
51.100        27
51.110        27
51.120         7
51.130        33
51.140        20
51.150        67
51.160        20
51.170         0
51.180        20
51.190        20
51.200        33
51.210        20
51.220         7
51.230        20
51.240        27
51.250        27
51.260        27
51.270        40
51.280        20
51.290        27
51.300        13
51.310        33
51.320        40
51.330        27
51.340        33
51.350        20
51.360        13
51.370        20
51.380        20
51.390        47
51.400        33
51.410        27
51.420        40
51.430        27
51.440        13
51.450        20
51.460        47
51.470        40
51.480         7
51.490        33
51.500        27
51.510        13
51.520        27
51.530        13
51.540        27
51.550         7
51.560        33
51.570        33
51.580        13
51.590         0
51.600        40
51.610        20
51.620        33
51.630        20
51.640        13
51.650        20
51.660        27
51.670        40
51.680        20
51.690        27
51.700        13
51.710        33
51.720        40
51.730        33
51.740        13
51.750        47
51.760        53
51.770        13
51.780        47
51.790        40
51.800        47
51.810        27
51.820        33
51.830        20
51.840        40
51.850        40
51.860        27
51.870        20
51.880        40
51.890         7
51.900        27
51.910        33
51.920        33
51.930        47
51.940        27
51.950        27
51.960        53
51.970        53
51.980        27
51.990        40
52.000        53
52.010        47
52.020        60
52.030        27
52.040        13
52.050        33
52.060        80
52.070        13
52.080        40
52.090        47
52.100        53
52.110        20
52.120        33
52.130         7
52.140        40
52.150        33
52.160        53
52.170        20
52.180        33
52.190        53
52.200        33
52.210        67
52.220        33
52.230        40
52.240        27
52.250        33
52.260        40
52.270        80
52.280        53
52.290        93
52.300        33
52.310        80
52.320        40
52.330        40
52.340        33
52.350        47
52.360        47
52.370        47
52.380        67
52.390        87
52.400       120
52.410        60
52.420        53
52.430        93
52.440        53
52.450       113
52.460       180
52.470       173
52.480       160
52.490       133
52.500       287
52.510       307
52.520       327
52.530       367
52.540       426
52.550       526
52.560       400
52.570       546
52.580       407
52.590       407
52.600       307
52.610       420
52.620       353
52.630       460
52.640       400
52.650       553
52.660       420
52.670       400
52.680       433
52.690       320
52.700       360
52.710       400
52.720       300
52.730       233
52.740       247
52.750       260
52.760       247
52.770       240
52.780       200
52.790       227
52.800       227
52.810       200
52.820       133
52.830       113
52.840       140
52.850       140
52.860        60
52.870       113
52.880        73
52.890        60
52.900        40
52.910        53
52.920        33
52.930        40
52.940        40
52.950        27
52.960        67
52.970        20
52.980        33
52.990        67
53.000        47
53.010        60
53.020        33
53.030        47
53.040        40
53.050        20
53.060        40
53.070        33
53.080        40
53.090        33
53.100        33
53.110        53
53.120        20
53.130        53
53.140        20
53.150         7
53.160        40
53.170        53
53.180        33
53.190        40
53.200        40
53.210        80
53.220        20
53.230        33
53.240        13
53.250        20
53.260        47
53.270        27
53.280        33
53.290         7
53.300        80
53.310        27
53.320        27
53.330        53
53.340        47
53.350        13
53.360        20
53.370        20
53.380        40
53.390        47
53.400        20
53.410        13
53.420        47
53.430        73
53.440        20
53.450        40
53.460        27
53.470        27
53.480        47
53.490        40
53.500        27
53.510        20
53.520         0
53.530        33
53.540        20
53.550        60
53.560        73
53.570        13
53.580         7
53.590        27
53.600        33
53.610        40
53.620        40
53.630        60
53.640        47
53.650        20
53.660        53
53.670        40
53.680        20
53.690        27
53.700        20
53.710         0
53.720         7
53.730        40
53.740        13
53.750        20
53.760        40
53.770        13
53.780        27
53.790        20
53.800        13
53.810        27
53.820        13
53.830        27
53.840        40
53.850        20
53.860        20
53.870        53
53.880        27
53.890        27
53.900        47
53.910        27
53.920        47
53.930        33
53.940        13
53.950        33
53.960        20
53.970        27
53.980        33
53.990        33
54.000        40
54.010        13
54.020        20
54.030        13
54.040        40
54.050        33
54.060        20
54.070        33
54.080        40
54.090        27
54.100        13
54.110        20
54.120        33
54.130         7
54.140        67
54.150        20
54.160        27
54.170        13
54.180        27
54.190        40
54.200        13
54.210        40
54.220        20
54.230        20
54.240        33
54.250        20
54.260        33
54.270        33
54.280        20
54.290        33
54.300        13
54.310         7
54.320        13
54.330        13
54.340        13
54.350        40
54.360        33
54.370        27
54.380        13
54.390        27
54.400        27
54.410        40
54.420        27
54.430        33
54.440        20
54.450        27
54.460         7
54.470        20
54.480        33
54.490        13
54.500        33
54.510        13
54.520        13
54.530        13
54.540        20
54.550        27
54.560        13
54.570        33
54.580        27
54.590        33
54.600        20
54.610        13
54.620        27
54.630        27
54.640        20
54.650        47
54.660        20
54.670         0
54.680        33
54.690        13
54.700        20
54.710        20
54.720        13
54.730         7
54.740        33
54.750        13
54.760         7
54.770        27
54.780        33
54.790        13
54.800        33
54.810         0
54.820        13
54.830         7
54.840         7
54.850        27
54.860        20
54.870        20
54.880        20
54.890        27
54.900        20
54.910        13
54.920        20
54.930        20
54.940        27
54.950        20
54.960        13
54.970        47
54.980        27
54.990         7
55.000        33
55.010        27
55.020         0
55.030        27
55.040        20
55.050        27
55.060        27
55.070        13
55.080        20
55.090         7
55.100        13
55.110        20
55.120        33
55.130        40
55.140        13
55.150        27
55.160        13
55.170        27
55.180        20
55.190         7
55.200        20
55.210        13
55.220        13
55.230        33
55.240        53
55.250        33
55.260        13
55.270        27
55.280        13
55.290        33
55.300         7
55.310         7
55.320        27
55.330        20
55.340        13
55.350        27
55.360        13
55.370        20
55.380        27
55.390        33
55.400        27
55.410        27
55.420        27
55.430         0
55.440        20
55.450        13
55.460        40
55.470        20
55.480        27
55.490        20
55.500        13
55.510        20
55.520        40
55.530        20
55.540        27
55.550        33
55.560        13
55.570        40
55.580        33
55.590        13
55.600        40
55.610        33
55.620        40
55.630         7
55.640         7
55.650        13
55.660        20
55.670        40
55.680        20
55.690        33
55.700        20
55.710        13
55.720        27
55.730        33
55.740        13
55.750        33
55.760        13
55.770        27
55.780        13
55.790         7
55.800        20
55.810        33
55.820        13
55.830        40
55.840        20
55.850        13
55.860         7
55.870        13
55.880        13
55.890        33
55.900         7
55.910         0
55.920        27
55.930         7
55.940        27
55.950        33
55.960        20
55.970         7
55.980        27
55.990         7
56.000         7
56.010         0
56.020        20
56.030         7
56.040        20
56.050        13
56.060        13
56.070         0
56.080        13
56.090        20
56.100        20
56.110         7
56.120        20
56.130        27
56.140        13
56.150        20
56.160        20
56.170         7
56.180        27
56.190         7
56.200        13
56.210        27
56.220         7
56.230        13
56.240         7
56.250        20
56.260        40
56.270        20
56.280        27
56.290         7
56.300        13
56.310         7
56.320        40
56.330        27
56.340        33
56.350        13
56.360        33
56.370         7
56.380        20
56.390        13
56.400        20
56.410        47
56.420        20
56.430        27
56.440        13
56.450        20
56.460        20
56.470        20
56.480        13
56.490        20
56.500        27
56.510         0
56.520         0
56.530        33
56.540        20
56.550        27
56.560        20
56.570        27
56.580        27
56.590        13
56.600         7
56.610         7
56.620        20
56.630        20
56.640        13
56.650        27
56.660        20
56.670        27
56.680        40
56.690         7
56.700        27
56.710        13
56.720        27
56.730        20
56.740        27
56.750         7
56.760        13
56.770        20
56.780        20
56.790        13
56.800         7
56.810         7
56.820         7
56.830        13
56.840        20
56.850        20
56.860         0
56.870         7
56.880        20
56.890        13
56.900         0
56.910         7
56.920         7
56.930        27
56.940        20
56.950        13
56.960        20
56.970        20
56.980        20
56.990        20
57.000        13
57.010        33
57.020        13
57.030        20
57.040         0
57.050        20
57.060        20
57.070        27
57.080         7
57.090         0
57.100        27
57.110        27
57.120        20
57.130        40
57.140        40
57.150        33
57.160        27
57.170        13
57.180         7
57.190        53
57.200         0
57.210        20
57.220        47
57.230        27
57.240        20
57.250        20
57.260        20
57.270        13
57.280        47
57.290         7
57.300        20
57.310         0
57.320        27
57.330        13
57.340         7
57.350        13
57.360        60
57.370        13
57.380        20
57.390        20
57.400        20
57.410        47
57.420        40
57.430        13
57.440        47
57.450         7
57.460        20
57.470        47
57.480        13
57.490        20
57.500        33
57.510         0
57.520        20
57.530         7
57.540         7
57.550        27
57.560        20
57.570        13
57.580         0
57.590        47
57.600        47
57.610        27
57.620         7
57.630        13
57.640        53
57.650        60
57.660         0
57.670        27
57.680        13
57.690        27
57.700         7
57.710         7
57.720        13
57.730        20
57.740        20
57.750        20
57.760         0
57.770        27
57.780        13
57.790        20
57.800        33
57.810         7
57.820        27
57.830        47
57.840        13
57.850        27
57.860        20
57.870         7
57.880        20
57.890        13
57.900        33
57.910        20
57.920        20
57.930        33
57.940        20
57.950        13
57.960        47
57.970        27
57.980         7
57.990        27
58.000        53
58.010        13
58.020        53
58.030        27
58.040        13
58.050        53
58.060        40
58.070        13
58.080        27
58.090        20
58.100        27
58.110        27
58.120        27
58.130        27
58.140        20
58.150        13
58.160        13
58.170        47
58.180        33
58.190        27
58.200        20
58.210        27
58.220        33
58.230         7
58.240        33
58.250        20
58.260        20
58.270        13
58.280        13
58.290        27
58.300         0
58.310        20
58.320        27
58.330        20
58.340        40
58.350         7
58.360        13
58.370        27
58.380        20
58.390        27
58.400        13
58.410        40
58.420        13
58.430        20
58.440        13
58.450         7
58.460         7
58.470         7
58.480        20
58.490        20
58.500        20
58.510        27
58.520        13
58.530         0
58.540         7
58.550        13
58.560        13
58.570        20
58.580        13
58.590         7
58.600        13
58.610        27
58.620        20
58.630        13
58.640        13
58.650        13
58.660        13
58.670         0
58.680        27
58.690        13
58.700        20
58.710        27
58.720        20
58.730        13
58.740        40
58.750        20
58.760        13
58.770        40
58.780        33
58.790         0
58.800         0
58.810         7
58.820        13
58.830        27
58.840        13
58.850        13
58.860        13
58.870        27
58.880        27
58.890        27
58.900        33
58.910        33
58.920        13
58.930         0
58.940         7
58.950        20
58.960        53
58.970        20
58.980        33
58.990        27
59.000        20
59.010        27
59.020        13
59.030         7
59.040        20
59.050        13
59.060        20
59.070         0
59.080         0
59.090        13
59.100        27
59.110        27
59.120        20
59.130        27
59.140        53
59.150        13
59.160        13
59.170        20
59.180        20
59.190        13
59.200        27
59.210         7
59.220        13
59.230        20
59.240        20
59.250         0
59.260        13
59.270        27
59.280        33
59.290         7
59.300         7
59.310        27
59.320        13
59.330        20
59.340         7
59.350        13
59.360        20
59.370        13
59.380        27
59.390         7
59.400        13
59.410         0
59.420        27
59.430        27
59.440        33
59.450         7
59.460        33
59.470        13
59.480        20
59.490        60
59.500        20
59.510         7
59.520        27
59.530        20
59.540        47
59.550        13
59.560        13
59.570        13
59.580        33
59.590        13
59.600        13
59.610        13
59.620        13
59.630        13
59.640        13
59.650         7
59.660         7
59.670        20
59.680        33
59.690        20
59.700        20
59.710        20
59.720         7
59.730        13
59.740         7
59.750        20
59.760        27
59.770        20
59.780        20
59.790        20
59.800        13
59.810        27
59.820        13
59.830        33
59.840        27
59.850        20
59.860        13
59.870        27
59.880         7
59.890         0
59.900        27
59.910         7
59.920         0
59.930         7
59.940        27
59.950        33
59.960         0
59.970         7
59.980        20
59.990        13
60.000        13
