20.000        23
20.020        23
20.040        60
20.060        73
20.080        37
20.100        43
20.120        43
20.140        43
20.160        53
20.180        53
20.200        33
20.220        40
20.240        73
20.260        33
20.280        40
20.300        43
20.320        40
20.340        50
20.360        40
20.380        37
20.400        50
20.420        43
20.440        33
20.460        30
20.480        40
20.500        27
20.520        50
20.540        50
20.560        60
20.580        30
20.600        40
20.620        40
20.640        53
20.660        53
20.680        27
20.700        47
20.720        33
20.740        37
20.760        40
20.780        60
20.800        53
20.820        33
20.840        40
20.860        43
20.880        47
20.900        53
20.920        50
20.940        17
20.960        37
20.980        53
21.000        47
21.020        67
21.040        50
21.060        43
21.080        30
21.100        43
21.120        50
21.140        53
21.160        50
21.180        30
21.200        67
21.220        27
21.240        63
21.260        47
21.280        43
21.300        57
21.320        67
21.340        53
21.360        43
21.380        33
21.400        57
21.420        47
21.440        10
21.460        23
21.480        43
21.500        37
21.520        63
21.540        60
21.560        40
21.580        43
21.600        50
21.620        37
21.640        43
21.660        33
21.680        37
21.700        30
21.720        23
21.740        37
21.760        43
21.780        40
21.800        37
21.820        27
21.840        50
21.860        17
21.880        33
21.900        37
21.920        53
21.940        40
21.960        37
21.980        53
22.000        30
22.020        43
22.040        43
22.060        40
22.080        47
22.100        27
22.120        23
22.140        60
22.160        20
22.180        37
22.200        60
22.220        63
22.240        57
22.260        27
22.280        43
22.300        57
22.320        53
22.340        43
22.360        53
22.380        33
22.400        57
22.420        73
22.440        53
22.460        63
22.480        43
22.500        83
22.520        97
22.540        80
22.560        87
22.580        93
22.600        97
22.620        93
22.640       123
22.660        83
22.680        97
22.700       167
22.720       130
22.740       130
22.760       123
22.780        90
22.800       107
22.820        73
22.840       103
22.860        70
22.880        77
22.900        80
22.920        83
22.940        87
22.960        97
22.980        73
23.000        47
23.020        43
23.040        37
23.060        67
23.080        43
23.100        50
23.120        47
23.140        40
23.160        47
23.180        50
23.200        40
23.220        50
23.240        43
23.260        47
23.280        37
23.300        33
23.320        43
23.340        40
23.360        27
23.380        53
23.400        50
23.420        40
23.440        43
23.460        43
23.480        37
23.500        47
23.520        40
23.540        30
23.560        47
23.580        47
23.600        47
23.620        27
23.640        53
23.660        53
23.680        33
23.700        37
23.720        47
23.740        33
23.760        43
23.780        30
23.800        47
23.820        33
23.840        73
23.860        50
23.880        47
23.900        37
23.920        40
23.940        33
23.960        33
23.980        30
24.000        30
24.020        27
24.040        37
24.060        77
24.080        43
24.100        33
24.120        33
24.140        50
24.160        13
24.180        40
24.200        27
24.220        17
24.240        37
24.260        13
24.280        50
24.300        10
24.320        33
24.340        20
24.360        37
24.380        50
24.400        27
24.420        27
24.440        40
24.460        27
24.480        27
24.500        23
24.520        23
24.540        33
24.560        40
24.580        37
24.600        43
24.620        17
24.640        40
24.660        47
24.680        33
24.700        33
24.720        40
24.740        43
24.760        43
24.780        57
24.800        80
24.820        63
24.840        73
24.860        73
24.880        73
24.900        70
24.920        80
24.940        97
24.960        67
24.980        53
25.000        37
25.020        73
25.040        20
25.060        27
25.080        50
25.100        27
25.120        23
25.140        63
25.160        37
25.180        57
25.200        23
25.220        47
25.240        30
25.260        50
25.280        23
25.300        23
25.320        43
25.340        47
25.360        37
25.380        33
25.400        40
25.420        37
25.440        57
25.460        57
25.480        70
25.500        60
25.520        87
25.540        67
25.560        73
25.580       133
25.600       280
25.620       423
25.640       580
25.660       496
25.680       543
25.700       333
25.720       327
25.740       220
25.760        87
25.780        70
25.800        57
25.820        50
25.840        33
25.860        30
25.880        53
25.900        47
25.920        47
25.940        37
25.960        33
25.980        33
26.000        37
26.020        33
26.040        20
26.060        33
26.080        37
26.100        27
26.120        47
26.140        27
26.160        30
26.180        40
26.200        60
26.220        30
26.240        37
26.260        13
26.280        37
26.300        17
26.320        27
26.340        37
26.360        50
26.380        33
26.400        23
26.420        33
26.440        30
26.460        67
26.480        13
26.500        60
26.520        33
26.540        27
26.560        43
26.580        40
26.600        20
26.620        40
26.640        27
26.660        33
26.680        47
26.700        47
26.720        20
26.740        27
26.760        33
26.780        37
26.800        27
26.820        47
26.840        33
26.860        40
26.880        17
26.900        30
26.920        47
26.940        30
26.960        37
26.980        37
27.000        43
27.020        33
27.040        33
27.060        27
27.080        40
27.100        30
27.120        33
27.140        40
27.160        33
27.180        33
27.200        27
27.220        30
27.240        20
27.260        30
27.280        40
27.300        30
27.320        33
27.340        13
27.360        30
27.380        47
27.400        10
27.420        13
27.440        23
27.460        37
27.480        20
27.500        33
27.520        33
27.540        30
27.560        27
27.580        23
27.600        33
27.620        27
27.640        30
27.660        37
27.680        23
27.700        23
27.720        43
27.740        23
27.760        20
27.780        33
27.800        30
27.820        33
27.840        47
27.860        20
27.880        37
27.900        47
27.920        33
27.940        37
27.960        20
27.980        33
28.000        33
28.020        23
28.040        17
28.060        50
28.080        20
28.100        33
28.120         7
28.140         7
28.160        33
28.180        33
28.200        30
28.220        20
28.240        37
28.260        23
28.280        43
28.300        43
28.320        40
28.340        27
28.360        23
28.380        37
28.400        37
28.420        33
28.440        17
28.460        13
28.480        30
28.500        40
28.520        27
28.540        23
28.560        30
28.580        10
28.600        20
28.620        17
28.640        57
28.660        10
28.680        43
28.700        30
28.720        47
28.740        30
28.760         7
28.780        30
28.800        37
28.820        30
28.840        23
28.860        17
28.880        33
28.900        37
28.920        23
28.940        23
28.960        40
28.980         7
29.000        33
29.020        13
29.040        20
29.060        27
29.080        37
29.100        47
29.120        40
29.140        27
29.160        20
29.180        40
29.200        33
29.220        67
29.240        37
29.260        23
29.280        57
29.300        73
29.320        43
29.340        70
29.360        93
29.380        77
29.400        97
29.420       107
29.440       100
29.460        77
29.480        63
29.500        73
29.520        37
29.540        43
29.560        33
29.580        20
29.600        27
29.620        23
29.640        37
29.660        17
29.680        30
29.700        13
29.720        37
29.740        20
29.760        40
29.780        30
29.800        30
29.820        13
29.840        23
29.860        33
29.880        27
29.900        30
29.920        43
29.940        23
29.960        17
29.980        23
30.000        30
30.020        30
30.040        17
30.060        40
30.080        17
30.100        17
30.120        33
30.140        27
30.160        37
30.180        23
30.200        30
30.220        37
30.240        17
30.260        40
30.280        17
30.300        20
30.320        27
30.340        30
30.360        20
30.380        33
30.400        30
30.420        33
30.440        13
30.460        27
30.480        27
30.500        30
30.520        37
30.540        20
30.560        17
30.580        10
30.600        23
30.620        17
30.640        23
30.660        23
30.680        10
30.700        20
30.720        43
30.740        27
30.760        33
30.780        33
30.800        23
30.820        23
30.840        23
30.860        30
30.880        13
30.900        23
30.920        27
30.940        27
30.960        43
30.980        33
31.000        40
31.020        27
31.040        20
31.060        33
31.080        30
31.100        20
31.120        17
31.140         3
31.160        30
31.180        23
31.200        27
31.220        37
31.240        33
31.260         7
31.280        23
31.300        50
31.320        23
31.340        13
31.360        20
31.380        10
31.400        17
31.420        33
31.440        40
31.460        23
31.480        30
31.500        20
31.520        23
31.540        20
31.560        53
31.580        20
31.600        33
31.620        40
31.640        27
31.660        20
31.680        23
31.700        20
31.720        23
31.740        17
31.760        33
31.780        17
31.800        23
31.820        23
31.840        30
31.860        40
31.880        37
31.900        37
31.920        27
31.940        23
31.960        23
31.980        23
32.000        30
32.020        33
32.040        40
32.060        23
32.080        27
32.100        43
32.120        50
32.140        33
32.160        33
32.180        47
32.200        63
32.220        53
32.240        90
32.260        67
32.280        67
32.300        93
32.320       110
32.340        73
32.360        83
32.380       110
32.400        93
32.420        93
32.440       140
32.460        73
32.480        87
32.500       103
32.520        93
32.540        70
32.560       100
32.580        80
32.600        90
32.620        70
32.640        43
32.660        63
32.680        67
32.700        47
32.720        10
32.740        43
32.760        53
32.780        37
32.800        53
32.820        23
32.840        13
32.860        27
32.880        23
32.900        23
32.920        30
32.940        17
32.960        33
32.980        13
33.000        23
33.020        27
33.040        30
33.060        30
33.080        10
33.100         7
33.120        17
33.140        17
33.160        33
33.180        30
33.200        30
33.220        33
33.240        33
33.260        27
33.280        10
33.300        23
33.320        17
33.340        13
33.360        27
33.380        30
33.400        27
33.420        17
33.440         3
33.460        17
33.480        27
33.500        17
33.520        13
33.540        27
33.560        33
33.580        17
33.600        13
33.620        27
33.640        30
33.660        20
33.680        17
33.700        23
33.720        13
33.740        30
33.760        43
33.780        20
33.800        23
33.820        10
33.840        30
33.860        13
33.880        30
33.900        27
33.920        33
33.940        27
33.960        23
33.980        23
34.000        20
34.020        20
34.040        27
34.060        10
34.080        27
34.100        27
34.120        17
34.140        23
34.160        17
34.180         7
34.200        23
34.220        27
34.240        13
34.260        37
34.280         3
34.300        17
34.320        23
34.340        20
34.360        13
34.380        27
34.400        17
34.420        17
34.440        17
34.460        17
34.480        30
34.500        13
34.520        37
34.540        17
34.560        13
34.580        27
34.600        37
34.620        23
34.640        23
34.660        33
34.680        30
34.700        20
34.720        23
34.740        13
34.760        33
34.780        20
34.800         7
34.820        20
34.840        10
34.860        23
34.880        20
34.900        23
34.920        20
34.940         7
34.960        17
34.980        27
35.000        33
35.020        27
35.040        30
35.060        33
35.080        40
35.100        37
35.120        37
35.140        23
35.160        30
35.180        20
35.200        30
35.220        30
35.240        17
35.260        13
35.280        13
35.300        20
35.320        20
35.340        10
35.360        27
35.380        17
35.400        27
35.420        23
35.440        23
35.460        33
35.480        23
35.500        17
35.520        17
35.540        10
35.560        27
35.580        30
35.600        30
35.620        33
35.640        13
35.660        27
35.680        10
35.700        13
35.720        33
35.740        47
35.760        13
35.780        27
35.800        23
35.820        27
35.840        30
35.860        23
35.880        23
35.900        23
35.920        17
35.940        37
35.960        30
35.980        23
36.000        17
36.020        17
36.040        20
36.060        20
36.080        37
36.100        27
36.120        17
36.140        17
36.160        13
36.180        20
36.200        17
36.220        50
36.240        27
36.260        27
36.280        13
36.300        20
36.320        13
36.340        17
36.360        23
36.380        13
36.400        17
36.420        13
36.440        17
36.460        17
36.480        20
36.500        30
36.520        20
36.540        17
36.560        13
36.580         7
36.600        27
36.620        23
36.640        17
36.660        13
36.680        10
36.700        20
36.720        17
36.740         7
36.760        20
36.780         3
36.800        10
36.820        23
36.840        17
36.860        23
36.880        17
36.900        23
36.920        20
36.940        17
36.960        17
36.980        23
37.000        23
37.020        20
37.040        27
37.060        20
37.080        30
37.100        23
37.120        10
37.140        10
37.160        20
37.180         7
37.200        27
37.220        13
37.240        23
37.260        17
37.280        17
37.300        30
37.320        17
37.340        20
37.360        13
37.380        20
37.400        27
37.420         3
37.440        10
37.460        17
37.480        27
37.500        27
37.520        30
37.540        13
37.560        17
37.580        27
37.600        10
37.620        23
37.640        17
37.660        27
37.680        30
37.700        23
37.720        13
37.740        17
37.760        27
37.780        30
37.800        27
37.820        13
37.840        10
37.860        17
37.880        30
37.900        27
37.920        33
37.940        10
37.960        20
37.980        30
38.000        17
38.020         7
38.040        27
38.060        13
38.080        17
38.100        20
38.120        30
38.140        20
38.160        17
38.180        10
38.200        17
38.220         7
38.240        30
38.260        23
38.280        23
38.300        30
38.320        27
38.340        20
38.360        30
38.380        10
38.400        37
38.420        13
38.440        30
38.460        30
38.480        17
38.500        27
38.520        23
38.540        43
38.560        17
38.580        40
38.600        17
38.620        33
38.640        13
38.660        17
38.680        10
38.700        23
38.720        27
38.740        23
38.760        37
38.780        13
38.800        20
38.820        17
38.840         3
38.860        37
38.880        17
38.900        30
38.920        33
38.940        33
38.960        37
38.980        33
39.000        27
39.020        17
39.040        30
39.060        37
39.080        20
39.100        33
39.120        33
39.140        33
39.160        20
39.180        17
39.200        33
39.220        27
39.240        37
39.260        40
39.280        20
39.300        37
39.320        43
39.340        40
39.360        37
39.380        37
39.400        47
39.420        50
39.440        40
39.460        30
39.480        33
39.500        23
39.520        43
39.540        27
39.560        40
39.580        33
39.600        20
39.620        17
39.640        33
39.660        23
39.680        27
39.700        13
39.720        27
39.740        17
39.760        23
39.780        40
39.800        10
39.820        30
39.840        30
39.860        53
39.880        37
39.900        27
39.920        53
39.940        27
39.960        43
39.980        53
40.000        50
40.020        50
40.040        63
40.060        50
40.080        63
40.100        53
40.120        63
40.140        57
40.160        17
40.180        40
40.200        47
40.220        23
40.240        17
40.260        27
40.280        40
40.300        40
40.320        27
40.340        37
40.360        33
40.380        30
40.400        27
40.420        17
40.440         3
40.460        13
40.480        23
40.500        27
40.520        17
40.540        17
40.560        17
40.580        13
40.600        10
40.620        17
40.640        33
40.660        20
40.680        23
40.700        23
40.720        40
40.740        17
40.760        20
40.780        27
40.800        23
40.820        17
40.840        20
40.860        17
40.880        20
40.900        27
40.920        10
40.940        27
40.960        17
40.980        20
41.000        23
41.020        27
41.040        20
41.060        30
41.080         3
41.100        27
41.120        20
41.140        23
41.160        20
41.180        47
41.200        20
41.220        17
41.240        23
41.260        13
41.280        20
41.300        23
41.320        17
41.340        20
41.360        30
41.380        20
41.400        23
41.420        27
41.440        20
41.460        10
41.480        13
41.500        33
41.520        27
41.540        23
41.560        37
41.580        27
41.600        27
41.620        27
41.640        23
41.660        20
41.680        30
41.700        37
41.720        47
41.740        33
41.760        23
41.780        13
41.800        10
41.820        30
41.840        33
41.860        37
41.880        37
41.900        20
41.920        30
41.940        17
41.960        10
41.980        27
42.000        23
42.020        23
42.040        10
42.060        27
42.080        23
42.100        10
42.120        17
42.140        30
42.160        27
42.180        23
42.200        33
42.220         7
42.240        27
42.260         7
42.280        20
42.300        20
42.320        13
42.340        17
42.360        27
42.380        20
42.400        20
42.420        20
42.440        10
42.460        13
42.480        27
42.500        27
42.520        17
42.540        17
42.560        30
42.580        20
42.600        13
42.620        17
42.640        13
42.660        27
42.680        17
42.700        20
42.720        23
42.740        30
42.760        23
42.780        17
42.800        10
42.820        30
42.840        20
42.860        37
42.880        30
42.900        13
42.920        20
42.940        33
42.960        23
42.980        27
43.000        27
43.020        23
43.040        20
43.060        27
43.080        47
43.100        27
43.120        33
43.140        40
43.160        30
43.180        33
43.200        27
43.220        17
43.240        20
43.260        30
43.280        33
43.300        20
43.320        17
43.340        40
43.360        30
43.380        23
43.400        27
43.420        23
43.440        23
43.460        37
43.480        30
43.500        40
43.520        33
43.540        17
43.560        17
43.580        33
43.600        23
43.620        37
43.640        23
43.660        30
43.680        20
43.700        13
43.720        10
43.740        30
43.760        27
43.780        13
43.800        40
43.820        30
43.840        20
43.860        13
43.880        20
43.900        23
43.920        27
43.940        10
43.960        20
43.980        27
44.000        17
44.020        27
44.040        10
44.060        37
44.080        33
44.100        37
44.120        10
44.140        23
44.160        33
44.180        23
44.200        20
44.220        27
44.240        23
44.260        30
44.280        13
44.300        23
44.320        13
44.340        20
44.360        30
44.380        20
44.400        23
44.420        20
44.440        33
44.460        33
44.480        23
44.500        27
44.520        30
44.540        17
44.560        40
44.580        20
44.600        40
44.620        30
44.640        43
44.660        37
44.680        43
44.700        27
44.720        40
44.740        37
44.760        17
44.780        47
44.800        33
44.820        37
44.840        23
44.860        33
44.880        40
44.900        40
44.920        27
44.940        43
44.960        20
44.980        43
45.000        50
45.020        33
45.040        30
45.060        47
45.080        47
45.100        33
45.120        30
45.140        37
45.160        67
45.180        47
45.200        60
45.220        50
45.240        30
45.260        37
45.280        63
45.300        50
45.320        43
45.340        73
45.360        73
45.380        83
45.400        77
45.420        83
45.440        87
45.460        87
45.480        63
45.500        77
45.520       107
45.540        97
45.560        70
45.580       113
45.600       140
45.620       147
45.640       123
45.660       123
45.680       133
45.700       140
45.720       140
45.740       187
45.760       217
45.780       220
45.800       190
45.820       233
45.840       270
45.860       277
45.880       237
45.900       370
45.920       340
45.940       377
45.960       393
45.980       463
46.000       456
46.020       456
46.040       460
46.060       636
46.080       623
46.100       670
46.120       623
46.140       833
46.160       710
46.180       796
46.200       763
46.220       820
46.240       816
46.260       890
46.280       913
46.300       896
46.320       733
46.340       823
46.360       843
46.380       803
46.400       850
46.420       896
46.440       770
46.460       730
46.480       790
46.500       686
46.520       663
46.540       570
46.560       630
46.580       613
46.600       553
46.620       500
46.640       473
46.660       443
46.680       423
46.700       353
46.720       323
46.740       367
46.760       380
46.780       347
46.800       223
46.820       297
46.840       217
46.860       230
46.880       223
46.900       180
46.920       153
46.940       207
46.960       107
46.980       213
47.000       110
47.020       100
47.040        60
47.060       103
47.080       120
47.100       130
47.120       107
47.140        87
47.160       100
47.180        90
47.200       120
47.220        83
47.240        73
47.260        63
47.280       103
47.300        60
47.320        90
47.340        70
47.360        83
47.380        83
47.400        77
47.420       117
47.440        60
47.460        83
47.480        47
47.500        67
47.520        63
47.540        77
47.560        50
47.580        43
47.600        67
47.620        33
47.640        60
47.660        43
47.680        57
47.700        47
47.720        40
47.740        33
47.760        43
47.780        50
47.800        27
47.820        43
47.840        13
47.860        30
47.880        43
47.900        20
47.920        30
47.940        27
47.960        30
47.980        40
48.000        37
48.020        37
48.040        33
48.060        37
48.080        33
48.100        33
48.120        33
48.140        27
48.160        30
48.180        30
48.200        20
48.220        50
48.240        40
48.260        40
48.280        30
48.300        67
48.320        37
48.340        23
48.360        17
48.380        30
48.400        43
48.420        20
48.440        33
48.460        33
48.480        33
48.500        20
48.520        60
48.540        47
48.560        40
48.580        33
48.600        30
48.620        40
48.640        53
48.660        17
48.680        43
48.700        23
48.720        40
48.740        17
48.760        30
48.780        23
48.800        47
48.820        40
48.840        40
48.860        23
48.880        27
48.900        43
48.920        27
48.940        33
48.960        27
48.980        10
49.000        43
49.020        27
49.040        23
49.060        20
49.080        30
49.100        33
49.120        23
49.140        40
49.160        27
49.180        23
49.200        20
49.220        17
49.240        17
49.260        23
49.280        33
49.300        23
49.320        17
49.340        23
49.360        30
49.380        27
49.400        33
49.420        23
49.440        23
49.460        20
49.480        37
49.500        37
49.520        30
49.540        43
49.560        33
49.580        30
49.600        13
49.620        23
49.640        17
49.660        30
49.680        23
49.700        37
49.720        20
49.740        40
49.760        20
49.780        30
49.800        40
49.820        20
49.840        13
49.860        33
49.880        20
49.900        20
49.920        17
49.940        10
49.960        20
49.980        23
50.000        30
50.020        33
50.040        20
50.060        27
50.080        30
50.100        23
50.120        23
50.140        27
50.160        13
50.180        17
50.200        33
50.220        20
50.240        20
50.260        23
50.280        33
50.300        37
50.320        33
50.340        33
50.360        23
50.380        13
50.400        33
50.420        27
50.440        23
50.460        27
50.480        27
50.500        20
50.520        17
50.540        37
50.560        27
50.580        40
50.600        37
50.620        20
50.640        37
50.660        20
50.680        17
50.700        33
50.720        10
50.740        20
50.760        33
50.780        23
50.800        17
50.820        23
50.840        13
50.860        23
50.880        23
50.900         7
50.920        13
50.940        33
50.960        23
50.980        47
51.000        23
51.020        13
51.040        17
51.060        27
51.080        27
51.100        23
51.120        30
51.140        13
51.160        23
51.180        30
51.200        47
51.220        33
51.240        20
51.260        37
51.280        40
51.300        30
51.320        27
51.340        37
51.360        27
51.380        13
51.400        37
51.420        30
51.440        33
51.460        40
51.480        17
51.500        37
51.520        30
51.540        27
51.560        17
51.580        40
51.600        23
51.620        27
51.640        20
51.660        37
51.680        47
51.700        30
51.720        13
51.740        27
51.760        20
51.780        27
51.800        13
51.820        33
51.840        63
51.860        23
51.880        33
51.900        40
51.920        27
51.940        20
51.960        27
51.980        40
52.000        40
52.020        40
52.040        47
52.060        30
52.080        20
52.100        17
52.120        23
52.140        27
52.160        20
52.180        53
52.200        13
52.220        27
52.240        20
52.260        33
52.280        50
52.300        47
52.320        47
52.340        70
52.360        57
52.380        57
52.400        63
52.420        60
52.440        90
52.460        77
52.480        77
52.500        93
52.520        97
52.540       130
52.560       217
52.580       293
52.600       476
52.620       616
52.640       600
52.660       540
52.680       353
52.700       273
52.720       240
52.740       323
52.760       403
52.780       303
52.800       233
52.820       253
52.840       150
52.860       113
52.880        73
52.900        73
52.920        73
52.940        63
52.960        47
52.980        43
53.000        43
53.020        37
53.040        43
53.060        13
53.080        50
53.100        17
53.120        30
53.140        53
53.160        30
53.180        20
53.200        37
53.220        37
53.240        20
53.260        27
53.280        27
53.300        30
53.320        30
53.340        37
53.360        30
53.380        33
53.400        27
53.420        30
53.440        23
53.460        30
53.480        30
53.500        27
53.520        30
53.540        13
53.560        20
53.580         7
53.600        37
53.620        40
53.640        27
53.660        23
53.680        37
53.700        13
53.720         7
53.740        20
53.760        33
53.780        17
53.800        17
53.820        17
53.840        20
53.860        30
53.880        17
53.900        33
53.920        20
53.940         3
53.960        20
53.980        23
54.000        20
54.020        27
54.040        17
54.060        27
54.080        27
54.100        23
54.120        27
54.140        27
54.160        23
54.180        30
54.200        23
54.220        27
54.240        13
54.260        30
54.280        33
54.300        23
54.320        13
54.340        17
54.360         3
54.380        17
54.400        37
54.420        23
54.440        27
54.460        23
54.480        13
54.500        30
54.520        23
54.540        43
54.560        13
54.580        20
54.600        23
54.620        17
54.640        20
54.660        10
54.680        33
54.700        13
54.720        23
54.740        10
54.760        27
54.780        17
54.800        27
54.820        27
54.840        40
54.860        13
54.880        23
54.900        10
54.920        10
54.940        23
54.960        20
54.980        43
55.000        30
55.020         3
55.040        37
55.060        50
55.080        27
55.100        20
55.120        33
55.140        30
55.160        20
55.180        30
55.200        40
55.220        17
55.240        20
55.260        13
55.280         7
55.300        13
55.320        13
55.340        30
55.360        20
55.380        23
55.400        10
55.420        33
55.440        27
55.460        27
55.480        10
55.500        17
55.520        33
55.540        10
55.560        10
55.580        30
55.600        20
55.620        13
55.640         7
55.660        20
55.680        30
55.700        33
55.720        23
55.740        23
55.760        23
55.780        20
55.800        20
55.820        20
55.840        23
55.860        13
55.880        17
55.900        33
55.920        10
55.940        17
55.960        27
55.980        17
56.000        20
56.020        13
56.040        17
56.060        13
56.080        10
56.100        23
56.120        13
56.140        20
56.160        17
56.180        13
56.200        13
56.220         7
56.240         3
56.260         3
56.280        27
56.300        20
56.320        13
56.340        17
56.360        13
56.380        13
56.400        13
56.420        30
56.440        10
56.460        20
56.480        40
56.500        13
56.520        23
56.540        30
56.560        20
56.580        23
56.600        33
56.620        17
56.640         7
56.660        37
56.680        37
56.700        23
56.720        23
56.740        30
56.760        17
56.780        23
56.800        13
56.820        30
56.840        27
56.860        10
56.880        23
56.900        17
56.920        27
56.940        17
56.960         7
56.980        37
57.000        30
57.020        20
57.040        17
57.060        17
57.080        17
57.100        17
57.120        23
57.140        27
57.160        23
57.180        20
57.200        37
57.220        20
57.240        30
57.260        13
57.280        23
57.300        33
57.320        17
57.340        37
57.360        13
57.380        23
57.400        17
57.420        43
57.440        20
57.460        13
57.480        37
57.500        13
57.520        27
57.540        33
57.560        33
57.580        50
57.600        30
57.620        13
57.640        47
57.660        20
57.680        27
57.700        30
57.720        40
57.740        20
57.760        57
57.780        53
57.800        27
57.820        20
57.840        17
57.860        23
57.880        30
57.900        20
57.920        43
57.940        27
57.960        27
57.980        33
58.000        23
58.020        23
58.040        27
58.060        17
58.080         3
58.100        30
58.120        13
58.140        23
58.160        17
58.180        37
58.200        33
58.220         3
58.240        40
58.260        27
58.280        27
58.300        23
58.320        13
58.340        27
58.360        23
58.380        23
58.400         7
58.420        23
58.440        33
58.460        20
58.480        23
58.500        33
58.520        27
58.540        17
58.560        20
58.580         7
58.600        23
58.620        10
58.640        30
58.660        27
58.680        10
58.700        13
58.720        17
58.740         7
58.760        17
58.780        27
58.800        17
58.820        17
58.840        10
58.860        20
58.880        13
58.900         7
58.920        17
58.940        10
58.960        17
58.980        27
59.000        10
59.020        20
59.040        17
59.060        23
59.080        17
59.100        17
59.120         7
59.140        20
59.160         7
59.180         7
59.200        10
59.220        17
59.240        20
59.260        10
59.280        13
59.300        27
59.320        10
59.340        13
59.360        17
59.380        17
59.400        23
59.420        13
59.440        27
59.460        20
59.480        20
59.500        23
59.520        10
59.540        20
59.560        30
59.580        13
59.600         7
59.620        17
59.640        20
59.660        20
59.680        13
59.700        23
59.720        10
59.740        27
59.760        17
59.780        23
59.800        10
59.820        23
59.840        10
59.860        13
59.880        17
59.900        30
59.920        17
59.940        27
59.960        13
59.980         7
60.000        10
