20.000        37
20.020        37
20.040        43
20.060        77
20.080        57
20.100        53
20.120        37
20.140        33
20.160        63
20.180        50
20.200        33
20.220        47
20.240        50
20.260        43
20.280        57
20.300        50
20.320        40
20.340        43
20.360        63
20.380        30
20.400        43
20.420        37
20.440        47
20.460        30
20.480        60
20.500        30
20.520        47
20.540        47
20.560        53
20.580        23
20.600        23
20.620        57
20.640        37
20.660        30
20.680        27
20.700        37
20.720        43
20.740        47
20.760        60
20.780        57
20.800        50
20.820        20
20.840        50
20.860        30
20.880        53
20.900        43
20.920        60
20.940        63
20.960        53
20.980        37
21.000        47
21.020        40
21.040        33
21.060        53
21.080        43
21.100        30
21.120        33
21.140        23
21.160        47
21.180        70
21.200        47
21.220        37
21.240        40
21.260        33
21.280        80
21.300        63
21.320        23
21.340        57
21.360        33
21.380        57
21.400        50
21.420        33
21.440        83
21.460        43
21.480        47
21.500        47
21.520        63
21.540        30
21.560        23
21.580        53
21.600        40
21.620        27
21.640        27
21.660        47
21.680        33
21.700        40
21.720        47
21.740        57
21.760        53
21.780        43
21.800        53
21.820        47
21.840        37
21.860        60
21.880        33
21.900        57
21.920        70
21.940        53
21.960        50
21.980        23
22.000        33
22.020        70
22.040        57
22.060        43
22.080        57
22.100        43
22.120        47
22.140        67
22.160        37
22.180        57
22.200        57
22.220        53
22.240        80
22.260        57
22.280        80
22.300        50
22.320        37
22.340        67
22.360        83
22.380        83
22.400        93
22.420        80
22.440       120
22.460        87
22.480       110
22.500       100
22.520        70
22.540        90
22.560        60
22.580       107
22.600        93
22.620        77
22.640        60
22.660        77
22.680        87
22.700        77
22.720        63
22.740       107
22.760        80
22.780       110
22.800        73
22.820        83
22.840        67
22.860        40
22.880        70
22.900        83
22.920        47
22.940        33
22.960        70
22.980        60
23.000        40
23.020        47
23.040        57
23.060        90
23.080        43
23.100        97
23.120        70
23.140       103
23.160        57
23.180        50
23.200        63
23.220        53
23.240        33
23.260        47
23.280        47
23.300        80
23.320        67
23.340        50
23.360        37
23.380        73
23.400        23
23.420        50
23.440        40
23.460        33
23.480        50
23.500        33
23.520        53
23.540        53
23.560        50
23.580        20
23.600        37
23.620        40
23.640        80
23.660        47
23.680        57
23.700        47
23.720        33
23.740        27
23.760        50
23.780        40
23.800        53
23.820        47
23.840        40
23.860        47
23.880        47
23.900        60
23.920        33
23.940        40
23.960        40
23.980        33
24.000        53
24.020        33
24.040        63
24.060        50
24.080        40
24.100        27
24.120        27
24.140        60
24.160        43
24.180        40
24.200        13
24.220        47
24.240        20
24.260        53
24.280        53
24.300        27
24.320        43
24.340        33
24.360        53
24.380        30
24.400        37
24.420        40
24.440        27
24.460        30
24.480        20
24.500        23
24.520        30
24.540        37
24.560        30
24.580        47
24.600        33
24.620        50
24.640        37
24.660        20
24.680        57
24.700        27
24.720        53
24.740        20
24.760        37
24.780        13
24.800        37
24.820        40
24.840        27
24.860        33
24.880        47
24.900        27
24.920        47
24.940        40
24.960        50
24.980        37
25.000        50
25.020        30
25.040        43
25.060        37
25.080        37
25.100        30
25.120        47
25.140        33
25.160         3
25.180        40
25.200        47
25.220        17
25.240        33
25.260        33
25.280        33
25.300        37
25.320        37
25.340        67
25.360        23
25.380        33
25.400        30
25.420        43
25.440        40
25.460        27
25.480        33
25.500        23
25.520        30
25.540        50
25.560        37
25.580        60
25.600        43
25.620        57
25.640        80
25.660        87
25.680        70
25.700        60
25.720        57
25.740        63
25.760        57
25.780        40
25.800        50
25.820        40
25.840        40
25.860        23
25.880        20
25.900        40
25.920        13
25.940        40
25.960        37
25.980        20
26.000        30
26.020        37
26.040        37
26.060        37
26.080        30
26.100        53
26.120        40
26.140        17
26.160        33
26.180        30
26.200        17
26.220        50
26.240        27
26.260        27
26.280        27
26.300        27
26.320        47
26.340        53
26.360        27
26.380        40
26.400        33
26.420        17
26.440        27
26.460        30
26.480        80
26.500        43
26.520        23
26.540        37
26.560        37
26.580        37
26.600        27
26.620        30
26.640        47
26.660        33
26.680        23
26.700        37
26.720        43
26.740        30
26.760        20
26.780        27
26.800        23
26.820        33
26.840        33
26.860        47
26.880        27
26.900        47
26.920        20
26.940        33
26.960        20
26.980        50
27.000        37
27.020        33
27.040        23
27.060        37
27.080        27
27.100        43
27.120        17
27.140        20
27.160        30
27.180        33
27.200        33
27.220        30
27.240        50
27.260        27
27.280        43
27.300        20
27.320        33
27.340        30
27.360        33
27.380        40
27.400        37
27.420        30
27.440        30
27.460        27
27.480        37
27.500        33
27.520        17
27.540        27
27.560        33
27.580        33
27.600        37
27.620        30
27.640        20
27.660        30
27.680        27
27.700        40
27.720        23
27.740        30
27.760        33
27.780        40
27.800        30
27.820        23
27.840        17
27.860        20
27.880        50
27.900        27
27.920        33
27.940        37
27.960        27
27.980        37
28.000        20
28.020        30
28.040        40
28.060        37
28.080        27
28.100        33
28.120        40
28.140        33
28.160        23
28.180        27
28.200        47
28.220        50
28.240        23
28.260        33
28.280        47
28.300        33
28.320        37
28.340        37
28.360        23
28.380         0
28.400        27
28.420        33
28.440        30
28.460        30
28.480        27
28.500        30
28.520        27
28.540        30
28.560        20
28.580        20
28.600        47
28.620        27
28.640        27
28.660        23
28.680        27
28.700        30
28.720        40
28.740        20
28.760        27
28.780        23
28.800        43
28.820        33
28.840        30
28.860        47
28.880        60
28.900        20
28.920        30
28.940        37
28.960        43
28.980        43
29.000        27
29.020        17
29.040        30
29.060        23
29.080        27
29.100        23
29.120        33
29.140        53
29.160        43
29.180        23
29.200        30
29.220        50
29.240        43
29.260        47
29.280        37
29.300        53
29.320        43
29.340        37
29.360        33
29.380        47
29.400        37
29.420        33
29.440        67
29.460        47
29.480        50
29.500        50
29.520        37
29.540        37
29.560        33
29.580        30
29.600        20
29.620        27
29.640        40
29.660        17
29.680        23
29.700        20
29.720        30
29.740        43
29.760        23
29.780        23
29.800        10
29.820        13
29.840        30
29.860        23
29.880        20
29.900        37
29.920        27
29.940        23
29.960        47
29.980        17
30.000        20
30.020        30
30.040        20
30.060        50
30.080        17
30.100        23
30.120        30
30.140        10
30.160        20
30.180        20
30.200        27
30.220        20
30.240        33
30.260        20
30.280        47
30.300        33
30.320        13
30.340        27
30.360        33
30.380        23
30.400        37
30.420        10
30.440        23
30.460        17
30.480        23
30.500        27
30.520        27
30.540        43
30.560        20
30.580        40
30.600        33
30.620        27
30.640         3
30.660        33
30.680        20
30.700        33
30.720        20
30.740        27
30.760        43
30.780        20
30.800        33
30.820        37
30.840        40
30.860        27
30.880        33
30.900        23
30.920        33
30.940        23
30.960        30
30.980        37
31.000        30
31.020        37
31.040        33
31.060        33
31.080        40
31.100        37
31.120        30
31.140        30
31.160        40
31.180        33
31.200        30
31.220        33
31.240        30
31.260        53
31.280        27
31.300        30
31.320        53
31.340        43
31.360        37
31.380        27
31.400        50
31.420        17
31.440        43
31.460        50
31.480        27
31.500        47
31.520        37
31.540        27
31.560        47
31.580        47
31.600        60
31.620        60
31.640        37
31.660        43
31.680        33
31.700        90
31.720        73
31.740        93
31.760        87
31.780        77
31.800       110
31.820       103
31.840       100
31.860        97
31.880       110
31.900       127
31.920       143
31.940       143
31.960       137
31.980       167
32.000       200
32.020       210
32.040       220
32.060       187
32.080       177
32.100       210
32.120       217
32.140       240
32.160       250
32.180       183
32.200       223
32.220       240
32.240       203
32.260       193
32.280       200
32.300       190
32.320       153
32.340       207
32.360       183
32.380       157
32.400       137
32.420       133
32.440       150
32.460       137
32.480       130
32.500        77
32.520       120
32.540       100
32.560        80
32.580        83
32.600        67
32.620        83
32.640        83
32.660        73
32.680        60
32.700        70
32.720        53
32.740        80
32.760        60
32.780        57
32.800        57
32.820        67
32.840        40
32.860        27
32.880        43
32.900        57
32.920        43
32.940        47
32.960        50
32.980        33
33.000        43
33.020        43
33.040        57
33.060        43
33.080        40
33.100        23
33.120        47
33.140        37
33.160        37
33.180        20
33.200        33
33.220        30
33.240        43
33.260        13
33.280        23
33.300        23
33.320        23
33.340        17
33.360        37
33.380        27
33.400        27
33.420        30
33.440        37
33.460        30
33.480        23
33.500        33
33.520        20
33.540        13
33.560        13
33.580         7
33.600        37
33.620        40
33.640        33
33.660        27
33.680        30
33.700        27
33.720        10
33.740        23
33.760        30
33.780        20
33.800        43
33.820        33
33.840        13
33.860        17
33.880        30
33.900         7
33.920         7
33.940        30
33.960        23
33.980        23
34.000        20
34.020        47
34.040        20
34.060        23
34.080        23
34.100        33
34.120        17
34.140        17
34.160        17
34.180        23
34.200        13
34.220        23
34.240        23
34.260        20
34.280        30
34.300        10
34.320        17
34.340        10
34.360        13
34.380        33
34.400        13
34.420        23
34.440        27
34.460        27
34.480        27
34.500        17
34.520        10
34.540        40
34.560        30
34.580        13
34.600        20
34.620        23
34.640        17
34.660        27
34.680        37
34.700        23
34.720         7
34.740         3
34.760        27
34.780        20
34.800        17
34.820        27
34.840        10
34.860        10
34.880        27
34.900        33
34.920        20
34.940        33
34.960        17
34.980        17
35.000        30
35.020        10
35.040        27
35.060        27
35.080        10
35.100        20
35.120        30
35.140        20
35.160        27
35.180        27
35.200        27
35.220        20
35.240        20
35.260        37
35.280        33
35.300        10
35.320        23
35.340        20
35.360        27
35.380        23
35.400        33
35.420        20
35.440        13
35.460        37
35.480        13
35.500        33
35.520        23
35.540        27
35.560        23
35.580        30
35.600        13
35.620        27
35.640        30
35.660        33
35.680        17
35.700        27
35.720        40
35.740        20
35.760        10
35.780        23
35.800        27
35.820        30
35.840        20
35.860        30
35.880        17
35.900        27
35.920        13
35.940        33
35.960        37
35.980        33
36.000        20
36.020        23
36.040        20
36.060        30
36.080        10
36.100        10
36.120        23
36.140        30
36.160        20
36.180        27
36.200        20
36.220        20
36.240        17
36.260        20
36.280        30
36.300        23
36.320        20
36.340        30
36.360        20
36.380        10
36.400        10
36.420        13
36.440        27
36.460        30
36.480        10
36.500        20
36.520        20
36.540        27
36.560        23
36.580        27
36.600        17
36.620        17
36.640        33
36.660        17
36.680        17
36.700        23
36.720        17
36.740        20
36.760        27
36.780        33
36.800        13
36.820        13
36.840        10
36.860        33
36.880        17
36.900         7
36.920        17
36.940        27
36.960        20
36.980        20
37.000        13
37.020         7
37.040        17
37.060        10
37.080        27
37.100        17
37.120        10
37.140        23
37.160        20
37.180        30
37.200        20
37.220        30
37.240         7
37.260         7
37.280        13
37.300        13
37.320        23
37.340        13
37.360        20
37.380        30
37.400        20
37.420        30
37.440        33
37.460        43
37.480        13
37.500        17
37.520        13
37.540        20
37.560        20
37.580        20
37.600        17
37.620        20
37.640        40
37.660         3
37.680        10
37.700        10
37.720        23
37.740        13
37.760        10
37.780        23
37.800        13
37.820        17
37.840        20
37.860        17
37.880        20
37.900        13
37.920        10
37.940        17
37.960        13
37.980        23
38.000        17
38.020        17
38.040        17
38.060        10
38.080        17
38.100        40
38.120        10
38.140        33
38.160        33
38.180        27
38.200        23
38.220        17
38.240        33
38.260        37
38.280        27
38.300        27
38.320        17
38.340        20
38.360        27
38.380        13
38.400        23
38.420        30
38.440        30
38.460        27
38.480        27
38.500        30
38.520        27
38.540        17
38.560        20
38.580         3
38.600        17
38.620        13
38.640        27
38.660        23
38.680        20
38.700        27
38.720        13
38.740        10
38.760        30
38.780        30
38.800         3
38.820        13
38.840        37
38.860         7
38.880        20
38.900        13
38.920        27
38.940        23
38.960        13
38.980        17
39.000        27
39.020        17
39.040        47
39.060         3
39.080        27
39.100        27
39.120        43
39.140        20
39.160        17
39.180        27
39.200        17
39.220        17
39.240        23
39.260        20
39.280        27
39.300        43
39.320        27
39.340        50
39.360        20
39.380        43
39.400        23
39.420         7
39.440        23
39.460        33
39.480        27
39.500        33
39.520        10
39.540        20
39.560        23
39.580        37
39.600        30
39.620        20
39.640        17
39.660        23
39.680        23
39.700        13
39.720         3
39.740        27
39.760        37
39.780        20
39.800        20
39.820        23
39.840        23
39.860        27
39.880        20
39.900        23
39.920        17
39.940         7
39.960        17
39.980        17
40.000        20
40.020        10
40.040        23
40.060        23
40.080        33
40.100        20
40.120        17
40.140        37
40.160        27
40.180        20
40.200        27
40.220        23
40.240        23
40.260        27
40.280        10
40.300        13
40.320        13
40.340        10
40.360        33
40.380        27
40.400        23
40.420        27
40.440        27
40.460        13
40.480        30
40.500        23
40.520        23
40.540        27
40.560        20
40.580        17
40.600        20
40.620        20
40.640        33
40.660        23
40.680        33
40.700        20
40.720        30
40.740        20
40.760        13
40.780        20
40.800        17
40.820        23
40.840        10
40.860        13
40.880        10
40.900        33
40.920        20
40.940        33
40.960        13
40.980        17
41.000        23
41.020        27
41.040        17
41.060        17
41.080        27
41.100        27
41.120        10
41.140        20
41.160        17
41.180        27
41.200        20
41.220        27
41.240        23
41.260        13
41.280        13
41.300        23
41.320        30
41.340        37
41.360        20
41.380        43
41.400        37
41.420        10
41.440        33
41.460        27
41.480        17
41.500        20
41.520        20
41.540        13
41.560        27
41.580        10
41.600        27
41.620        20
41.640        23
41.660        23
41.680        17
41.700        33
41.720        20
41.740        20
41.760        20
41.780        17
41.800        10
41.820        37
41.840        20
41.860        20
41.880        13
41.900        20
41.920        23
41.940        33
41.960        33
41.980        43
42.000        20
42.020        30
42.040        10
42.060        33
42.080        33
42.100        10
42.120        67
42.140        53
42.160        37
42.180        50
42.200        27
42.220        27
42.240        63
42.260        37
42.280        30
42.300        50
42.320        13
42.340         0
42.360        30
42.380        23
42.400        43
42.420        13
42.440        23
42.460        30
42.480        20
42.500        20
42.520        10
42.540        23
42.560        17
42.580        33
42.600        17
42.620        17
42.640        20
42.660        30
42.680        20
42.700        20
42.720        10
42.740        13
42.760        17
42.780        33
42.800        20
42.820        30
42.840        30
42.860        20
42.880        10
42.900        20
42.920        33
42.940        37
42.960        20
42.980        33
43.000        20
43.020        37
43.040        37
43.060        47
43.080        43
43.100        23
43.120        17
43.140        37
43.160        27
43.180        43
43.200        13
43.220        33
43.240        33
43.260        27
43.280        37
43.300        20
43.320        27
43.340        23
43.360        27
43.380        30
43.400        47
43.420        60
43.440        27
43.460        30
43.480        43
43.500        20
43.520        27
43.540        30
43.560        33
43.580        20
43.600        20
43.620        33
43.640        50
43.660        13
43.680        23
43.700        17
43.720        30
43.740        47
43.760        40
43.780        23
43.800        27
43.820        43
43.840        40
43.860        60
43.880        23
43.900        40
43.920        30
43.940        37
43.960        53
43.980        17
44.000        77
44.020        57
44.040        53
44.060        27
44.080        43
44.100        37
44.120        27
44.140        57
44.160        23
44.180        43
44.200        27
44.220        53
44.240        47
44.260        63
44.280        23
44.300        70
44.320        50
44.340        47
44.360        50
44.380        50
44.400        50
44.420        57
44.440        37
44.460        53
44.480        50
44.500        43
44.520        53
44.540        67
44.560        53
44.580        63
44.600        67
44.620        73
44.640        77
44.660        97
44.680        83
44.700        57
44.720        80
44.740       127
44.760       123
44.780        80
44.800       133
44.820       107
44.840       113
44.860       140
44.880       110
44.900       133
44.920       110
44.940       103
44.960       160
44.980       193
45.000       180
45.020       147
45.040       203
45.060       183
45.080       207
45.100       200
45.120       190
45.140       187
45.160       247
45.180       183
45.200       240
45.220       230
45.240       270
45.260       240
45.280       283
45.300       290
45.320       337
45.340       383
45.360       317
45.380       370
45.400       380
45.420       430
45.440       423
45.460       493
45.480       486
45.500       450
45.520       503
45.540       490
45.560       436
45.580       513
45.600       516
45.620       556
45.640       540
45.660       546
45.680       606
45.700       566
45.720       573
45.740       516
45.760       636
45.780       670
45.800       553
45.820       570
45.840       636
45.860       673
45.880       606
45.900       603
45.920       590
45.940       610
45.960       700
45.980       533
46.000       526
46.020       500
46.040       556
46.060       640
46.080       510
46.100       566
46.120       566
46.140       463
46.160       470
46.180       470
46.200       503
46.220       433
46.240       490
46.260       443
46.280       413
46.300       403
46.320       360
46.340       417
46.360       407
46.380       400
46.400       370
46.420       317
46.440       343
46.460       253
46.480       237
46.500       277
46.520       247
46.540       263
46.560       240
46.580       250
46.600       233
46.620       250
46.640       203
46.660       247
46.680       257
46.700       237
46.720       203
46.740       223
46.760       213
46.780       217
46.800       160
46.820       230
46.840       153
46.860       203
46.880       140
46.900       190
46.920       163
46.940       163
46.960       147
46.980       147
47.000       110
47.020       150
47.040       123
47.060        97
47.080       117
47.100       117
47.120       110
47.140       113
47.160        73
47.180       123
47.200       123
47.220        57
47.240       117
47.260        93
47.280       107
47.300       110
47.320       103
47.340        87
47.360        70
47.380        80
47.400        93
47.420        97
47.440        93
47.460        73
47.480       127
47.500        53
47.520        73
47.540        67
47.560        93
47.580        60
47.600        77
47.620        63
47.640        53
47.660        47
47.680        57
47.700        83
47.720        47
47.740        43
47.760        97
47.780        67
47.800        83
47.820        67
47.840        33
47.860        83
47.880        50
47.900        67
47.920        50
47.940        57
47.960        43
47.980        80
48.000        43
48.020        47
48.040        53
48.060        20
48.080        43
48.100        50
48.120        60
48.140        60
48.160        40
48.180        40
48.200        27
48.220        40
48.240        47
48.260        40
48.280        33
48.300        60
48.320        73
48.340        60
48.360        43
48.380        50
48.400        50
48.420        53
48.440        50
48.460        43
48.480        60
48.500        53
48.520        53
48.540        30
48.560        37
48.580        57
48.600        43
48.620        33
48.640        30
48.660        27
48.680        27
48.700        50
48.720        50
48.740        23
48.760        37
48.780        33
48.800        30
48.820        37
48.840        20
48.860        30
48.880        30
48.900        33
48.920        50
48.940        30
48.960        20
48.980        23
49.000        33
49.020        30
49.040        47
49.060        47
49.080        37
49.100        27
49.120        30
49.140        50
49.160        20
49.180        47
49.200        30
49.220        13
49.240        37
49.260        43
49.280        20
49.300        40
49.320        27
49.340        23
49.360        40
49.380        17
49.400        30
49.420        30
49.440        37
49.460        43
49.480        30
49.500        10
49.520        27
49.540        30
49.560        23
49.580        33
49.600        43
49.620        30
49.640        20
49.660        27
49.680        27
49.700        30
49.720        23
49.740        30
49.760        27
49.780        40
49.800        53
49.820        20
49.840        23
49.860        27
49.880        23
49.900        27
49.920        33
49.940        20
49.960        17
49.980        37
50.000        20
50.020        30
50.040        30
50.060        37
50.080        40
50.100        17
50.120        27
50.140        17
50.160        47
50.180        20
50.200        33
50.220         7
50.240        37
50.260        20
50.280        37
50.300        20
50.320        20
50.340        37
50.360        23
50.380        33
50.400        23
50.420        17
50.440        17
50.460        33
50.480        33
50.500        33
50.520        27
50.540        30
50.560        23
50.580        27
50.600        17
50.620        47
50.640        30
50.660        17
50.680        17
50.700        20
50.720        33
50.740        13
50.760        27
50.780        37
50.800        33
50.820        30
50.840        47
50.860        20
50.880        40
50.900        40
50.920        30
50.940        23
50.960        47
50.980        37
51.000        40
51.020        20
51.040        33
51.060        37
51.080        50
51.100        37
51.120        17
51.140        33
51.160        20
51.180        43
51.200        17
51.220        23
51.240        43
51.260        23
51.280        37
51.300        30
51.320        30
51.340        30
51.360        27
51.380        27
51.400        27
51.420        37
51.440        30
51.460        30
51.480        23
51.500        37
51.520        30
51.540        60
51.560        20
51.580        20
51.600        33
51.620        23
51.640        20
51.660        20
51.680        53
51.700        27
51.720        47
51.740        37
51.760        33
51.780        33
51.800        40
51.820        37
51.840        43
51.860        30
51.880        37
51.900        50
51.920        47
51.940        50
51.960        23
51.980        27
52.000        43
52.020        33
52.040        23
52.060        37
52.080        50
52.100        43
52.120        37
52.140        43
52.160        43
52.180        90
52.200        47
52.220        40
52.240        47
52.260        60
52.280        77
52.300        80
52.320       117
52.340       120
52.360       173
52.380       197
52.400       180
52.420       130
52.440       120
52.460       140
52.480       143
52.500       127
52.520       180
52.540       177
52.560       190
52.580       160
52.600       217
52.620       293
52.640       270
52.660       267
52.680       250
52.700       257
52.720       260
52.740       203
52.760       210
52.780       187
52.800       160
52.820       133
52.840       140
52.860        93
52.880        87
52.900        67
52.920        63
52.940        70
52.960        57
52.980        50
53.000        50
53.020        50
53.040        50
53.060        73
53.080        47
53.100        63
53.120        57
53.140        27
53.160        50
53.180        43
53.200        40
53.220        33
53.240        63
53.260        33
53.280        37
53.300        33
53.320        47
53.340        37
53.360        20
53.380        37
53.400        43
53.420        23
53.440        37
53.460        37
53.480        43
53.500        37
53.520        33
53.540        20
53.560        37
53.580        27
53.600        23
53.620        53
53.640        30
53.660        37
53.680        27
53.700        17
53.720        30
53.740        23
53.760        43
53.780        40
53.800        13
53.820        23
53.840        30
53.860        23
53.880        17
53.900        37
53.920        20
53.940        13
53.960        30
53.980        27
54.000        23
54.020        27
54.040        10
54.060        27
54.080        20
54.100        23
54.120        23
54.140        37
54.160        17
54.180        37
54.200        27
54.220        30
54.240        20
54.260        23
54.280        30
54.300        30
54.320        17
54.340        23
54.360        13
54.380        47
54.400        20
54.420        33
54.440        40
54.460        33
54.480        40
54.500        33
54.520        13
54.540        30
54.560        30
54.580        10
54.600        23
54.620        30
54.640        30
54.660        23
54.680        47
54.700        30
54.720        33
54.740        20
54.760        27
54.780        10
54.800        20
54.820        20
54.840        43
54.860        27
54.880        13
54.900        27
54.920        27
54.940        33
54.960        20
54.980        17
55.000        23
55.020        23
55.040        20
55.060        13
55.080        30
55.100        33
55.120        30
55.140        20
55.160        17
55.180         7
55.200         7
55.220        13
55.240        20
55.260        23
55.280        37
55.300        23
55.320        27
55.340        47
55.360        20
55.380        23
55.400        20
55.420        30
55.440        20
55.460        23
55.480        10
55.500        33
55.520        27
55.540        13
55.560        20
55.580        13
55.600        17
55.620        10
55.640        20
55.660        20
55.680        17
55.700        27
55.720        17
55.740        23
55.760        33
55.780        27
55.800        20
55.820        20
55.840        37
55.860        13
55.880        13
55.900         7
55.920        13
55.940        23
55.960        20
55.980        20
56.000        13
56.020        10
56.040        23
56.060        20
56.080         7
56.100        30
56.120        23
56.140        10
56.160        23
56.180        10
56.200        30
56.220        13
56.240        10
56.260        33
56.280        23
56.300        27
56.320        20
56.340        27
56.360        30
56.380        10
56.400        13
56.420         3
56.440        27
56.460        13
56.480        13
56.500        13
56.520         3
56.540        33
56.560        23
56.580        23
56.600        30
56.620        23
56.640        23
56.660        33
56.680        33
56.700        20
56.720        20
56.740        20
56.760        30
56.780        23
56.800        13
56.820        13
56.840        20
56.860        13
56.880        27
56.900        17
56.920        27
56.940        23
56.960        23
56.980        17
57.000        23
57.020        17
57.040        30
57.060        20
57.080        27
57.100        20
57.120        20
57.140        33
57.160        20
57.180         7
57.200        33
57.220        17
57.240        10
57.260        23
57.280        23
57.300        37
57.320        37
57.340        17
57.360        17
57.380        30
57.400        13
57.420        20
57.440        30
57.460        33
57.480        33
57.500        27
57.520        17
57.540        20
57.560        33
57.580        13
57.600        20
57.620        33
57.640        20
57.660        17
57.680        13
57.700        20
57.720        10
57.740        17
57.760        30
57.780         7
57.800        13
57.820        20
57.840        13
57.860        33
57.880        30
57.900         7
57.920        23
57.940         7
57.960        30
57.980        23
58.000        17
58.020        30
58.040        23
58.060        23
58.080        13
58.100        10
58.120        27
58.140        40
58.160        23
58.180        23
58.200        17
58.220        33
58.240        13
58.260        17
58.280         3
58.300         3
58.320        17
58.340        17
58.360        17
58.380        30
58.400         3
58.420        23
58.440        13
58.460        23
58.480         7
58.500        10
58.520        10
58.540        23
58.560        17
58.580        20
58.600         7
58.620        27
58.640        20
58.660        37
58.680        23
58.700        23
58.720        23
58.740        40
58.760        23
58.780        20
58.800        10
58.820         7
58.840         7
58.860        10
58.880         7
58.900        10
58.920        13
58.940        23
58.960        17
58.980        37
59.000        17
59.020        13
59.040        20
59.060        17
59.080        17
59.100        10
59.120        13
59.140        27
59.160         7
59.180        13
59.200        20
59.220        13
59.240        27
59.260        17
59.280        13
59.300        10
59.320        23
59.340        20
59.360        10
59.380        37
59.400        13
59.420        23
59.440        17
59.460        10
59.480        23
59.500        10
59.520        20
59.540        10
59.560        13
59.580        17
59.600        27
59.620        20
59.640        30
59.660        10
59.680        13
59.700        13
59.720        17
59.740        20
59.760        23
59.780        10
59.800        13
59.820        23
59.840        13
59.860        10
59.880        10
59.900        23
59.920        17
59.940        30
59.960         7
59.980        23
60.000        17
