20.000        30
20.020        53
20.040        67
20.060        80
20.080        43
20.100        73
20.120        60
20.140        73
20.160        63
20.180        93
20.200        60
20.220        63
20.240        87
20.260        87
20.280        57
20.300        67
20.320        70
20.340        77
20.360        47
20.380        47
20.400        57
20.420        77
20.440        60
20.460        73
20.480        73
20.500        87
20.520        77
20.540        93
20.560        87
20.580        63
20.600        73
20.620        77
20.640        67
20.660        57
20.680        57
20.700        53
20.720        80
20.740        63
20.760        63
20.780        43
20.800        63
20.820        47
20.840        57
20.860        73
20.880        60
20.900        20
20.920        67
20.940        77
20.960        63
20.980        67
21.000        83
21.020        67
21.040        83
21.060        47
21.080       107
21.100       100
21.120        67
21.140        70
21.160        47
21.180        83
21.200        43
21.220        53
21.240        73
21.260        70
21.280        63
21.300        70
21.320        60
21.340        60
21.360        87
21.380        70
21.400        87
21.420        53
21.440        47
21.460        63
21.480        73
21.500        63
21.520        43
21.540        53
21.560        43
21.580        63
21.600        63
21.620        60
21.640        73
21.660        63
21.680        67
21.700        83
21.720        73
21.740        50
21.760        53
21.780        63
21.800        60
21.820        53
21.840        67
21.860        53
21.880        67
21.900        83
21.920        67
21.940        63
21.960        73
21.980        57
22.000        70
22.020        60
22.040        47
22.060        50
22.080        67
22.100        80
22.120        83
22.140        70
22.160        73
22.180        70
22.200        43
22.220        87
22.240       103
22.260        87
22.280        57
22.300        83
22.320        63
22.340        80
22.360        80
22.380        80
22.400        63
22.420        67
22.440       110
22.460       127
22.480       110
22.500       120
22.520       140
22.540       123
22.560       133
22.580       163
22.600       173
22.620       173
22.640       173
22.660       217
22.680       187
22.700       177
22.720       197
22.740       183
22.760       177
22.780       203
22.800       213
22.820       187
22.840       143
22.860       167
22.880       157
22.900       123
22.920        87
22.940        87
22.960       113
22.980       120
23.000       103
23.020        80
23.040        67
23.060       103
23.080        80
23.100        70
23.120       100
23.140        90
23.160        87
23.180        43
23.200        60
23.220        67
23.240        77
23.260        80
23.280        80
23.300        90
23.320        77
23.340        67
23.360        57
23.380        47
23.400        43
23.420        63
23.440        50
23.460        73
23.480        70
23.500        53
23.520        50
23.540        37
23.560        57
23.580        53
23.600        53
23.620        73
23.640        73
23.660        60
23.680        67
23.700        67
23.720        57
23.740        40
23.760        67
23.780        70
23.800        57
23.820        50
23.840        73
23.860        47
23.880        43
23.900        53
23.920        60
23.940        53
23.960        60
23.980        43
24.000        63
24.020        83
24.040        60
24.060        43
24.080        63
24.100        57
24.120        70
24.140        37
24.160        53
24.180        43
24.200        60
24.220        57
24.240        57
24.260        50
24.280        40
24.300        53
24.320        77
24.340        63
24.360        63
24.380        70
24.400        67
24.420        77
24.440        57
24.460        67
24.480        43
24.500        77
24.520        40
24.540        63
24.560        57
24.580        63
24.600        30
24.620        37
24.640        67
24.660        50
24.680        40
24.700        47
24.720        77
24.740        63
24.760        60
24.780        60
24.800        90
24.820        67
24.840        87
24.860        50
24.880        87
24.900        53
24.920        43
24.940        50
24.960        90
24.980        53
25.000        67
25.020        60
25.040        67
25.060        70
25.080        27
25.100        67
25.120        57
25.140        53
25.160        77
25.180        37
25.200        57
25.220        47
25.240        47
25.260        50
25.280        53
25.300        30
25.320        67
25.340        47
25.360        43
25.380        50
25.400        47
25.420        53
25.440        53
25.460        77
25.480        63
25.500        57
25.520        50
25.540        70
25.560        77
25.580        43
25.600        37
25.620        50
25.640        30
25.660        23
25.680        47
25.700        43
25.720        43
25.740        63
25.760        43
25.780        50
25.800        53
25.820        60
25.840        53
25.860        60
25.880        47
25.900        47
25.920        47
25.940        63
25.960        53
25.980        47
26.000        40
26.020        60
26.040        27
26.060        33
26.080        43
26.100        43
26.120        43
26.140        20
26.160        67
26.180        50
26.200        50
26.220        47
26.240        43
26.260        40
26.280        50
26.300        67
26.320        33
26.340        40
26.360        50
26.380        37
26.400        43
26.420        70
26.440        57
26.460        47
26.480        50
26.500        47
26.520        53
26.540        27
26.560        57
26.580        27
26.600        37
26.620        47
26.640        27
26.660        67
26.680        40
26.700        37
26.720        23
26.740        43
26.760        23
26.780        47
26.800        37
26.820        30
26.840        33
26.860        30
26.880        53
26.900        47
26.920        30
26.940        40
26.960        50
26.980        53
27.000        37
27.020        20
27.040        37
27.060        43
27.080        63
27.100        63
27.120        53
27.140        63
27.160        40
27.180        53
27.200        30
27.220        47
27.240        23
27.260        50
27.280        37
27.300        53
27.320        13
27.340        63
27.360        27
27.380        37
27.400        43
27.420        70
27.440        47
27.460        53
27.480        37
27.500        47
27.520        37
27.540        43
27.560        57
27.580        33
27.600        40
27.620        37
27.640        17
27.660        40
27.680        57
27.700        40
27.720        60
27.740        43
27.760        13
27.780        40
27.800        30
27.820        27
27.840        37
27.860        33
27.880        30
27.900        37
27.920        53
27.940        33
27.960        43
27.980        40
28.000        30
28.020        47
28.040        47
28.060        47
28.080        43
28.100        43
28.120        23
28.140        70
28.160        53
28.180        40
28.200        50
28.220        23
28.240        37
28.260        33
28.280        40
28.300        50
28.320        53
28.340        40
28.360        43
28.380        37
28.400        43
28.420        60
28.440        33
28.460        57
28.480        63
28.500        53
28.520        30
28.540        53
28.560        50
28.580        37
28.600        63
28.620        30
28.640        37
28.660        27
28.680        60
28.700        37
28.720        43
28.740        47
28.760        20
28.780        40
28.800        37
28.820        33
28.840        33
28.860        40
28.880        37
28.900        13
28.920        63
28.940        40
28.960        43
28.980        53
29.000        57
29.020        67
29.040        57
29.060        47
29.080        57
29.100        27
29.120        73
29.140        57
29.160        73
29.180        33
29.200        83
29.220        80
29.240        93
29.260        53
29.280        83
29.300        73
29.320        90
29.340        77
29.360        93
29.380        47
29.400        80
29.420        70
29.440        53
29.460       100
29.480        77
29.500        60
29.520        87
29.540       107
29.560       130
29.580        97
29.600        70
29.620        40
29.640        50
29.660        47
29.680        47
29.700        60
29.720        40
29.740        50
29.760        23
29.780        33
29.800        60
29.820        33
29.840        23
29.860       100
29.880        43
29.900        37
29.920        50
29.940        40
29.960        50
29.980        43
30.000        57
30.020        53
30.040        70
30.060        53
30.080        70
30.100        40
30.120        43
30.140        57
30.160        57
30.180        33
30.200        43
30.220        57
30.240        40
30.260        73
30.280        27
30.300        47
30.320        43
30.340        37
30.360        43
30.380        47
30.400        80
30.420        40
30.440        50
30.460        57
30.480        63
30.500        50
30.520        50
30.540        60
30.560        33
30.580        60
30.600        60
30.620        63
30.640        67
30.660        70
30.680        57
30.700        57
30.720        50
30.740        67
30.760        67
30.780        63
30.800        80
30.820        70
30.840        53
30.860        63
30.880        70
30.900        80
30.920        77
30.940        77
30.960        93
30.980        43
31.000        73
31.020        97
31.040        70
31.060        80
31.080        80
31.100        77
31.120        77
31.140        53
31.160        83
31.180        50
31.200       107
31.220       107
31.240        90
31.260        63
31.280        83
31.300       120
31.320        60
31.340        90
31.360        73
31.380        77
31.400        90
31.420        87
31.440       107
31.460        90
31.480        83
31.500        77
31.520        77
31.540        83
31.560       127
31.580        80
31.600        87
31.620       103
31.640       107
31.660        83
31.680       103
31.700       117
31.720        90
31.740        87
31.760       100
31.780       133
31.800       147
31.820       150
31.840       193
31.860       230
31.880       200
31.900       247
31.920       220
31.940       287
31.960       233
31.980       227
32.000       290
32.020       360
32.040       603
32.060      1050
32.080      2146
32.100      3379
32.120      3928
32.140      2862
32.160      1269
32.180       586
32.200       450
32.220       323
32.240       290
32.260       263
32.280       220
32.300       260
32.320       307
32.340       320
32.360       230
32.380       277
32.400       250
32.420       230
32.440       223
32.460       290
32.480       237
32.500       280
32.520       233
32.540       217
32.560       207
32.580       237
32.600       173
32.620       223
32.640       240
32.660       217
32.680       213
32.700       200
32.720       163
32.740       203
32.760       153
32.780       177
32.800       117
32.820       150
32.840       137
32.860       197
32.880       167
32.900       180
32.920       163
32.940       160
32.960       103
32.980       167
33.000       127
33.020       143
33.040       140
33.060       143
33.080       163
33.100       143
33.120       143
33.140       133
33.160       117
33.180       167
33.200       120
33.220       130
33.240       163
33.260       147
33.280       167
33.300       133
33.320       123
33.340       113
33.360       147
33.380       153
33.400       153
33.420       100
33.440       153
33.460       137
33.480       120
33.500       170
33.520       170
33.540       130
33.560       173
33.580       143
33.600       207
33.620       143
33.640       147
33.660       147
33.680       157
33.700       173
33.720       117
33.740       130
33.760       137
33.780       127
33.800       140
33.820       183
33.840       197
33.860       130
33.880       117
33.900       123
33.920       157
33.940       163
33.960       120
33.980       180
34.000       147
34.020       137
34.040       137
34.060       173
34.080       123
34.100       203
34.120       213
34.140       140
34.160       117
34.180       173
34.200       207
34.220       203
34.240       237
34.260       183
34.280       227
34.300       203
34.320       310
34.340       383
34.360       596
34.380       883
34.400      1213
34.420      1409
34.440      1369
34.460      1559
34.480      1516
34.500      1466
34.520      1456
34.540      1549
34.560      1456
34.580      1489
34.600      1499
34.620      1543
34.640      1546
34.660      1509
34.680      1489
34.700      1563
34.720      1459
34.740      1473
34.760      1586
34.780      1643
34.800      1563
34.820      1529
34.840      1663
34.860      1596
34.880      1709
34.900      1553
34.920      1533
34.940      1596
34.960      1686
34.980      1509
35.000      1753
35.020      1696
35.040      1729
35.060      1749
35.080      1729
35.100      1646
35.120      1696
35.140      1833
35.160      2046
35.180      1939
35.200      2013
35.220      1959
35.240      2236
35.260      2302
35.280      2392
35.300      2842
35.320      3229
35.340      4082
35.360      5871
35.380      7997
35.400     11635
35.420     15874
35.440     19772
35.460     23914
35.480     27132
35.500     29658
35.520     32584
35.540     40930
35.560     67153
35.580    158823
35.600    258233
35.620    286529
35.640    284719
35.660    264647
35.680    210489
35.700    209493
35.720    219645
35.740    206084
35.760    142010
35.780     55065
35.800     22118
35.820     13228
35.840      9450
35.860      7137
35.880      5718
35.900      4888
35.920      4172
35.940      3925
35.960      3529
35.980      3105
36.000      2736
36.020      2759
36.040      2732
36.060      2439
36.080      2369
36.100      2342
36.120      2109
36.140      2096
36.160      1983
36.180      1976
36.200      1966
36.220      1749
36.240      1899
36.260      1789
36.280      1563
36.300      1666
36.320      1523
36.340      1623
36.360      1563
36.380      1383
36.400      1539
36.420      1419
36.440      1486
36.460      1346
36.480      1349
36.500      1269
36.520      1396
36.540      1373
36.560      1286
36.580      1213
36.600      1143
36.620      1236
36.640      1206
36.660      1133
36.680      1226
36.700      1236
36.720      1110
36.740      1060
36.760      1046
36.780      1063
36.800      1090
36.820      1056
36.840      1100
36.860      1196
36.880       950
36.900      1053
36.920       996
36.940      1006
36.960      1040
36.980      1060
37.000       986
37.020      1020
37.040       930
37.060       900
37.080       933
37.100      1090
37.120      1040
37.140       990
37.160      1006
37.180       970
37.200      1026
37.220       940
37.240       973
37.260       923
37.280       910
37.300       880
37.320       903
37.340      1010
37.360       923
37.380       920
37.400       853
37.420       856
37.440       893
37.460       900
37.480       856
37.500       886
37.520       886
37.540       960
37.560       830
37.580       860
37.600       786
37.620       826
37.640       766
37.660       746
37.680       920
37.700       776
37.720       806
37.740       866
37.760       860
37.780       770
37.800       880
37.820       790
37.840       773
37.860       790
37.880       760
37.900       680
37.920       680
37.940       756
37.960       803
37.980       690
38.000       656
38.020       780
38.040       716
38.060       680
38.080       760
38.100       770
38.120       696
38.140       760
38.160       733
38.180       750
38.200       733
38.220       703
38.240       656
38.260       666
38.280       700
38.300       676
38.320       700
38.340       726
38.360       663
38.380       696
38.400       726
38.420       700
38.440       740
38.460       826
38.480       660
38.500       720
38.520       743
38.540       676
38.560       706
38.580       616
38.600       726
38.620       683
38.640       733
38.660       706
38.680       680
38.700       603
38.720       613
38.740       636
38.760       646
38.780       596
38.800       583
38.820       560
38.840       556
38.860       580
38.880       626
38.900       690
38.920       606
38.940       613
38.960       520
38.980       640
39.000       536
39.020       513
39.040       606
39.060       593
39.080       613
39.100       700
39.120       563
39.140       633
39.160       543
39.180       600
39.200       596
39.220       553
39.240       563
39.260       593
39.280       560
39.300       573
39.320       653
39.340       543
39.360       583
39.380       613
39.400       613
39.420       586
39.440       550
39.460       556
39.480       500
39.500       533
39.520       530
39.540       550
39.560       543
39.580       556
39.600       503
39.620       520
39.640       533
39.660       493
39.680       490
39.700       523
39.720       513
39.740       560
39.760       540
39.780       493
39.800       486
39.820       453
39.840       596
39.860       536
39.880       450
39.900       550
39.920       563
39.940       550
39.960       563
39.980       573
40.000       503
40.020       480
40.040       536
40.060       570
40.080       496
40.100       506
40.120       570
40.140       543
40.160       440
40.180       510
40.200       506
40.220       540
40.240       530
40.260       426
40.280       483
40.300       436
40.320       530
40.340       433
40.360       387
40.380       470
40.400       350
40.420       480
40.440       393
40.460       443
40.480       456
40.500       436
40.520       430
40.540       403
40.560       407
40.580       450
40.600       443
40.620       446
40.640       486
40.660       433
40.680       450
40.700       493
40.720       450
40.740       397
40.760       423
40.780       436
40.800       317
40.820       403
40.840       426
40.860       456
40.880       390
40.900       383
40.920       443
40.940       423
40.960       367
40.980       456
41.000       333
41.020       413
41.040       407
41.060       400
41.080       463
41.100       453
41.120       410
41.140       333
41.160       323
41.180       413
41.200       380
41.220       407
41.240       367
41.260       393
41.280       430
41.300       383
41.320       387
41.340       410
41.360       446
41.380       407
41.400       360
41.420       357
41.440       436
41.460       350
41.480       307
41.500       343
41.520       403
41.540       353
41.560       410
41.580       357
41.600       340
41.620       400
41.640       393
41.660       347
41.680       297
41.700       370
41.720       393
41.740       323
41.760       350
41.780       310
41.800       360
41.820       450
41.840       380
41.860       310
41.880       403
41.900       360
41.920       387
41.940       363
41.960       363
41.980       340
42.000       350
42.020       353
42.040       327
42.060       323
42.080       370
42.100       280
42.120       377
42.140       310
42.160       350
42.180       310
42.200       333
42.220       317
42.240       290
42.260       387
42.280       343
42.300       363
42.320       330
42.340       300
42.360       313
42.380       360
42.400       333
42.420       370
42.440       327
42.460       270
42.480       300
42.500       283
42.520       317
42.540       307
42.560       323
42.580       310
42.600       323
42.620       287
42.640       253
42.660       333
42.680       327
42.700       320
42.720       247
42.740       287
42.760       330
42.780       363
42.800       340
42.820       257
42.840       263
42.860       313
42.880       270
42.900       317
42.920       307
42.940       343
42.960       307
42.980       257
43.000       317
43.020       303
43.040       327
43.060       350
43.080       363
43.100       277
43.120       297
43.140       343
43.160       273
43.180       297
43.200       277
43.220       250
43.240       253
43.260       273
43.280       270
43.300       303
43.320       263
43.340       253
43.360       253
43.380       303
43.400       297
43.420       270
43.440       283
43.460       227
43.480       257
43.500       243
43.520       283
43.540       247
43.560       280
43.580       243
43.600       267
43.620       250
43.640       280
43.660       207
43.680       253
43.700       233
43.720       293
43.740       270
43.760       240
43.780       213
43.800       233
43.820       220
43.840       297
43.860       260
43.880       260
43.900       240
43.920       217
43.940       303
43.960       287
43.980       240
44.000       230
44.020       287
44.040       250
44.060       287
44.080       253
44.100       197
44.120       220
44.140       230
44.160       260
44.180       260
44.200       240
44.220       250
44.240       223
44.260       233
44.280       247
44.300       240
44.320       197
44.340       200
44.360       203
44.380       260
44.400       233
44.420       233
44.440       223
44.460       233
44.480       230
44.500       227
44.520       273
44.540       210
44.560       270
44.580       213
44.600       257
44.620       190
44.640       247
44.660       243
44.680       230
44.700       207
44.720       237
44.740       210
44.760       187
44.780       253
44.800       213
44.820       193
44.840       243
44.860       193
44.880       253
44.900       220
44.920       190
44.940       237
44.960       237
44.980       230
45.000       193
45.020       203
45.040       213
45.060       200
45.080       227
45.100       293
45.120       250
45.140       217
45.160       287
45.180       230
45.200       210
45.220       237
45.240       280
45.260       200
45.280       267
45.300       320
45.320       227
45.340       187
45.360       223
45.380       260
45.400       260
45.420       287
45.440       253
45.460       253
45.480       253
45.500       250
45.520       290
45.540       273
45.560       200
45.580       330
45.600       277
45.620       253
45.640       303
45.660       350
45.680       327
45.700       303
45.720       377
45.740       443
45.760       387
45.780       367
45.800       417
45.820       426
45.840       440
45.860       397
45.880       480
45.900       520
45.920       560
45.940       510
45.960       656
45.980       776
46.000       703
46.020       890
46.040       733
46.060       866
46.080       946
46.100       976
46.120      1103
46.140      1186
46.160      1216
46.180      1250
46.200      1326
46.220      1436
46.240      1466
46.260      1719
46.280      1669
46.300      1643
46.320      1629
46.340      1436
46.360      1649
46.380      1779
46.400      1683
46.420      1816
46.440      1653
46.460      1569
46.480      1649
46.500      1529
46.520      1566
46.540      1526
46.560      1489
46.580      1356
46.600      1266
46.620      1266
46.640      1016
46.660       976
46.680       933
46.700       853
46.720       856
46.740       910
46.760       720
46.780       753
46.800       706
46.820       580
46.840       720
46.860       506
46.880       556
46.900       526
46.920       397
46.940       466
46.960       413
46.980       423
47.000       383
47.020       327
47.040       307
47.060       313
47.080       340
47.100       283
47.120       327
47.140       350
47.160       263
47.180       273
47.200       247
47.220       243
47.240       250
47.260       223
47.280       230
47.300       187
47.320       227
47.340       213
47.360       250
47.380       223
47.400       177
47.420       233
47.440       223
47.460       223
47.480       233
47.500       180
47.520       253
47.540       137
47.560       167
47.580       210
47.600       157
47.620       180
47.640       153
47.660       150
47.680       173
47.700       187
47.720       193
47.740       157
47.760       153
47.780       153
47.800       137
47.820       183
47.840       180
47.860       160
47.880       127
47.900       193
47.920       170
47.940       123
47.960       180
47.980       130
48.000       177
48.020       103
48.040       163
48.060       163
48.080       133
48.100       163
48.120       220
48.140       213
48.160       207
48.180       193
48.200       130
48.220       130
48.240       153
48.260       120
48.280       163
48.300       207
48.320       103
48.340       163
48.360       170
48.380       130
48.400       123
48.420       127
48.440       127
48.460       180
48.480       110
48.500       137
48.520        93
48.540       127
48.560       170
48.580       147
48.600       140
48.620       140
48.640       123
48.660       110
48.680       147
48.700       143
48.720       127
48.740       117
48.760       150
48.780       120
48.800       133
48.820       143
48.840       163
48.860       110
48.880       110
48.900       137
48.920       123
48.940       157
48.960       133
48.980       120
49.000       143
49.020       123
49.040       130
49.060       123
49.080       117
49.100       133
49.120       110
49.140       143
49.160       103
49.180       123
49.200        70
49.220       113
49.240       107
49.260       120
49.280       113
49.300       117
49.320       103
49.340       130
49.360       103
49.380       107
49.400       113
49.420       127
49.440        97
49.460       107
49.480       120
49.500        97
49.520        90
49.540       113
49.560       100
49.580        90
49.600       117
49.620       130
49.640       103
49.660       130
49.680       103
49.700       120
49.720       130
49.740        83
49.760       103
49.780        87
49.800       110
49.820       133
49.840       110
49.860        87
49.880        93
49.900       123
49.920       103
49.940       107
49.960       103
49.980        77
50.000       110
50.020       103
50.040       100
50.060       137
50.080        80
50.100       100
50.120       120
50.140       130
50.160        93
50.180       107
50.200       143
50.220       117
50.240        93
50.260        67
50.280        73
50.300       137
50.320       120
50.340        97
50.360        70
50.380        80
50.400       130
50.420       107
50.440        87
50.460        87
50.480        83
50.500        63
50.520       110
50.540       107
50.560        93
50.580        97
50.600       120
50.620        90
50.640        93
50.660       103
50.680        83
50.700        90
50.720        93
50.740       130
50.760       100
50.780       107
50.800        83
50.820       113
50.840        77
50.860        93
50.880       127
50.900       117
50.920       100
50.940       140
50.960        90
50.980        87
51.000        90
51.020        77
51.040        77
51.060       100
51.080       103
51.100       110
51.120        80
51.140       107
51.160        90
51.180       100
51.200        90
51.220        67
51.240       103
51.260        83
51.280        60
51.300       100
51.320        73
51.340       133
51.360        77
51.380       107
51.400       107
51.420        77
51.440        77
51.460        80
51.480        73
51.500       113
51.520        77
51.540        93
51.560        53
51.580       103
51.600        87
51.620        80
51.640        93
51.660        83
51.680       107
51.700        80
51.720       100
51.740        83
51.760        93
51.780       100
51.800        80
51.820        83
51.840        83
51.860        67
51.880       107
51.900       113
51.920        97
51.940        77
51.960        90
51.980        73
52.000        80
52.020        57
52.040        87
52.060        90
52.080       107
52.100        93
52.120        93
52.140        83
52.160       100
52.180        93
52.200        87
52.220        77
52.240       103
52.260        97
52.280        90
52.300        80
52.320        93
52.340        50
52.360        73
52.380        90
52.400        77
52.420        80
52.440        63
52.460       117
52.480        87
52.500       100
52.520        73
52.540        80
52.560        87
52.580        63
52.600        67
52.620        73
52.640        73
52.660        67
52.680        93
52.700        77
52.720        97
52.740        87
52.760        77
52.780        63
52.800        70
52.820        50
52.840        83
52.860        93
52.880        80
52.900        67
52.920        83
52.940        80
52.960        50
52.980        87
53.000        73
53.020        73
53.040        60
53.060        63
53.080       103
53.100        80
53.120        97
53.140        80
53.160        90
53.180        67
53.200        63
53.220        77
53.240        97
53.260        43
53.280        83
53.300        57
53.320       100
53.340        83
53.360        97
53.380        70
53.400        73
53.420        83
53.440        83
53.460        80
53.480       100
53.500        67
53.520        77
53.540        73
53.560        97
53.580        70
53.600       120
53.620        67
53.640        90
53.660        63
53.680        80
53.700        83
53.720        63
53.740        97
53.760        97
53.780        57
53.800        83
53.820        57
53.840        60
53.860        67
53.880        70
53.900        57
53.920        70
53.940        80
53.960        37
53.980        60
54.000        60
54.020        70
54.040        53
54.060        47
54.080        80
54.100        60
54.120        57
54.140        90
54.160        73
54.180        87
54.200        83
54.220        77
54.240        73
54.260        53
54.280        87
54.300       113
54.320        63
54.340        30
54.360        67
54.380        73
54.400        77
54.420        77
54.440        73
54.460        60
54.480        57
54.500        60
54.520        77
54.540        70
54.560        80
54.580        90
54.600        93
54.620        60
54.640        83
54.660        53
54.680        87
54.700        73
54.720        63
54.740        60
54.760        97
54.780        90
54.800        93
54.820        53
54.840        57
54.860        67
54.880        57
54.900        73
54.920        80
54.940        73
54.960        77
54.980        67
55.000        93
55.020        73
55.040       117
55.060       103
55.080       103
55.100        77
55.120        90
55.140        40
55.160        77
55.180        83
55.200        70
55.220        87
55.240        83
55.260        53
55.280        67
55.300        53
55.320        83
55.340        70
55.360        60
55.380        53
55.400        90
55.420        67
55.440       100
55.460        67
55.480        70
55.500        63
55.520        43
55.540        47
55.560        57
55.580        87
55.600        43
55.620        87
55.640        73
55.660        73
55.680        43
55.700        47
55.720        73
55.740        67
55.760        70
55.780        90
55.800        70
55.820        73
55.840        87
55.860        60
55.880        70
55.900        83
55.920        57
55.940        67
55.960        77
55.980        43
56.000        70
56.020        57
56.040        63
56.060        67
56.080        80
56.100        77
56.120        50
56.140        87
56.160        57
56.180        73
56.200        73
56.220        67
56.240        70
56.260        90
56.280        57
56.300        67
56.320        63
56.340        70
56.360        77
56.380        83
56.400        73
56.420        47
56.440        63
56.460        63
56.480        53
56.500        80
56.520        93
56.540        90
56.560        90
56.580        53
56.600       100
56.620        70
56.640        63
56.660        57
56.680        60
56.700       113
56.720        93
56.740        90
56.760       107
56.780        73
56.800        63
56.820        70
56.840        67
56.860        73
56.880        53
56.900        97
56.920        93
56.940        87
56.960        40
56.980        47
57.000        67
57.020        77
57.040        67
57.060        67
57.080        53
57.100        73
57.120        70
57.140        40
57.160        50
57.180        87
57.200        53
57.220        67
57.240        63
57.260        57
57.280        70
57.300        47
57.320        77
57.340        93
57.360        50
57.380        67
57.400        70
57.420        83
57.440        50
57.460        90
57.480        87
57.500        67
57.520        87
57.540        77
57.560        73
57.580        90
57.600        60
57.620        87
57.640        67
57.660        83
57.680        90
57.700        77
57.720        63
57.740        93
57.760        63
57.780        43
57.800        77
57.820        73
57.840       100
57.860        83
57.880        77
57.900        67
57.920        50
57.940        37
57.960        67
57.980        80
58.000        63
58.020        73
58.040        70
58.060        60
58.080        73
58.100        57
58.120        63
58.140        70
58.160        67
58.180        53
58.200        67
58.220        67
58.240        60
58.260        90
58.280        50
58.300        67
58.320        37
58.340        50
58.360        80
58.380        63
58.400        67
58.420        73
58.440        67
58.460        77
58.480        47
58.500        63
58.520        70
58.540        67
58.560        93
58.580        80
58.600        63
58.620        27
58.640        60
58.660        47
58.680        77
58.700        50
58.720        53
58.740        43
58.760        67
58.780        57
58.800        63
58.820        87
58.840        67
58.860        63
58.880        50
58.900        53
58.920        53
58.940        97
58.960        67
58.980        30
59.000        80
59.020        60
59.040        53
59.060        57
59.080        53
59.100        53
59.120        60
59.140        57
59.160        93
59.180        83
59.200        73
59.220        43
59.240        70
59.260        63
59.280        40
59.300        67
59.320        67
59.340        73
59.360        57
59.380        57
59.400        33
59.420        77
59.440        70
59.460        60
59.480        37
59.500        53
59.520        53
59.540        30
59.560        53
59.580        43
59.600        57
59.620        43
59.640        43
59.660        70
59.680        80
59.700        47
59.720        67
59.740        60
59.760        77
59.780        60
59.800        30
59.820        53
59.840        43
59.860        63
59.880        47
59.900        60
59.920        73
59.940        67
59.960        60
59.980        53
60.000        53
