20.000        73
20.010        40
20.020        47
20.030        20
20.040        40
20.050        80
20.060        73
20.070       113
20.080        33
20.090        40
20.100        60
20.110        40
20.120        33
20.130        20
20.140        40
20.150        27
20.160        20
20.170        13
20.180        53
20.190        60
20.200        20
20.210        40
20.220        33
20.230        27
20.240        87
20.250        33
20.260        40
20.270        73
20.280        73
20.290        20
20.300        20
20.310        47
20.320        53
20.330        67
20.340        73
20.350        40
20.360        27
20.370        13
20.380        27
20.390        20
20.400        53
20.410        33
20.420        40
20.430        53
20.440        60
20.450        33
20.460        33
20.470        60
20.480        27
20.490        73
20.500        60
20.510        13
20.520        67
20.530        27
20.540        13
20.550        40
20.560        47
20.570        33
20.580        40
20.590        40
20.600        27
20.610        67
20.620        27
20.630        20
20.640        53
20.650       107
20.660        47
20.670        53
20.680        73
20.690        40
20.700        27
20.710        33
20.720        53
20.730        20
20.740        80
20.750        60
20.760        40
20.770        20
20.780        40
20.790        20
20.800        47
20.810        60
20.820        27
20.830        60
20.840        60
20.850        47
20.860        53
20.870        33
20.880        47
20.890        27
20.900        27
20.910        13
20.920        40
20.930        73
20.940        33
20.950        67
20.960        53
20.970        33
20.980        47
20.990        40
21.000        60
21.010        33
21.020        20
21.030        47
21.040        27
21.050        47
21.060        33
21.070        60
21.080        47
21.090        20
21.100        40
21.110        67
21.120        53
21.130        33
21.140        33
21.150        33
21.160        27
21.170        60
21.180        60
21.190        47
21.200        67
21.210        40
21.220        27
21.230        47
21.240        53
21.250        27
21.260        40
21.270        60
21.280        40
21.290        40
21.300        20
21.310        33
21.320        60
21.330        27
21.340        47
21.350        67
21.360        60
21.370        67
21.380        60
21.390        73
21.400        27
21.410        33
21.420        60
21.430        20
21.440        20
21.450        40
21.460        40
21.470        27
21.480        60
21.490        40
21.500        47
21.510        20
21.520        53
21.530        60
21.540        40
21.550         7
21.560        47
21.570        40
21.580        13
21.590        33
21.600        33
21.610        60
21.620        40
21.630        53
21.640        27
21.650        33
21.660        27
21.670        47
21.680        47
21.690        53
21.700        40
21.710        47
21.720        40
21.730        73
21.740        47
21.750        47
21.760        33
21.770        47
21.780        33
21.790        53
21.800        33
21.810        53
21.820        47
21.830        53
21.840        40
21.850        40
21.860        13
21.870        20
21.880        13
21.890        27
21.900        47
21.910        47
21.920        87
21.930        80
21.940        13
21.950        40
21.960        67
21.970        33
21.980        47
21.990        47
22.000        40
22.010        40
22.020        67
22.030        53
22.040        53
22.050        53
22.060        47
22.070        13
22.080        73
22.090        33
22.100        40
22.110        73
22.120        40
22.130        47
22.140        27
22.150        33
22.160        47
22.170        40
22.180        27
22.190        27
22.200        20
22.210        40
22.220        27
22.230        20
22.240        27
22.250        47
22.260        33
22.270        60
22.280        20
22.290        67
22.300        33
22.310        40
22.320        60
22.330        40
22.340        33
22.350        67
22.360        73
22.370        60
22.380        40
22.390        47
22.400        73
22.410        60
22.420        87
22.430       140
22.440        93
22.450        73
22.460       107
22.470       100
22.480        93
22.490       133
22.500       160
22.510        80
22.520       127
22.530       133
22.540       127
22.550       160
22.560        60
22.570       173
22.580       147
22.590        93
22.600       207
22.610       173
22.620       220
22.630       227
22.640       207
22.650       233
22.660       180
22.670       260
22.680       193
22.690       273
22.700       233
22.710       220
22.720       240
22.730       220
22.740       300
22.750       220
22.760       293
22.770       133
22.780       233
22.790       180
22.800       307
22.810       167
22.820       193
22.830       220
22.840       160
22.850       120
22.860       147
22.870       120
22.880       107
22.890        80
22.900       113
22.910       120
22.920       160
22.930       127
22.940       120
22.950        73
22.960       127
22.970       127
22.980        40
22.990        87
23.000        47
23.010        47
23.020        47
23.030        93
23.040        53
23.050        47
23.060        73
23.070        80
23.080        27
23.090        87
23.100        47
23.110        20
23.120        60
23.130        67
23.140        73
23.150        53
23.160        33
23.170        47
23.180        67
23.190        33
23.200        93
23.210        53
23.220        27
23.230        47
23.240        60
23.250        67
23.260        47
23.270        13
23.280        73
23.290       107
23.300        47
23.310        53
23.320        40
23.330        53
23.340        40
23.350        60
23.360        73
23.370        47
23.380        60
23.390        87
23.400        33
23.410        20
23.420        33
23.430        47
23.440        73
23.450        40
23.460        40
23.470        33
23.480        20
23.490        27
23.500        67
23.510        13
23.520        27
23.530        27
23.540        33
23.550        47
23.560       113
23.570        60
23.580        73
23.590        40
23.600        73
23.610         7
23.620        60
23.630        53
23.640        67
23.650        40
23.660        40
23.670        67
23.680        67
23.690        33
23.700        33
23.710        40
23.720         7
23.730         0
23.740        33
23.750        33
23.760        60
23.770        67
23.780        40
23.790        20
23.800        60
23.810        40
23.820        33
23.830        27
23.840        40
23.850        47
23.860        47
23.870        93
23.880        33
23.890        40
23.900        33
23.910        53
23.920        40
23.930        13
23.940        40
23.950        27
23.960        20
23.970        33
23.980        53
23.990        40
24.000        33
24.010        53
24.020        27
24.030        53
24.040        40
24.050        33
24.060        27
24.070        13
24.080         7
24.090        53
24.100        20
24.110        20
24.120        67
24.130        27
24.140        27
24.150        47
24.160        47
24.170        53
24.180        47
24.190        13
24.200        33
24.210        40
24.220       100
24.230        80
24.240        40
24.250        33
24.260        73
24.270        33
24.280        47
24.290        27
24.300        67
24.310        13
24.320        73
24.330        53
24.340        47
24.350        40
24.360        33
24.370        47
24.380        27
24.390        40
24.400         7
24.410        33
24.420        53
24.430        33
24.440        27
24.450        73
24.460        40
24.470        27
24.480        47
24.490        27
24.500        60
24.510        47
24.520        33
24.530        27
24.540        33
24.550        47
24.560        33
24.570        60
24.580        40
24.590        47
24.600        73
24.610        40
24.620        40
24.630        20
24.640        47
24.650        33
24.660        27
24.670        20
24.680        33
24.690        40
24.700        67
24.710        60
24.720        60
24.730        40
24.740        47
24.750        33
24.760        53
24.770        47
24.780        27
24.790        53
24.800        40
24.810        47
24.820        73
24.830        33
24.840        27
24.850        27
24.860        47
24.870        60
24.880        53
24.890        27
24.900        40
24.910        80
24.920        40
24.930        47
24.940        53
24.950        40
24.960        27
24.970        33
24.980        80
24.990        27
25.000        47
25.010        73
25.020        20
25.030        33
25.040        60
25.050        40
25.060         7
25.070        27
25.080        33
25.090        40
25.100        47
25.110        20
25.120        20
25.130        33
25.140        40
25.150        33
25.160        27
25.170         7
25.180        60
25.190        40
25.200        33
25.210        53
25.220        40
25.230        20
25.240        33
25.250        67
25.260        27
25.270        20
25.280        27
25.290        60
25.300        27
25.310        93
25.320        20
25.330        33
25.340        40
25.350        40
25.360        40
25.370         7
25.380        47
25.390        27
25.400        87
25.410        53
25.420        27
25.430        40
25.440        53
25.450        80
25.460        53
25.470        20
25.480        27
25.490        53
25.500        53
25.510        27
25.520        33
25.530        33
25.540        53
25.550        33
25.560        40
25.570        40
25.580        20
25.590        47
25.600        53
25.610        47
25.620        33
25.630        13
25.640        40
25.650        80
25.660        33
25.670        67
25.680        20
25.690        60
25.700        33
25.710        27
25.720        33
25.730         7
25.740        40
25.750        13
25.760        40
25.770        27
25.780        33
25.790        27
25.800        20
25.810        47
25.820        27
25.830        20
25.840        73
25.850         7
25.860        33
25.870        80
25.880        33
25.890        27
25.900        60
25.910        73
25.920        33
25.930        27
25.940        47
25.950        60
25.960        20
25.970        73
25.980        40
25.990        40
26.000        40
26.010        47
26.020        13
26.030        33
26.040        53
26.050        47
26.060        33
26.070        73
26.080        40
26.090        33
26.100        33
26.110        40
26.120         7
26.130        40
26.140        27
26.150        40
26.160        53
26.170        20
26.180        47
26.190        33
26.200        47
26.210        47
26.220        53
26.230        33
26.240        53
26.250        20
26.260        47
26.270        20
26.280        53
26.290        47
26.300        27
26.310        20
26.320        60
26.330        27
26.340        60
26.350        47
26.360        20
26.370        33
26.380        53
26.390        60
26.400        13
26.410        27
26.420        53
26.430        47
26.440        53
26.450        27
26.460        20
26.470        40
26.480        13
26.490        40
26.500        27
26.510        47
26.520        20
26.530        27
26.540        40
26.550         7
26.560        40
26.570        20
26.580        33
26.590        53
26.600        47
26.610        73
26.620        47
26.630        47
26.640        20
26.650        47
26.660        40
26.670        53
26.680        20
26.690        67
26.700        53
26.710        40
26.720        33
26.730        47
26.740        40
26.750        60
26.760        27
26.770        20
26.780        33
26.790        40
26.800        67
26.810        20
26.820        27
26.830        40
26.840        47
26.850        27
26.860        20
26.870        33
26.880        47
26.890        47
26.900        67
26.910        67
26.920        60
26.930        27
26.940        60
26.950        20
26.960        20
26.970        27
26.980        13
26.990        33
27.000         7
27.010        33
27.020        40
27.030        33
27.040        20
27.050        27
27.060        47
27.070        40
27.080        33
27.090        33
27.100        20
27.110        13
27.120        20
27.130        60
27.140        33
27.150        13
27.160        40
27.170        47
27.180        27
27.190        40
27.200        33
27.210        20
27.220        47
27.230        40
27.240        13
27.250        27
27.260        40
27.270        27
27.280        20
27.290        20
27.300        20
27.310        33
27.320        27
27.330        13
27.340        27
27.350        47
27.360        20
27.370         7
27.380        60
27.390        60
27.400        27
27.410        27
27.420        40
27.430        33
27.440        47
27.450        33
27.460        93
27.470         7
27.480        60
27.490        27
27.500        53
27.510        40
27.520        40
27.530        40
27.540        13
27.550        33
27.560        13
27.570        20
27.580        13
27.590        27
27.600        20
27.610        27
27.620        27
27.630        20
27.640        40
27.650        53
27.660        47
27.670        33
27.680        40
27.690        40
27.700        13
27.710        33
27.720        53
27.730        20
27.740        27
27.750        40
27.760        33
27.770        33
27.780        27
27.790        60
27.800        47
27.810        33
27.820        13
27.830        20
27.840        40
27.850        47
27.860        13
27.870        33
27.880        13
27.890        47
27.900        47
27.910        27
27.920        20
27.930        40
27.940        33
27.950        27
27.960        20
27.970        33
27.980        27
27.990        20
28.000        20
28.010        40
28.020        27
28.030        33
28.040        27
28.050        20
28.060        40
28.070        27
28.080        33
28.090        27
28.100        40
28.110        53
28.120        20
28.130        20
28.140        47
28.150         7
28.160        53
28.170        20
28.180        20
28.190        27
28.200         0
28.210        47
28.220        27
28.230        33
28.240        33
28.250         7
28.260         7
28.270        27
28.280        27
28.290        33
28.300        40
28.310        47
28.320        27
28.330        47
28.340        60
28.350        33
28.360        27
28.370        20
28.380         7
28.390        27
28.400        47
28.410        53
28.420        13
28.430        13
28.440         7
28.450        27
28.460        33
28.470         7
28.480        40
28.490        40
28.500        53
28.510        40
28.520        27
28.530        33
28.540        27
28.550        27
28.560        47
28.570        20
28.580        53
28.590        13
28.600        40
28.610        27
28.620         7
28.630        20
28.640        40
28.650        40
28.660        20
28.670        53
28.680        27
28.690        67
28.700        27
28.710        33
28.720        47
28.730        40
28.740        53
28.750        40
28.760        33
28.770        40
28.780        53
28.790        33
28.800        20
28.810        20
28.820        33
28.830        60
28.840         7
28.850        33
28.860        33
28.870        87
28.880        33
28.890        40
28.900        53
28.910         7
28.920        27
28.930        27
28.940        33
28.950         0
28.960        27
28.970        40
28.980        27
28.990        27
29.000        13
29.010        20
29.020        40
29.030        13
29.040        13
29.050        60
29.060         7
29.070        33
29.080        33
29.090        53
29.100        53
29.110        33
29.120        60
29.130        40
29.140        27
29.150        27
29.160        27
29.170        27
29.180        40
29.190        33
29.200        47
29.210        40
29.220        60
29.230        40
29.240        27
29.250        27
29.260        67
29.270        33
29.280        40
29.290        40
29.300        40
29.310        73
29.320        67
29.330        33
29.340        27
29.350        27
29.360        20
29.370        40
29.380        53
29.390        27
29.400        53
29.410        47
29.420        33
29.430        47
29.440        67
29.450        40
29.460        47
29.470        67
29.480        20
29.490        53
29.500        13
29.510        27
29.520        47
29.530        47
29.540        33
29.550        13
29.560        33
29.570        27
29.580        40
29.590        27
29.600        27
29.610        27
29.620        80
29.630        47
29.640        33
29.650        47
29.660        13
29.670        47
29.680        33
29.690        20
29.700        40
29.710        53
29.720        33
29.730        27
29.740        13
29.750        40
29.760        20
29.770        33
29.780        27
29.790        20
29.800        20
29.810        40
29.820        53
29.830        13
29.840        20
29.850        13
29.860        20
29.870        27
29.880        33
29.890        20
29.900        20
29.910        27
29.920        33
29.930        20
29.940        53
29.950        33
29.960        47
29.970        13
29.980        47
29.990        33
30.000        20
30.010        47
30.020         7
30.030        20
30.040        13
30.050        13
30.060        27
30.070        40
30.080        13
30.090        20
30.100        33
30.110        33
30.120        13
30.130        27
30.140        20
30.150        27
30.160        33
30.170        20
30.180        27
30.190        27
30.200        40
30.210        27
30.220        27
30.230        27
30.240        13
30.250        53
30.260        13
30.270        27
30.280         7
30.290        47
30.300        20
30.310        33
30.320        33
30.330        27
30.340        27
30.350        20
30.360        13
30.370        20
30.380        27
30.390         7
30.400        13
30.410        27
30.420        33
30.430        27
30.440        33
30.450        27
30.460        47
30.470        20
30.480        33
30.490        27
30.500        33
30.510        20
30.520        40
30.530        47
30.540        27
30.550         7
30.560        27
30.570        33
30.580        33
30.590        40
30.600        20
30.610        20
30.620         7
30.630        27
30.640        40
30.650        40
30.660        13
30.670        13
30.680        13
30.690         7
30.700         0
30.710        47
30.720        27
30.730        20
30.740        27
30.750         0
30.760        20
30.770        33
30.780        47
30.790        13
30.800        13
30.810        13
30.820        13
30.830        40
30.840        40
30.850        20
30.860        27
30.870        60
30.880        40
30.890        47
30.900        13
30.910        13
30.920        13
30.930        40
30.940        27
30.950         7
30.960        27
30.970        27
30.980        13
30.990        27
31.000        27
31.010        47
31.020         7
31.030        33
31.040        20
31.050        20
31.060        33
31.070        33
31.080        53
31.090        40
31.100        33
31.110        27
31.120        27
31.130        33
31.140        13
31.150        60
31.160        40
31.170        40
31.180        27
31.190        20
31.200        33
31.210        33
31.220        20
31.230        13
31.240        13
31.250        40
31.260        27
31.270        27
31.280        20
31.290        13
31.300        40
31.310         7
31.320        20
31.330        33
31.340        33
31.350        13
31.360        47
31.370        20
31.380        60
31.390         7
31.400        27
31.410        27
31.420        40
31.430        20
31.440        53
31.450        20
31.460        40
31.470        13
31.480        13
31.490        27
31.500        40
31.510        33
31.520        93
31.530        33
31.540        13
31.550         0
31.560        20
31.570        33
31.580        27
31.590        33
31.600         0
31.610         7
31.620        20
31.630         7
31.640        33
31.650        13
31.660        13
31.670        13
31.680        40
31.690        33
31.700        40
31.710        27
31.720        20
31.730        60
31.740        53
31.750        27
31.760        47
31.770        27
31.780        33
31.790        80
31.800        60
31.810         7
31.820        27
31.830        20
31.840        20
31.850        33
31.860        47
31.870        47
31.880        40
31.890        47
31.900        27
31.910        20
31.920        20
31.930        33
31.940        40
31.950        40
31.960        53
31.970        73
31.980        53
31.990        20
32.000        53
32.010        27
32.020        53
32.030        53
32.040        93
32.050        53
32.060        53
32.070       120
32.080        87
32.090        53
32.100        60
32.110        67
32.120        87
32.130        93
32.140       100
32.150        60
32.160        93
32.170       160
32.180        93
32.190        93
32.200        87
32.210       227
32.220       227
32.230       213
32.240       233
32.250       120
32.260       253
32.270       207
32.280       273
32.290       253
32.300       293
32.310       267
32.320       387
32.330       333
32.340       373
32.350       367
32.360       367
32.370       380
32.380       393
32.390       360
32.400       387
32.410       267
32.420       367
32.430       313
32.440       340
32.450       367
32.460       293
32.470       380
32.480       187
32.490       273
32.500       287
32.510       320
32.520       240
32.530       220
32.540       187
32.550       200
32.560       200
32.570       180
32.580       147
32.590       160
32.600       120
32.610       100
32.620       120
32.630        87
32.640        73
32.650        67
32.660        67
32.670        73
32.680        93
32.690       100
32.700        93
32.710        67
32.720        53
32.730        53
32.740        47
32.750        27
32.760        47
32.770        47
32.780        27
32.790        40
32.800        40
32.810        47
32.820        47
32.830        27
32.840        47
32.850        33
32.860        53
32.870        40
32.880        40
32.890        27
32.900        20
32.910        13
32.920        40
32.930        67
32.940        33
32.950        40
32.960        20
32.970        47
32.980        40
32.990        27
33.000        40
33.010        40
33.020        33
33.030         7
33.040        20
33.050        53
33.060        20
33.070        47
33.080        40
33.090        27
33.100        67
33.110        27
33.120        27
33.130        27
33.140        27
33.150        20
33.160        53
33.170         7
33.180        13
33.190        27
33.200        20
33.210        20
33.220        33
33.230        40
33.240        47
33.250        13
33.260        40
33.270        40
33.280        13
33.290        40
33.300        20
33.310        40
33.320        13
33.330        13
33.340        27
33.350        27
33.360        13
33.370         0
33.380        47
33.390        27
33.400        33
33.410        27
33.420        27
33.430        27
33.440        20
33.450        40
33.460        13
33.470        33
33.480        27
33.490        20
33.500        20
33.510        27
33.520        47
33.530        40
33.540        40
33.550        20
33.560        27
33.570        13
33.580        27
33.590        13
33.600        47
33.610        13
33.620        27
33.630        47
33.640        27
33.650        20
33.660        27
33.670        20
33.680         7
33.690         7
33.700         0
33.710        27
33.720        33
33.730        27
33.740         7
33.750        27
33.760         7
33.770        33
33.780         7
33.790        27
33.800        33
33.810        27
33.820        27
33.830        33
33.840        33
33.850        27
33.860        20
33.870        27
33.880        27
33.890        27
33.900        13
33.910        20
33.920        27
33.930        13
33.940        40
33.950         7
33.960        47
33.970        33
33.980        13
33.990        27
34.000        60
34.010         0
34.020        40
34.030         7
34.040        33
34.050        13
34.060        20
34.070        27
34.080        20
34.090        27
34.100        33
34.110        20
34.120        13
34.130        20
34.140        13
34.150        27
34.160        33
34.170         0
34.180        20
34.190        40
34.200        20
34.210        27
34.220        27
34.230        40
34.240        47
34.250        27
34.260         7
34.270         7
34.280        13
34.290        33
34.300        13
34.310        27
34.320        27
34.330         7
34.340        53
34.350        33
34.360        13
34.370        33
34.380        20
34.390        33
34.400        47
34.410        27
34.420        53
34.430        27
34.440        27
34.450        13
34.460        13
34.470        13
34.480        13
34.490         7
34.500        20
34.510        20
34.520        20
34.530        13
34.540        20
34.550        20
34.560        13
34.570        27
34.580         7
34.590        33
34.600        27
34.610        27
34.620        27
34.630         0
34.640        13
34.650        13
34.660        27
34.670        33
34.680        27
34.690         7
34.700         7
34.710        27
34.720        60
34.730         7
34.740        27
34.750        47
34.760        27
34.770        13
34.780        20
34.790        27
34.800        13
34.810        53
34.820        27
34.830        33
34.840        13
34.850         7
34.860         0
34.870        47
34.880        40
34.890        20
34.900        20
34.910        33
34.920         7
34.930        13
34.940         7
34.950        27
34.960        27
34.970        33
34.980        40
34.990        20
35.000        13
35.010        33
35.020        13
35.030        20
35.040        27
35.050        33
35.060        13
35.070         7
35.080        13
35.090         7
35.100        47
35.110        13
35.120         7
35.130        27
35.140        27
35.150         7
35.160        20
35.170        20
35.180        20
35.190        27
35.200         7
35.210        20
35.220        27
35.230        27
35.240        20
35.250        13
35.260         7
35.270        13
35.280        27
35.290        53
35.300        47
35.310        13
35.320        13
35.330        20
35.340        20
35.350        20
35.360        33
35.370        47
35.380        13
35.390        27
35.400        20
35.410        27
35.420         0
35.430        27
35.440        20
35.450        13
35.460        27
35.470        20
35.480        47
35.490        20
35.500        27
35.510        27
35.520        13
35.530        33
35.540        13
35.550         7
35.560        40
35.570        20
35.580        27
35.590        13
35.600        27
35.610        20
35.620        13
35.630        13
35.640         7
35.650        13
35.660        13
35.670        13
35.680        13
35.690        20
35.700        27
35.710        13
35.720         0
35.730        13
35.740         7
35.750        40
35.760        13
35.770        20
35.780         7
35.790        27
35.800        20
35.810        33
35.820        13
35.830        27
35.840        20
35.850        27
35.860        53
35.870        20
35.880        13
35.890        53
35.900        27
35.910        20
35.920        33
35.930        33
35.940        27
35.950        40
35.960         7
35.970        27
35.980        47
35.990         0
36.000        27
36.010        20
36.020        33
36.030        27
36.040        20
36.050        20
36.060        13
36.070        40
36.080        13
36.090        13
36.100        20
36.110        20
36.120        13
36.130        33
36.140        13
36.150        13
36.160        20
36.170        27
36.180        27
36.190        13
36.200        27
36.210        47
36.220        27
36.230        20
36.240         7
36.250        13
36.260        20
36.270         7
36.280        40
36.290        33
36.300        27
36.310        27
36.320        27
36.330        27
36.340        33
36.350        13
36.360         7
36.370        13
36.380        13
36.390        40
36.400        33
36.410        33
36.420        20
36.430        13
36.440        27
36.450        13
36.460        13
36.470        13
36.480        33
36.490        20
36.500        13
36.510        27
36.520        27
36.530        40
36.540        20
36.550         7
36.560         7
36.570        13
36.580        13
36.590        27
36.600        27
36.610        40
36.620        13
36.630         7
36.640        20
36.650        20
36.660        27
36.670        13
36.680        13
36.690        20
36.700        27
36.710         0
36.720        27
36.730        47
36.740        13
36.750        27
36.760         7
36.770         0
36.780        33
36.790        33
36.800        27
36.810        40
36.820        20
36.830        27
36.840        13
36.850        27
36.860         0
36.870         0
36.880        20
36.890         7
36.900        13
36.910        20
36.920        33
36.930         7
36.940        20
36.950        20
36.960         7
36.970        13
36.980        33
36.990        33
37.000        33
37.010        13
37.020        13
37.030        13
37.040        20
37.050        20
37.060        27
37.070         7
37.080         0
37.090        20
37.100        13
37.110        27
37.120         7
37.130        13
37.140         7
37.150        20
37.160         0
37.170        27
37.180        27
37.190        13
37.200        13
37.210        13
37.220        20
37.230        20
37.240        13
37.250        40
37.260        27
37.270        33
37.280        20
37.290         7
37.300        20
37.310        13
37.320        33
37.330         7
37.340         7
37.350        27
37.360         7
37.370        13
37.380        33
37.390        13
37.400        13
37.410        20
37.420        20
37.430        13
37.440        20
37.450         7
37.460         0
37.470        13
37.480        13
37.490        40
37.500        13
37.510         0
37.520        33
37.530         7
37.540        33
37.550         7
37.560        27
37.570        33
37.580        40
37.590        13
37.600        13
37.610         7
37.620        60
37.630        13
37.640        40
37.650        40
37.660        27
37.670        33
37.680        33
37.690        27
37.700        13
37.710        40
37.720        33
37.730        20
37.740        20
37.750        27
37.760        20
37.770         7
37.780        13
37.790        47
37.800        13
37.810        13
37.820        20
37.830        27
37.840        20
37.850        20
37.860        20
37.870        40
37.880        20
37.890        27
37.900        33
37.910        47
37.920        13
37.930        27
37.940        13
37.950         7
37.960        33
37.970        33
37.980        20
37.990         7
38.000        13
38.010        13
38.020        13
38.030        27
38.040        20
38.050        40
38.060        33
38.070         7
38.080        27
38.090        13
38.100        33
38.110        13
38.120        40
38.130        13
38.140         7
38.150        13
38.160        27
38.170         7
38.180        13
38.190         7
38.200         7
38.210         7
38.220        33
38.230        13
38.240        27
38.250        20
38.260        40
38.270        20
38.280        13
38.290         7
38.300         0
38.310        33
38.320        13
38.330         0
38.340        20
38.350         7
38.360        27
38.370        13
38.380        27
38.390        27
38.400        33
38.410        13
38.420        33
38.430        47
38.440        13
38.450        13
38.460        20
38.470        40
38.480        20
38.490        47
38.500        27
38.510        27
38.520        20
38.530        20
38.540        20
38.550         7
38.560        40
38.570        27
38.580        13
38.590        13
38.600        13
38.610        20
38.620        13
38.630        33
38.640        20
38.650        13
38.660        13
38.670        13
38.680         7
38.690        13
38.700        13
38.710        20
38.720         7
38.730        47
38.740         0
38.750        53
38.760        20
38.770        33
38.780        13
38.790         7
38.800        40
38.810         7
38.820        13
38.830        20
38.840         7
38.850        27
38.860        13
38.870        53
38.880         0
38.890        27
38.900         7
38.910        27
38.920        13
38.930        33
38.940        27
38.950         0
38.960         7
38.970        20
38.980        40
38.990        20
39.000        13
39.010        20
39.020         7
39.030        20
39.040        33
39.050        13
39.060        27
39.070        20
39.080        20
39.090        33
39.100        20
39.110        13
39.120         7
39.130         0
39.140        20
39.150        20
39.160        20
39.170        13
39.180        13
39.190         7
39.200        27
39.210        27
39.220         7
39.230         7
39.240        13
39.250        33
39.260        13
39.270        27
39.280        47
39.290        40
39.300        13
39.310        20
39.320        20
39.330         7
39.340        47
39.350        33
39.360        13
39.370        47
39.380        20
39.390        33
39.400        73
39.410         7
39.420        47
39.430        13
39.440        40
39.450        33
39.460        20
39.470        13
39.480        27
39.490        40
39.500         7
39.510         7
39.520        33
39.530         7
39.540        33
39.550        20
39.560        27
39.570         7
39.580        40
39.590        40
39.600        27
39.610        13
39.620         7
39.630        40
39.640        20
39.650        47
39.660        13
39.670        13
39.680        13
39.690        33
39.700        13
39.710        13
39.720        20
39.730        20
39.740        20
39.750        13
39.760         0
39.770        27
39.780        27
39.790        47
39.800         0
39.810        20
39.820        40
39.830        20
39.840        53
39.850        20
39.860        20
39.870        33
39.880        13
39.890        20
39.900        20
39.910        73
39.920        33
39.930        27
39.940         7
39.950        20
39.960        40
39.970        33
39.980        27
39.990        33
40.000        13
40.010        60
40.020         7
40.030        40
40.040        33
40.050        40
40.060        20
40.070        33
40.080        27
40.090         0
40.100        40
40.110        47
40.120        40
40.130        53
40.140        40
40.150        60
40.160        20
40.170        20
40.180        40
40.190        33
40.200        20
40.210        27
40.220        40
40.230        27
40.240        20
40.250        20
40.260        27
40.270         7
40.280         7
40.290        20
40.300        27
40.310         7
40.320        20
40.330        13
40.340        53
40.350        20
40.360        27
40.370        20
40.380        33
40.390        13
40.400        20
40.410         0
40.420        33
40.430         7
40.440        33
40.450        20
40.460         0
40.470        13
40.480        40
40.490        27
40.500         0
40.510        20
40.520        33
40.530        13
40.540        13
40.550        20
40.560        13
40.570        20
40.580        40
40.590         7
40.600        40
40.610        27
40.620        27
40.630        33
40.640         0
40.650        33
40.660         7
40.670        20
40.680        13
40.690         7
40.700         7
40.710        27
40.720         0
40.730        13
40.740        33
40.750        13
40.760        13
40.770        27
40.780        33
40.790        20
40.800        20
40.810        33
40.820        13
40.830        20
40.840        27
40.850        47
40.860         7
40.870        27
40.880        27
40.890        20
40.900        13
40.910        20
40.920        20
40.930        27
40.940        13
40.950        40
40.960        13
40.970        27
40.980        13
40.990        13
41.000        13
41.010         0
41.020        20
41.030         7
41.040        33
41.050        13
41.060        27
41.070        33
41.080        13
41.090         7
41.100        13
41.110        13
41.120        33
41.130         7
41.140        40
41.150        33
41.160        20
41.170        20
41.180        20
41.190         7
41.200        20
41.210        53
41.220        53
41.230        27
41.240        27
41.250        33
41.260        27
41.270        13
41.280        13
41.290         7
41.300        27
41.310         7
41.320        53
41.330        33
41.340        20
41.350        20
41.360         7
41.370        20
41.380        13
41.390        27
41.400        20
41.410        13
41.420        33
41.430        20
41.440        40
41.450         7
41.460        20
41.470        20
41.480        20
41.490         7
41.500        40
41.510        13
41.520        27
41.530         7
41.540        20
41.550        53
41.560        47
41.570        53
41.580        60
41.590        27
41.600        47
41.610         7
41.620        20
41.630        20
41.640        53
41.650        33
41.660        20
41.670        40
41.680        27
41.690        40
41.700        53
41.710         7
41.720        27
41.730        13
41.740         7
41.750        47
41.760        20
41.770        33
41.780        20
41.790         7
41.800        27
41.810        47
41.820         7
41.830        13
41.840        20
41.850        33
41.860        33
41.870        20
41.880        27
41.890        20
41.900         7
41.910        27
41.920        20
41.930        33
41.940        27
41.950         7
41.960         7
41.970        13
41.980        20
41.990        33
42.000        20
42.010        27
42.020        13
42.030        13
42.040        20
42.050        13
42.060        27
42.070        20
42.080        40
42.090         0
42.100        27
42.110        33
42.120        33
42.130        13
42.140        27
42.150        20
42.160        27
42.170        13
42.180        40
42.190         7
42.200        13
42.210        20
42.220        27
42.230        40
42.240        27
42.250         7
42.260        13
42.270        27
42.280         0
42.290        27
42.300        20
42.310        33
42.320        20
42.330        20
42.340        27
42.350        20
42.360         0
42.370        27
42.380         0
42.390        13
42.400        13
42.410        20
42.420        20
42.430        27
42.440        20
42.450        20
42.460         0
42.470        20
42.480        13
42.490         0
42.500         7
42.510        27
42.520        20
42.530        40
42.540         0
42.550        20
42.560        20
42.570        27
42.580        33
42.590         7
42.600        20
42.610        67
42.620        20
42.630        40
42.640        20
42.650         7
42.660        33
42.670        13
42.680        27
42.690        20
42.700        33
42.710        27
42.720        40
42.730        27
42.740        20
42.750        40
42.760        20
42.770         7
42.780        13
42.790        40
42.800        13
42.810         7
42.820        27
42.830        53
42.840        27
42.850         7
42.860        33
42.870        20
42.880        40
42.890         7
42.900        13
42.910        27
42.920        13
42.930        13
42.940        20
42.950        67
42.960         7
42.970         7
42.980        27
42.990         0
43.000        13
43.010        13
43.020        33
43.030        20
43.040        33
43.050        27
43.060        13
43.070         7
43.080        40
43.090        40
43.100        13
43.110        20
43.120        20
43.130        47
43.140        40
43.150         7
43.160        33
43.170        27
43.180         0
43.190        13
43.200        47
43.210        20
43.220        40
43.230        20
43.240         7
43.250        20
43.260        53
43.270        13
43.280        20
43.290        20
43.300        20
43.310         7
43.320        33
43.330        13
43.340        20
43.350        27
43.360        20
43.370        20
43.380        13
43.390        20
43.400        13
43.410        20
43.420        13
43.430        20
43.440        40
43.450         7
43.460        27
43.470         7
43.480        20
43.490         7
43.500        13
43.510        13
43.520         7
43.530        27
43.540        33
43.550        33
43.560        33
43.570        20
43.580        13
43.590        33
43.600        27
43.610        13
43.620         0
43.630        33
43.640        33
43.650        20
43.660        40
43.670         0
43.680        13
43.690        13
43.700        20
43.710        20
43.720        40
43.730         0
43.740        47
43.750        40
43.760        20
43.770        60
43.780         7
43.790        27
43.800        13
43.810        27
43.820        20
43.830        27
43.840        20
43.850        60
43.860        33
43.870        40
43.880        47
43.890        40
43.900        20
43.910        13
43.920        33
43.930        20
43.940        53
43.950         7
43.960        27
43.970        20
43.980         7
43.990        13
44.000        40
44.010        13
44.020        13
44.030        47
44.040        27
44.050        27
44.060        53
44.070        27
44.080        27
44.090         7
44.100        40
44.110        20
44.120         0
44.130        20
44.140        27
44.150        27
44.160        27
44.170        27
44.180        40
44.190        27
44.200        13
44.210         7
44.220        40
44.230        40
44.240        73
44.250        20
44.260        47
44.270        33
44.280         7
44.290        20
44.300        33
44.310        33
44.320        20
44.330        27
44.340         7
44.350        53
44.360        40
44.370        33
44.380        13
44.390        27
44.400        33
44.410        27
44.420        13
44.430        27
44.440         7
44.450        20
44.460        47
44.470        20
44.480         7
44.490        13
44.500        13
44.510        40
44.520        20
44.530        33
44.540        33
44.550        27
44.560        33
44.570        33
44.580        33
44.590        20
44.600        47
44.610        13
44.620        13
44.630        53
44.640        27
44.650        40
44.660        53
44.670        20
44.680        27
44.690        13
44.700        60
44.710        40
44.720        53
44.730        47
44.740        87
44.750        53
44.760        60
44.770        33
44.780        33
44.790        40
44.800        27
44.810        13
44.820        40
44.830        67
44.840        47
44.850        47
44.860        40
44.870        33
44.880        73
44.890        33
44.900        53
44.910        47
44.920        67
44.930        73
44.940        87
44.950        67
44.960        53
44.970       100
44.980        60
44.990        67
45.000        40
45.010        67
45.020        60
45.030        47
45.040        60
45.050        93
45.060        47
45.070        80
45.080        40
45.090        80
45.100        87
45.110        20
45.120        53
45.130        80
45.140        47
45.150        40
45.160        67
45.170        47
45.180        53
45.190       113
45.200        60
45.210        47
45.220        73
45.230        60
45.240        87
45.250        53
45.260        93
45.270        67
45.280        60
45.290        87
45.300        73
45.310        87
45.320        93
45.330        73
45.340       113
45.350        60
45.360        80
45.370        73
45.380        60
45.390        47
45.400        73
45.410       100
45.420        60
45.430       120
45.440       133
45.450       127
45.460        67
45.470       173
45.480        80
45.490       113
45.500       107
45.510       120
45.520        93
45.530        80
45.540        67
45.550        93
45.560       153
45.570       147
45.580       120
45.590        93
45.600       113
45.610       160
45.620       120
45.630       140
45.640       147
45.650       107
45.660       193
45.670       120
45.680       160
45.690       200
45.700       160
45.710       220
45.720       173
45.730       127
45.740       240
45.750       160
45.760       267
45.770       247
45.780       267
45.790       287
45.800       320
45.810       280
45.820       260
45.830       260
45.840       307
45.850       293
45.860       320
45.870       327
45.880       380
45.890       347
45.900       426
45.910       367
45.920       387
45.930       347
45.940       506
45.950       526
45.960       533
45.970       626
45.980       540
45.990       560
46.000       540
46.010       626
46.020       706
46.030       840
46.040       880
46.050       886
46.060       693
46.070      1033
46.080      1013
46.090       900
46.100       906
46.110      1020
46.120      1046
46.130      1180
46.140      1253
46.150      1140
46.160      1186
46.170      1126
46.180      1533
46.190      1606
46.200      1419
46.210      1446
46.220      1566
46.230      1639
46.240      1666
46.250      1813
46.260      1666
46.270      1639
46.280      1686
46.290      1693
46.300      1786
46.310      1813
46.320      1766
46.330      1786
46.340      1999
46.350      1666
46.360      1826
46.370      2099
46.380      2033
46.390      1993
46.400      1886
46.410      2019
46.420      1959
46.430      1939
46.440      1913
46.450      1806
46.460      1893
46.470      1773
46.480      1739
46.490      1466
46.500      1566
46.510      1659
46.520      1639
46.530      1399
46.540      1606
46.550      1399
46.560      1373
46.570      1386
46.580      1346
46.590      1106
46.600      1093
46.610      1186
46.620      1020
46.630      1100
46.640       980
46.650       813
46.660       953
46.670       746
46.680       853
46.690       773
46.700       820
46.710       646
46.720       720
46.730       660
46.740       686
46.750       526
46.760       660
46.770       553
46.780       600
46.790       573
46.800       466
46.810       466
46.820       453
46.830       420
46.840       526
46.850       466
46.860       380
46.870       320
46.880       387
46.890       367
46.900       320
46.910       287
46.920       300
46.930       327
46.940       353
46.950       327
46.960       273
46.970       267
46.980       193
46.990       187
47.000       227
47.010       233
47.020       213
47.030       227
47.040       140
47.050       173
47.060       207
47.070       160
47.080       167
47.090       167
47.100       127
47.110       160
47.120       180
47.130       147
47.140       180
47.150       120
47.160       153
47.170       100
47.180       140
47.190       140
47.200       167
47.210       160
47.220       173
47.230       120
47.240       140
47.250       147
47.260       133
47.270       107
47.280       140
47.290       113
47.300       180
47.310        93
47.320        67
47.330        93
47.340       140
47.350        93
47.360        47
47.370        73
47.380       180
47.390       100
47.400       107
47.410        73
47.420        93
47.430        73
47.440        53
47.450        60
47.460        87
47.470        87
47.480        93
47.490       113
47.500       100
47.510        40
47.520        87
47.530        87
47.540        87
47.550        60
47.560        80
47.570        67
47.580        67
47.590        80
47.600        60
47.610        80
47.620        60
47.630       100
47.640        93
47.650        80
47.660       127
47.670        53
47.680        60
47.690        93
47.700        67
47.710        40
47.720        60
47.730        20
47.740        60
47.750        53
47.760        53
47.770        47
47.780        73
47.790        60
47.800        53
47.810        73
47.820        67
47.830        33
47.840        40
47.850        73
47.860        73
47.870        60
47.880        53
47.890        67
47.900        47
47.910        13
47.920        80
47.930        13
47.940        73
47.950        47
47.960        67
47.970        60
47.980        40
47.990        60
48.000        80
48.010        73
48.020        60
48.030        47
48.040        73
48.050        40
48.060        53
48.070        53
48.080        47
48.090        60
48.100        47
48.110        27
48.120        67
48.130        53
48.140        67
48.150        53
48.160       100
48.170        13
48.180        40
48.190        53
48.200        33
48.210        27
48.220        53
48.230        40
48.240        53
48.250        27
48.260        53
48.270        67
48.280        60
48.290        27
48.300        47
48.310        67
48.320        60
48.330        33
48.340        27
48.350        47
48.360        33
48.370        27
48.380        27
48.390        27
48.400        40
48.410        87
48.420        73
48.430        40
48.440        27
48.450        60
48.460        40
48.470        60
48.480        80
48.490        40
48.500         7
48.510        47
48.520        33
48.530        20
48.540        60
48.550        27
48.560        13
48.570        33
48.580        40
48.590        60
48.600        60
48.610        53
48.620        60
48.630         7
48.640        87
48.650        73
48.660        33
48.670        13
48.680        33
48.690        40
48.700        33
48.710        33
48.720        27
48.730        40
48.740        33
48.750        13
48.760        33
48.770        47
48.780        60
48.790         7
48.800        27
48.810        27
48.820        40
48.830        67
48.840        47
48.850        60
48.860        60
48.870        27
48.880        60
48.890        60
48.900        40
48.910        47
48.920        20
48.930        47
48.940        40
48.950        40
48.960        33
48.970        53
48.980        20
48.990         7
49.000        27
49.010        33
49.020        33
49.030        60
49.040        67
49.050        33
49.060        73
49.070        33
49.080        27
49.090        33
49.100        40
49.110        20
49.120        80
49.130        47
49.140        13
49.150        40
49.160        13
49.170        27
49.180         7
49.190        13
49.200        33
49.210        33
49.220        27
49.230        27
49.240        40
49.250        20
49.260        13
49.270        27
49.280        33
49.290        13
49.300        47
49.310        53
49.320        20
49.330        53
49.340        47
49.350        13
49.360        20
49.370        33
49.380        27
49.390        40
49.400        20
49.410        13
49.420        33
49.430        13
49.440        33
49.450        20
49.460        13
49.470        27
49.480        47
49.490         7
49.500        53
49.510        67
49.520        40
49.530        27
49.540        33
49.550        40
49.560        13
49.570        67
49.580        20
49.590        20
49.600        20
49.610        27
49.620        13
49.630        33
49.640        33
49.650        33
49.660        33
49.670        40
49.680        60
49.690        27
49.700        40
49.710        40
49.720        20
49.730        33
49.740        13
49.750        13
49.760        47
49.770        20
49.780        27
49.790        33
49.800        33
49.810        40
49.820        27
49.830        20
49.840        33
49.850        40
49.860        40
49.870        33
49.880        40
49.890        27
49.900        13
49.910         7
49.920        27
49.930        27
49.940        27
49.950        13
49.960        33
49.970        40
49.980        33
49.990        27
50.000        27
50.010        47
50.020        13
50.030         7
50.040        20
50.050        13
50.060        27
50.070        33
50.080        53
50.090         7
50.100        13
50.110        47
50.120        13
50.130        40
50.140        40
50.150        13
50.160        53
50.170        20
50.180        27
50.190        20
50.200        20
50.210        33
50.220        53
50.230         7
50.240        33
50.250         7
50.260        33
50.270        13
50.280        13
50.290        27
50.300        20
50.310        13
50.320        27
50.330        20
50.340        27
50.350        40
50.360        13
50.370        20
50.380        13
50.390        20
50.400        27
50.410         7
50.420        20
50.430        20
50.440        13
50.450        33
50.460        33
50.470        13
50.480        33
50.490        27
50.500         7
50.510        40
50.520        40
50.530        33
50.540        20
50.550        27
50.560        27
50.570         0
50.580        13
50.590        27
50.600        40
50.610        40
50.620        40
50.630        53
50.640        40
50.650        33
50.660        47
50.670        20
50.680        13
50.690        20
50.700        40
50.710        13
50.720        40
50.730        67
50.740         7
50.750        20
50.760        13
50.770        27
50.780        13
50.790        13
50.800        27
50.810        27
50.820        13
50.830        27
50.840        33
50.850        53
50.860        13
50.870         7
50.880        60
50.890        13
50.900        13
50.910        47
50.920        47
50.930        27
50.940        33
50.950        80
50.960        27
50.970        27
50.980        33
50.990        33
51.000        47
51.010        47
51.020        33
51.030        93
51.040        47
51.050         7
51.060        27
51.070        40
51.080        40
51.090        67
51.100        27
51.110        27
51.120        40
51.130        20
51.140        53
51.150        53
51.160        33
51.170        27
51.180        20
51.190        33
51.200        13
51.210        80
51.220        40
51.230        33
51.240        40
51.250        27
51.260        33
51.270        27
51.280        60
51.290        27
51.300        27
51.310        27
51.320        20
51.330        27
51.340        60
51.350        60
51.360        53
51.370        60
51.380        67
51.390        47
51.400        40
51.410        73
51.420        33
51.430        33
51.440        47
51.450        60
51.460         7
51.470        40
51.480        60
51.490        27
51.500        40
51.510        47
51.520        33
51.530        27
51.540        40
51.550        27
51.560        27
51.570        47
51.580        33
51.590        27
51.600        13
51.610         7
51.620        20
51.630        40
51.640        27
51.650        47
51.660        40
51.670        80
51.680        20
51.690        47
51.700        40
51.710        73
51.720        67
51.730        20
51.740        27
51.750        47
51.760        73
51.770         7
51.780        67
51.790        47
51.800        67
51.810        40
51.820        20
51.830        33
51.840        40
51.850        60
51.860        20
51.870        47
51.880        40
51.890        13
51.900        40
51.910        20
51.920        33
51.930        67
51.940        60
51.950        60
51.960        33
51.970        40
51.980        33
51.990        27
52.000        20
52.010        33
52.020        13
52.030        60
52.040        60
52.050        67
52.060        33
52.070        27
52.080        47
52.090        33
52.100        80
52.110        27
52.120        67
52.130        87
52.140        33
52.150        40
52.160        53
52.170        60
52.180        47
52.190        53
52.200        47
52.210        47
52.220        47
52.230        60
52.240        47
52.250        53
52.260        60
52.270        40
52.280        53
52.290        73
52.300        47
52.310        80
52.320        47
52.330        80
52.340        80
52.350        60
52.360        67
52.370       100
52.380        80
52.390        87
52.400       100
52.410       140
52.420        60
52.430        47
52.440        53
52.450        53
52.460        40
52.470        53
52.480        53
52.490        87
52.500        60
52.510        73
52.520       100
52.530        87
52.540        53
52.550        87
52.560       127
52.570        93
52.580        93
52.590       207
52.600       267
52.610       327
52.620       460
52.630       473
52.640       620
52.650       700
52.660       633
52.670       653
52.680       793
52.690       600
52.700       480
52.710       407
52.720       340
52.730       313
52.740       327
52.750       200
52.760       307
52.770       360
52.780       327
52.790       327
52.800       426
52.810       460
52.820       313
52.830       340
52.840       280
52.850       260
52.860       153
52.870       187
52.880       113
52.890       140
52.900        93
52.910        40
52.920       113
52.930        60
52.940        67
52.950        53
52.960        93
52.970        40
52.980        73
52.990        60
53.000        47
53.010        47
53.020        47
53.030        53
53.040        33
53.050        60
53.060        67
53.070        20
53.080        40
53.090        40
53.100        33
53.110        73
53.120        33
53.130        73
53.140        27
53.150        80
53.160        47
53.170        40
53.180        67
53.190        40
53.200        33
53.210        27
53.220        27
53.230        53
53.240        40
53.250        73
53.260        53
53.270        60
53.280        40
53.290        40
53.300        73
53.310        60
53.320        20
53.330        33
53.340        47
53.350        53
53.360        53
53.370        13
53.380        27
53.390        53
53.400        53
53.410        33
53.420        40
53.430        40
53.440        87
53.450        40
53.460        40
53.470        40
53.480        40
53.490        13
53.500        60
53.510        33
53.520        27
53.530        53
53.540        20
53.550        73
53.560        33
53.570        20
53.580         7
53.590         7
53.600        20
53.610        27
53.620        53
53.630        53
53.640        53
53.650        20
53.660        13
53.670        33
53.680        20
53.690        33
53.700        20
53.710        67
53.720        33
53.730        47
53.740        47
53.750        40
53.760        20
53.770        47
53.780        20
53.790        20
53.800        33
53.810        20
53.820        20
53.830        40
53.840        13
53.850        47
53.860        33
53.870        13
53.880        33
53.890        33
53.900        13
53.910        27
53.920        27
53.930        20
53.940        27
53.950         7
53.960        33
53.970        20
53.980        20
53.990        53
54.000        47
54.010        40
54.020        13
54.030        13
54.040        33
54.050        33
54.060        20
54.070        20
54.080        13
54.090        27
54.100        13
54.110        13
54.120        33
54.130        27
54.140        33
54.150        13
54.160        33
54.170        33
54.180        53
54.190        60
54.200        20
54.210        33
54.220        20
54.230        47
54.240        33
54.250        27
54.260        40
54.270        47
54.280        20
54.290        33
54.300        20
54.310        40
54.320        20
54.330        40
54.340        33
54.350        33
54.360        13
54.370         0
54.380        27
54.390        27
54.400        27
54.410        13
54.420        13
54.430        13
54.440        13
54.450        13
54.460        33
54.470        20
54.480        27
54.490        20
54.500        13
54.510        13
54.520        20
54.530        20
54.540        27
54.550        40
54.560         7
54.570        13
54.580        33
54.590        27
54.600        20
54.610        27
54.620         7
54.630        13
54.640         7
54.650        20
54.660        27
54.670        13
54.680         7
54.690        27
54.700        47
54.710        27
54.720        27
54.730         7
54.740        47
54.750         7
54.760        20
54.770         7
54.780        20
54.790        20
54.800         0
54.810        13
54.820        27
54.830        13
54.840        20
54.850        13
54.860        40
54.870        20
54.880        27
54.890        27
54.900        33
54.910        40
54.920        27
54.930        33
54.940        20
54.950        20
54.960        13
54.970        33
54.980        20
54.990        27
55.000        60
55.010        27
55.020        27
55.030        27
55.040        20
55.050         7
55.060         7
55.070        13
55.080        27
55.090        20
55.100        27
55.110        27
55.120         7
55.130        40
55.140        47
55.150        40
55.160        13
55.170        47
55.180         0
55.190        13
55.200        27
55.210        20
55.220        13
55.230        27
55.240        13
55.250        27
55.260        20
55.270        20
55.280        20
55.290        40
55.300        27
55.310        60
55.320        47
55.330         7
55.340        33
55.350         7
55.360        33
55.370        33
55.380        47
55.390        13
55.400        20
55.410        40
55.420        27
55.430        20
55.440         7
55.450        20
55.460        13
55.470        13
55.480        40
55.490        20
55.500        27
55.510        33
55.520        53
55.530        33
55.540        13
55.550         0
55.560        20
55.570        40
55.580        47
55.590        27
55.600        33
55.610        20
55.620        27
55.630        27
55.640        20
55.650         7
55.660        13
55.670        27
55.680        13
55.690        33
55.700        33
55.710        20
55.720         7
55.730        33
55.740        33
55.750         7
55.760        33
55.770        20
55.780         7
55.790        33
55.800        20
55.810         7
55.820        20
55.830        33
55.840         7
55.850         7
55.860        13
55.870        27
55.880        33
55.890        13
55.900        47
55.910        27
55.920         7
55.930        20
55.940         7
55.950        13
55.960         7
55.970        13
55.980         7
55.990        27
56.000         7
56.010        13
56.020         7
56.030         0
56.040         7
56.050        33
56.060         7
56.070        13
56.080         7
56.090        13
56.100        27
56.110        13
56.120         7
56.130         7
56.140        33
56.150        20
56.160        13
56.170        33
56.180        47
56.190        27
56.200        47
56.210        20
56.220        33
56.230         0
56.240        27
56.250         7
56.260        13
56.270        20
56.280        20
56.290        40
56.300        60
56.310        13
56.320        33
56.330        27
56.340        20
56.350        20
56.360        13
56.370        13
56.380        33
56.390        13
56.400        13
56.410        20
56.420        33
56.430        27
56.440        27
56.450        20
56.460         0
56.470        40
56.480        27
56.490        20
56.500        20
56.510        27
56.520        20
56.530        20
56.540        27
56.550        27
56.560         7
56.570        40
56.580        27
56.590        13
56.600         0
56.610        47
56.620        33
56.630        33
56.640        20
56.650        33
56.660        33
56.670        20
56.680        13
56.690         7
56.700         0
56.710        27
56.720        13
56.730         7
56.740        20
56.750        27
56.760        27
56.770        33
56.780        33
56.790        27
56.800        60
56.810         0
56.820         7
56.830        27
56.840        27
56.850         7
56.860        13
56.870        27
56.880        13
56.890        13
56.900         0
56.910        73
56.920         7
56.930        13
56.940         7
56.950        13
56.960        20
56.970        13
56.980         7
56.990        27
57.000        33
57.010        13
57.020        13
57.030        40
57.040        20
57.050        20
57.060         0
57.070        20
57.080         7
57.090        27
57.100        13
57.110        13
57.120        20
57.130        20
57.140        20
57.150        20
57.160        13
57.170        13
57.180        40
57.190        33
57.200        33
57.210        13
57.220        20
57.230        27
57.240        20
57.250        40
57.260        20
57.270        27
57.280        20
57.290        20
57.300         7
57.310        33
57.320        20
57.330        13
57.340        33
57.350        20
57.360        27
57.370        27
57.380        33
57.390         7
57.400        47
57.410        33
57.420        47
57.430        27
57.440        13
57.450        20
57.460        27
57.470         0
57.480        27
57.490        33
57.500        27
57.510        20
57.520        33
57.530        40
57.540        33
57.550        13
57.560        13
57.570         7
57.580        27
57.590        40
57.600        33
57.610        33
57.620         0
57.630        40
57.640        20
57.650        13
57.660        13
57.670        13
57.680        13
57.690        47
57.700        40
57.710        33
57.720        13
57.730        20
57.740         0
57.750         7
57.760        33
57.770        40
57.780         7
57.790        47
57.800        13
57.810        20
57.820        27
57.830        13
57.840        20
57.850        13
57.860        27
57.870        13
57.880        40
57.890        40
57.900         0
57.910        13
57.920        13
57.930        20
57.940        13
57.950        13
57.960        33
57.970        27
57.980        20
57.990         7
58.000        27
58.010        13
58.020        13
58.030         0
58.040        20
58.050        13
58.060        27
58.070        20
58.080         7
58.090        33
58.100        27
58.110        20
58.120        33
58.130        20
58.140        27
58.150        33
58.160        40
58.170        27
58.180         7
58.190         7
58.200        40
58.210        13
58.220        27
58.230        13
58.240        33
58.250        27
58.260        20
58.270        33
58.280        20
58.290        20
58.300        40
58.310        27
58.320        13
58.330        13
58.340        13
58.350        13
58.360        20
58.370        13
58.380        27
58.390        20
58.400        20
58.410         7
58.420         7
58.430         0
58.440        20
58.450        27
58.460        20
58.470         7
58.480         7
58.490        20
58.500        20
58.510         7
58.520        33
58.530        20
58.540        20
58.550        33
58.560        20
58.570        20
58.580        27
58.590        27
58.600         0
58.610         7
58.620         7
58.630        33
58.640        27
58.650         7
58.660        13
58.670         7
58.680        13
58.690         0
58.700         7
58.710        33
58.720         7
58.730        20
58.740        20
58.750         7
58.760        13
58.770        13
58.780        20
58.790        13
58.800        27
58.810        13
58.820        20
58.830        40
58.840         0
58.850        13
58.860        33
58.870        13
58.880        33
58.890        20
58.900        13
58.910        20
58.920        20
58.930         0
58.940         7
58.950        20
58.960         7
58.970         0
58.980        20
58.990        20
59.000        20
59.010        27
59.020         7
59.030         7
59.040         7
59.050        27
59.060        27
59.070         7
59.080         0
59.090        13
59.100         0
59.110        13
59.120        33
59.130        13
59.140        33
59.150        40
59.160         0
59.170         7
59.180        20
59.190        47
59.200         7
59.210         7
59.220        20
59.230        40
59.240        13
59.250        20
59.260        27
59.270        20
59.280        33
59.290         0
59.300         7
59.310        20
59.320        20
59.330         7
59.340         7
59.350        27
59.360         7
59.370         7
59.380        33
59.390         7
59.400        53
59.410         7
59.420        27
59.430        13
59.440         7
59.450         7
59.460        20
59.470         7
59.480        40
59.490        13
59.500         7
59.510        13
59.520         7
59.530         7
59.540        27
59.550        40
59.560         7
59.570        33
59.580        13
59.590        13
59.600         0
59.610         7
59.620         0
59.630        13
59.640        20
59.650        20
59.660         0
59.670         7
59.680        13
59.690         7
59.700        13
59.710        13
59.720         7
59.730        13
59.740        20
59.750         7
59.760         0
59.770        20
59.780         0
59.790        33
59.800        27
59.810        20
59.820        13
59.830         7
59.840         7
59.850         7
59.860        47
59.870        27
59.880         0
59.890        40
59.900        13
59.910        20
59.920        13
59.930        13
59.940        27
59.950        33
59.960        27
59.970         7
59.980        20
59.990         7
60.000         7
