20.000        60
20.010        67
20.020        20
20.030        20
20.040        33
20.050        47
20.060        27
20.070        40
20.080        87
20.090        27
20.100        60
20.110        27
20.120        13
20.130        33
20.140        67
20.150        60
20.160        60
20.170        67
20.180        27
20.190        60
20.200        33
20.210        20
20.220        33
20.230        33
20.240        73
20.250        33
20.260        53
20.270        27
20.280        47
20.290        53
20.300        47
20.310        47
20.320        40
20.330        40
20.340        67
20.350        33
20.360        53
20.370        33
20.380        47
20.390        27
20.400        40
20.410        27
20.420        27
20.430        73
20.440        27
20.450        33
20.460        20
20.470        40
20.480        47
20.490        53
20.500        40
20.510        47
20.520        73
20.530        27
20.540        40
20.550        47
20.560        53
20.570        53
20.580        40
20.590        40
20.600        33
20.610        27
20.620        33
20.630        40
20.640        40
20.650        60
20.660        47
20.670        60
20.680        27
20.690        47
20.700        40
20.710        33
20.720        67
20.730        13
20.740        33
20.750        33
20.760        13
20.770        47
20.780        27
20.790        20
20.800        60
20.810        20
20.820        27
20.830        47
20.840        53
20.850        33
20.860        47
20.870        40
20.880        53
20.890        87
20.900        60
20.910        27
20.920        40
20.930        27
20.940        73
20.950        33
20.960        67
20.970        33
20.980         0
20.990        47
21.000        33
21.010        60
21.020        27
21.030        73
21.040        40
21.050        27
21.060        40
21.070        40
21.080        20
21.090        33
21.100        20
21.110        33
21.120        20
21.130        33
21.140        60
21.150        27
21.160        33
21.170        27
21.180        40
21.190        20
21.200        53
21.210        20
21.220        53
21.230        60
21.240        47
21.250        27
21.260        40
21.270        47
21.280        27
21.290        40
21.300        47
21.310        53
21.320        60
21.330        53
21.340        53
21.350        27
21.360        73
21.370        67
21.380        67
21.390        27
21.400        60
21.410        47
21.420        47
21.430        47
21.440        47
21.450        33
21.460        33
21.470        27
21.480        20
21.490        47
21.500        33
21.510        27
21.520        33
21.530        33
21.540        40
21.550        60
21.560        33
21.570        33
21.580        67
21.590        40
21.600        60
21.610        27
21.620        20
21.630        47
21.640        13
21.650        27
21.660        40
21.670        40
21.680        47
21.690        60
21.700         7
21.710        13
21.720        40
21.730        47
21.740        60
21.750        67
21.760        40
21.770        27
21.780        33
21.790        80
21.800        33
21.810        40
21.820        47
21.830        13
21.840        20
21.850        27
21.860        53
21.870        53
21.880        27
21.890        27
21.900        13
21.910        27
21.920        60
21.930        40
21.940        27
21.950        40
21.960        27
21.970        27
21.980        80
21.990        67
22.000        47
22.010        33
22.020        47
22.030        93
22.040        47
22.050        40
22.060        60
22.070        27
22.080        47
22.090        47
22.100        33
22.110        47
22.120        20
22.130        27
22.140        73
22.150        13
22.160        27
22.170        40
22.180        53
22.190        33
22.200        27
22.210        40
22.220        60
22.230        27
22.240        27
22.250        47
22.260        67
22.270        33
22.280        33
22.290        33
22.300        53
22.310        60
22.320        47
22.330        67
22.340        53
22.350        53
22.360        20
22.370        80
22.380        33
22.390        53
22.400        33
22.410        60
22.420        80
22.430        47
22.440        93
22.450        73
22.460       113
22.470        53
22.480        53
22.490        87
22.500        67
22.510        60
22.520       160
22.530       120
22.540        80
22.550       180
22.560       140
22.570       153
22.580       113
22.590       147
22.600       160
22.610       147
22.620       133
22.630       153
22.640       240
22.650       280
22.660       320
22.670       253
22.680       240
22.690       313
22.700       247
22.710       300
22.720       313
22.730       347
22.740       333
22.750       287
22.760       300
22.770       327
22.780       293
22.790       227
22.800       287
22.810       267
22.820       293
22.830       320
22.840       167
22.850       207
22.860       173
22.870       167
22.880       140
22.890       133
22.900       180
22.910       120
22.920       107
22.930        93
22.940       100
22.950       127
22.960        87
22.970        60
22.980        60
22.990       127
23.000       153
23.010        80
23.020        53
23.030        80
23.040        67
23.050        87
23.060        33
23.070        60
23.080        33
23.090        53
23.100        80
23.110        73
23.120        93
23.130       107
23.140        33
23.150        53
23.160        47
23.170        53
23.180        73
23.190        40
23.200        40
23.210        67
23.220        87
23.230        60
23.240        87
23.250        53
23.260        53
23.270        20
23.280        47
23.290        33
23.300        73
23.310        47
23.320        13
23.330        27
23.340        60
23.350        40
23.360        40
23.370        27
23.380        73
23.390        47
23.400        47
23.410        40
23.420        33
23.430        40
23.440        53
23.450        53
23.460        33
23.470        40
23.480        47
23.490        27
23.500        53
23.510        47
23.520        53
23.530        27
23.540        13
23.550        67
23.560        33
23.570        67
23.580        67
23.590        33
23.600        40
23.610        40
23.620        27
23.630        60
23.640        60
23.650         7
23.660        80
23.670        67
23.680        13
23.690        53
23.700        47
23.710        47
23.720        47
23.730        73
23.740        20
23.750        80
23.760        60
23.770        67
23.780        27
23.790        33
23.800        33
23.810        20
23.820        53
23.830        40
23.840        60
23.850        13
23.860        20
23.870        27
23.880        40
23.890        53
23.900        33
23.910        33
23.920        33
23.930        27
23.940         0
23.950        27
23.960        33
23.970        20
23.980        47
23.990        40
24.000        40
24.010        47
24.020        33
24.030        73
24.040         7
24.050        40
24.060        33
24.070        27
24.080        53
24.090        33
24.100        27
24.110        47
24.120        27
24.130        53
24.140        33
24.150        60
24.160        53
24.170        20
24.180        40
24.190        33
24.200        47
24.210        67
24.220        13
24.230        33
24.240        47
24.250        33
24.260        27
24.270        53
24.280        33
24.290        33
24.300        40
24.310        20
24.320        73
24.330        27
24.340        20
24.350        33
24.360        27
24.370        47
24.380        53
24.390        27
24.400        20
24.410        33
24.420        20
24.430        47
24.440        47
24.450        80
24.460        40
24.470         7
24.480        53
24.490        47
24.500        67
24.510        40
24.520        40
24.530        47
24.540        60
24.550        47
24.560        33
24.570        27
24.580        27
24.590        47
24.600        53
24.610        33
24.620        13
24.630        47
24.640        53
24.650        33
24.660        27
24.670        40
24.680        47
24.690        33
24.700        13
24.710        60
24.720        60
24.730        13
24.740        40
24.750        47
24.760        60
24.770         7
24.780        20
24.790        67
24.800        27
24.810        40
24.820        40
24.830        47
24.840        47
24.850        53
24.860        27
24.870        40
24.880        47
24.890        27
24.900        53
24.910        60
24.920        47
24.930        27
24.940        40
24.950        33
24.960        33
24.970        40
24.980        33
24.990        33
25.000        27
25.010        53
25.020        47
25.030        73
25.040        13
25.050        53
25.060        27
25.070        33
25.080        40
25.090        53
25.100        53
25.110        47
25.120        27
25.130        33
25.140        87
25.150        33
25.160        40
25.170        53
25.180        33
25.190        67
25.200        27
25.210        53
25.220        47
25.230        47
25.240         7
25.250        47
25.260        40
25.270        40
25.280        40
25.290        47
25.300        53
25.310        27
25.320        60
25.330        27
25.340        40
25.350        33
25.360        13
25.370        47
25.380        60
25.390        73
25.400        40
25.410        20
25.420        40
25.430        20
25.440        27
25.450        53
25.460        53
25.470        47
25.480        27
25.490        73
25.500        47
25.510        73
25.520        20
25.530        67
25.540        93
25.550       113
25.560       100
25.570       113
25.580       207
25.590       233
25.600       193
25.610       273
25.620       227
25.630       213
25.640       240
25.650       220
25.660       180
25.670       100
25.680       113
25.690       160
25.700        87
25.710       100
25.720        73
25.730        40
25.740         7
25.750        33
25.760        40
25.770        27
25.780        33
25.790        20
25.800        27
25.810        53
25.820        27
25.830        20
25.840        20
25.850        40
25.860        47
25.870        60
25.880        27
25.890        47
25.900        53
25.910        53
25.920        60
25.930        27
25.940        40
25.950        53
25.960        47
25.970        27
25.980        27
25.990        33
26.000        53
26.010        20
26.020        40
26.030        53
26.040        40
26.050        33
26.060        47
26.070        27
26.080        27
26.090        27
26.100        27
26.110        27
26.120        13
26.130        53
26.140        40
26.150        27
26.160        60
26.170        40
26.180        20
26.190        33
26.200        27
26.210        40
26.220        13
26.230        53
26.240        47
26.250        40
26.260        27
26.270        27
26.280        20
26.290        33
26.300        47
26.310        40
26.320         0
26.330        53
26.340        40
26.350        27
26.360        33
26.370        53
26.380        20
26.390        33
26.400        40
26.410        20
26.420        40
26.430        73
26.440        13
26.450        47
26.460        40
26.470        33
26.480        27
26.490        40
26.500         7
26.510        73
26.520        20
26.530        33
26.540        27
26.550        53
26.560        27
26.570        33
26.580        53
26.590        67
26.600        20
26.610        20
26.620        33
26.630        33
26.640        33
26.650        27
26.660        73
26.670        40
26.680        33
26.690        33
26.700        13
26.710        40
26.720        40
26.730        47
26.740        60
26.750        67
26.760        40
26.770        40
26.780        53
26.790        27
26.800        40
26.810        53
26.820        60
26.830        33
26.840        20
26.850        40
26.860        27
26.870         7
26.880        27
26.890        13
26.900        33
26.910        60
26.920        67
26.930        20
26.940        60
26.950        27
26.960        47
26.970        53
26.980        33
26.990        20
27.000        20
27.010       160
27.020        33
27.030        33
27.040        13
27.050        33
27.060        47
27.070        27
27.080        60
27.090        73
27.100        47
27.110        47
27.120        20
27.130        13
27.140        33
27.150        13
27.160        33
27.170        40
27.180        27
27.190        33
27.200        40
27.210        20
27.220        53
27.230        20
27.240        47
27.250        27
27.260        40
27.270        20
27.280        20
27.290        67
27.300        27
27.310        13
27.320        20
27.330        20
27.340        20
27.350        27
27.360        20
27.370        27
27.380        33
27.390        47
27.400        33
27.410        13
27.420        20
27.430        13
27.440        60
27.450        53
27.460         7
27.470        60
27.480        53
27.490        27
27.500        33
27.510        20
27.520        47
27.530        20
27.540        40
27.550        20
27.560        40
27.570        13
27.580        33
27.590        27
27.600        33
27.610        33
27.620        20
27.630        33
27.640        27
27.650         7
27.660        47
27.670        33
27.680        53
27.690        73
27.700        33
27.710        40
27.720        53
27.730        33
27.740        27
27.750        40
27.760        40
27.770        53
27.780        33
27.790        13
27.800        40
27.810        60
27.820        40
27.830        27
27.840        53
27.850        27
27.860        40
27.870         7
27.880        47
27.890        27
27.900        13
27.910        40
27.920        20
27.930        27
27.940        33
27.950        47
27.960        40
27.970        27
27.980        47
27.990        33
28.000        40
28.010        13
28.020        67
28.030        20
28.040        67
28.050        53
28.060        33
28.070        47
28.080        20
28.090        53
28.100         7
28.110        47
28.120        27
28.130        73
28.140        33
28.150        27
28.160        47
28.170        53
28.180        20
28.190        20
28.200        33
28.210        33
28.220        27
28.230         7
28.240        40
28.250        27
28.260        20
28.270        33
28.280        27
28.290        40
28.300        20
28.310        47
28.320        33
28.330        47
28.340         7
28.350        40
28.360        20
28.370        40
28.380        53
28.390        13
28.400        20
28.410        20
28.420        40
28.430        33
28.440        20
28.450        53
28.460        53
28.470        13
28.480        13
28.490        13
28.500        73
28.510        47
28.520         7
28.530        40
28.540        40
28.550        20
28.560        33
28.570        20
28.580        53
28.590        20
28.600        27
28.610        40
28.620        40
28.630        27
28.640        47
28.650        27
28.660        13
28.670        40
28.680        60
28.690        27
28.700        47
28.710        33
28.720        40
28.730         7
28.740        20
28.750        47
28.760        13
28.770        53
28.780        47
28.790        60
28.800        33
28.810        47
28.820        40
28.830        27
28.840         7
28.850        40
28.860        13
28.870        27
28.880        33
28.890        33
28.900        40
28.910        60
28.920        27
28.930        33
28.940        40
28.950        33
28.960        33
28.970        20
28.980        40
28.990        40
29.000        13
29.010        20
29.020        40
29.030        53
29.040        47
29.050        33
29.060        13
29.070        53
29.080        20
29.090        33
29.100        47
29.110         7
29.120        40
29.130        27
29.140        53
29.150        33
29.160        53
29.170        20
29.180        33
29.190        40
29.200        73
29.210        60
29.220        73
29.230        20
29.240        33
29.250        60
29.260        27
29.270        40
29.280        40
29.290        33
29.300        60
29.310        40
29.320        53
29.330        27
29.340        40
29.350        40
29.360        47
29.370        20
29.380        27
29.390        20
29.400        33
29.410        20
29.420        33
29.430        13
29.440        20
29.450        20
29.460        27
29.470        20
29.480        13
29.490        27
29.500        40
29.510         7
29.520        40
29.530        53
29.540        40
29.550        40
29.560        27
29.570        13
29.580        47
29.590        27
29.600        27
29.610        13
29.620         7
29.630        53
29.640        20
29.650        47
29.660        60
29.670        53
29.680        47
29.690        40
29.700        20
29.710         0
29.720        27
29.730        40
29.740        60
29.750        33
29.760        53
29.770        40
29.780        27
29.790        20
29.800        47
29.810        27
29.820        27
29.830        47
29.840         7
29.850        20
29.860        13
29.870        27
29.880        20
29.890        33
29.900         7
29.910        27
29.920        27
29.930        20
29.940        13
29.950         7
29.960        47
29.970        27
29.980        47
29.990        13
30.000        40
30.010         0
30.020        13
30.030        13
30.040        40
30.050        27
30.060        20
30.070        40
30.080        33
30.090        33
30.100         0
30.110        33
30.120        20
30.130        20
30.140        20
30.150        47
30.160        53
30.170        33
30.180        47
30.190        33
30.200        40
30.210        27
30.220        20
30.230         0
30.240         0
30.250        20
30.260        47
30.270        20
30.280        13
30.290        33
30.300        33
30.310        27
30.320        20
30.330        40
30.340        20
30.350        13
30.360        13
30.370         7
30.380        13
30.390        27
30.400        27
30.410        13
30.420        60
30.430        13
30.440        13
30.450        27
30.460        20
30.470        20
30.480         7
30.490         7
30.500        33
30.510        27
30.520        33
30.530        27
30.540        33
30.550        27
30.560        33
30.570        13
30.580        47
30.590        20
30.600        27
30.610        60
30.620        27
30.630        33
30.640        47
30.650        27
30.660        33
30.670        27
30.680        27
30.690        33
30.700        13
30.710        73
30.720        20
30.730        27
30.740        20
30.750        13
30.760        20
30.770        47
30.780        27
30.790        20
30.800        40
30.810        27
30.820        13
30.830        33
30.840        33
30.850        20
30.860        33
30.870        20
30.880        27
30.890        20
30.900        20
30.910        27
30.920        60
30.930        20
30.940         7
30.950        33
30.960        33
30.970        27
30.980        20
30.990        53
31.000         7
31.010        40
31.020        33
31.030        13
31.040         0
31.050        33
31.060        20
31.070        27
31.080        33
31.090        20
31.100        27
31.110        13
31.120         0
31.130        40
31.140        33
31.150        13
31.160        20
31.170        33
31.180        33
31.190         0
31.200        13
31.210        27
31.220        27
31.230         0
31.240        20
31.250        20
31.260        20
31.270        20
31.280        27
31.290        27
31.300        20
31.310        33
31.320        13
31.330         7
31.340        27
31.350        13
31.360        40
31.370         7
31.380        27
31.390         7
31.400        27
31.410        20
31.420        27
31.430        33
31.440        27
31.450        33
31.460        20
31.470        13
31.480        67
31.490        27
31.500        33
31.510        40
31.520        47
31.530        47
31.540        27
31.550        27
31.560        20
31.570        33
31.580        20
31.590        47
31.600        27
31.610        33
31.620        20
31.630        20
31.640        40
31.650        33
31.660        20
31.670        13
31.680        13
31.690        40
31.700        27
31.710        20
31.720        27
31.730        27
31.740        47
31.750        13
31.760        27
31.770        20
31.780        20
31.790        40
31.800        47
31.810        27
31.820        33
31.830        40
31.840        13
31.850        33
31.860        27
31.870        67
31.880        33
31.890        20
31.900        20
31.910        47
31.920        20
31.930        20
31.940        80
31.950        40
31.960        13
31.970        53
31.980        27
31.990        47
32.000        20
32.010        47
32.020        47
32.030        67
32.040        53
32.050        73
32.060        60
32.070        60
32.080        60
32.090        47
32.100        40
32.110        73
32.120        47
32.130       100
32.140        60
32.150        87
32.160        73
32.170       107
32.180        93
32.190        60
32.200       120
32.210       140
32.220       147
32.230       153
32.240       193
32.250       193
32.260       207
32.270       207
32.280       227
32.290       187
32.300       187
32.310       253
32.320       313
32.330       320
32.340       340
32.350       333
32.360       307
32.370       373
32.380       327
32.390       353
32.400       433
32.410       387
32.420       340
32.430       367
32.440       400
32.450       400
32.460       433
32.470       293
32.480       293
32.490       453
32.500       247
32.510       353
32.520       327
32.530       180
32.540       200
32.550       287
32.560       193
32.570       173
32.580       207
32.590       133
32.600       160
32.610       147
32.620       180
32.630        93
32.640        60
32.650       107
32.660        60
32.670       107
32.680       120
32.690        67
32.700        73
32.710        53
32.720        67
32.730        60
32.740        53
32.750        27
32.760        40
32.770       100
32.780        40
32.790        40
32.800        67
32.810        60
32.820        20
32.830        33
32.840        33
32.850        20
32.860        47
32.870        33
32.880        73
32.890        40
32.900        60
32.910        53
32.920        47
32.930        33
32.940        53
32.950        47
32.960        67
32.970         7
32.980        40
32.990        53
33.000        27
33.010        40
33.020        27
33.030         7
33.040        53
33.050        33
33.060        60
33.070        20
33.080        33
33.090        40
33.100        53
33.110        20
33.120        20
33.130        20
33.140         7
33.150        27
33.160        20
33.170        47
33.180        67
33.190        47
33.200        13
33.210        33
33.220        20
33.230        33
33.240        47
33.250        27
33.260        40
33.270        47
33.280        27
33.290        20
33.300         7
33.310        13
33.320        27
33.330        33
33.340        27
33.350        47
33.360        20
33.370        53
33.380        13
33.390        47
33.400        33
33.410        27
33.420        20
33.430        53
33.440        20
33.450        40
33.460        27
33.470        13
33.480        60
33.490        27
33.500        27
33.510        27
33.520        20
33.530        40
33.540        67
33.550        13
33.560        27
33.570        13
33.580        13
33.590        13
33.600        33
33.610         7
33.620        33
33.630        20
33.640        33
33.650        20
33.660        20
33.670        27
33.680        53
33.690        27
33.700        13
33.710        33
33.720        27
33.730        13
33.740        20
33.750        33
33.760        20
33.770        20
33.780        27
33.790        13
33.800        27
33.810        27
33.820        20
33.830        33
33.840         7
33.850        33
33.860        13
33.870        13
33.880        27
33.890        33
33.900        47
33.910        27
33.920        33
33.930        33
33.940        13
33.950        13
33.960        20
33.970        13
33.980        33
33.990        33
34.000         7
34.010        13
34.020        13
34.030        20
34.040         7
34.050        13
34.060        27
34.070        13
34.080        13
34.090        20
34.100        13
34.110        13
34.120        13
34.130        13
34.140        20
34.150        20
34.160         7
34.170        33
34.180        40
34.190         0
34.200        27
34.210        33
34.220        27
34.230        53
34.240        20
34.250        33
34.260        13
34.270        13
34.280        27
34.290        47
34.300        33
34.310        40
34.320        20
34.330        20
34.340        20
34.350        27
34.360        27
34.370        27
34.380        27
34.390        20
34.400         7
34.410        27
34.420        33
34.430        20
34.440         7
34.450        40
34.460        33
34.470        27
34.480        13
34.490        27
34.500        40
34.510        13
34.520        40
34.530        13
34.540        20
34.550        13
34.560        13
34.570         7
34.580        33
34.590        13
34.600        13
34.610         7
34.620        40
34.630        20
34.640        20
34.650         7
34.660         7
34.670        20
34.680        27
34.690        13
34.700         0
34.710        27
34.720        27
34.730        20
34.740        33
34.750        27
34.760        13
34.770        13
34.780        20
34.790        27
34.800        27
34.810        27
34.820        20
34.830        67
34.840        33
34.850        27
34.860        27
34.870        20
34.880        20
34.890        33
34.900        27
34.910        33
34.920        20
34.930        27
34.940        13
34.950        27
34.960        40
34.970        27
34.980        13
34.990         0
35.000        13
35.010        20
35.020        20
35.030        13
35.040        33
35.050        20
35.060        20
35.070        40
35.080        33
35.090        13
35.100         0
35.110        27
35.120        13
35.130        13
35.140        40
35.150        47
35.160        27
35.170         0
35.180        27
35.190         7
35.200        20
35.210        33
35.220        20
35.230        13
35.240        33
35.250        27
35.260        13
35.270        20
35.280         0
35.290        13
35.300        33
35.310        33
35.320        13
35.330        20
35.340        20
35.350         7
35.360        27
35.370        20
35.380        20
35.390        27
35.400        33
35.410        20
35.420        40
35.430        13
35.440        13
35.450        27
35.460        20
35.470        13
35.480        53
35.490         7
35.500        13
35.510        27
35.520        20
35.530        40
35.540        27
35.550        33
35.560         7
35.570        47
35.580         0
35.590         7
35.600         7
35.610        33
35.620        20
35.630        13
35.640        13
35.650        20
35.660         0
35.670        20
35.680        20
35.690        20
35.700        27
35.710         7
35.720        47
35.730        27
35.740        20
35.750        13
35.760        13
35.770        13
35.780        60
35.790        13
35.800        20
35.810        20
35.820        20
35.830        13
35.840        27
35.850        47
35.860        13
35.870        40
35.880        53
35.890        13
35.900        27
35.910        33
35.920        13
35.930        40
35.940        20
35.950         0
35.960         7
35.970        20
35.980        13
35.990         7
36.000        53
36.010         7
36.020        20
36.030         7
36.040         0
36.050        20
36.060        27
36.070        20
36.080        40
36.090        20
36.100        13
36.110         7
36.120        27
36.130        33
36.140        13
36.150        47
36.160        33
36.170        13
36.180        13
36.190        20
36.200        13
36.210        27
36.220        27
36.230        27
36.240        27
36.250        20
36.260        27
36.270         7
36.280        13
36.290        53
36.300        33
36.310         7
36.320        13
36.330        27
36.340        27
36.350        40
36.360        33
36.370        13
36.380        20
36.390        13
36.400        27
36.410        20
36.420        27
36.430        40
36.440        20
36.450        13
36.460        13
36.470        33
36.480         0
36.490         7
36.500        13
36.510         7
36.520        40
36.530        13
36.540        40
36.550         7
36.560        27
36.570        13
36.580        20
36.590        13
36.600        20
36.610         7
36.620        20
36.630        27
36.640        27
36.650        20
36.660        33
36.670        13
36.680        13
36.690        27
36.700        27
36.710        40
36.720        20
36.730        13
36.740         7
36.750        20
36.760        20
36.770         0
36.780        20
36.790         7
36.800        27
36.810        27
36.820        27
36.830        27
36.840         7
36.850        20
36.860         0
36.870        27
36.880        67
36.890        20
36.900        40
36.910         7
36.920        20
36.930        13
36.940        27
36.950        20
36.960        40
36.970         0
36.980         7
36.990        60
37.000        40
37.010        13
37.020        27
37.030        20
37.040        27
37.050        13
37.060        27
37.070         7
37.080        40
37.090        20
37.100        20
37.110        27
37.120        40
37.130        20
37.140        20
37.150         7
37.160        47
37.170        13
37.180        20
37.190        53
37.200        27
37.210         0
37.220        20
37.230        20
37.240        20
37.250        20
37.260        13
37.270        40
37.280        27
37.290        20
37.300        40
37.310        47
37.320         0
37.330        13
37.340        60
37.350        27
37.360        33
37.370        20
37.380        33
37.390         7
37.400        33
37.410        20
37.420        27
37.430        13
37.440         7
37.450        20
37.460        13
37.470         0
37.480        27
37.490        20
37.500        33
37.510        13
37.520        20
37.530        20
37.540        27
37.550         7
37.560        33
37.570        20
37.580        27
37.590        27
37.600        40
37.610        40
37.620        40
37.630        20
37.640        13
37.650         0
37.660         0
37.670        20
37.680        13
37.690        27
37.700        20
37.710        13
37.720        33
37.730        20
37.740         7
37.750        13
37.760        13
37.770        20
37.780        20
37.790        27
37.800         7
37.810         7
37.820        27
37.830        27
37.840        33
37.850        13
37.860        27
37.870        20
37.880        40
37.890        27
37.900        20
37.910        13
37.920        13
37.930        47
37.940         7
37.950        13
37.960        13
37.970         7
37.980        33
37.990        27
38.000        27
38.010        13
38.020        27
38.030        20
38.040         0
38.050        20
38.060        47
38.070        27
38.080        20
38.090        13
38.100         7
38.110        13
38.120        13
38.130         7
38.140        20
38.150        20
38.160         7
38.170        13
38.180        40
38.190        13
38.200        33
38.210        20
38.220         7
38.230        13
38.240         0
38.250        27
38.260        33
38.270        13
38.280        27
38.290         7
38.300        47
38.310         7
38.320        40
38.330        13
38.340        33
38.350        20
38.360        33
38.370        20
38.380        20
38.390         7
38.400        20
38.410        27
38.420        20
38.430         7
38.440        13
38.450        27
38.460        40
38.470         0
38.480        33
38.490        20
38.500        27
38.510         7
38.520        20
38.530        20
38.540        13
38.550        13
38.560        13
38.570        13
38.580        27
38.590        20
38.600        27
38.610        27
38.620        13
38.630        27
38.640        33
38.650        27
38.660        13
38.670        13
38.680        27
38.690        13
38.700        20
38.710        13
38.720         7
38.730         7
38.740        33
38.750        13
38.760        27
38.770        13
38.780         7
38.790         0
38.800         7
38.810        27
38.820        20
38.830        33
38.840        27
38.850        13
38.860         7
38.870         0
38.880        20
38.890        13
38.900        27
38.910        33
38.920        20
38.930        20
38.940        20
38.950        20
38.960        13
38.970        13
38.980        33
38.990        20
39.000        27
39.010        40
39.020        20
39.030        27
39.040        13
39.050        20
39.060        20
39.070        20
39.080        40
39.090        67
39.100        20
39.110        20
39.120        13
39.130        20
39.140        20
39.150        13
39.160         0
39.170        27
39.180        27
39.190         7
39.200        13
39.210        33
39.220        27
39.230        13
39.240        33
39.250        27
39.260        40
39.270        13
39.280        27
39.290        13
39.300        47
39.310        20
39.320         7
39.330        20
39.340        20
39.350        20
39.360        13
39.370         7
39.380        33
39.390        20
39.400         7
39.410        13
39.420        20
39.430        13
39.440        27
39.450        60
39.460        27
39.470        20
39.480        13
39.490         7
39.500        20
39.510        13
39.520         0
39.530        20
39.540        27
39.550        47
39.560        20
39.570        47
39.580        20
39.590        20
39.600        67
39.610        20
39.620         0
39.630        13
39.640        13
39.650        13
39.660        13
39.670        20
39.680         0
39.690         7
39.700        20
39.710         7
39.720        40
39.730        27
39.740        40
39.750        20
39.760         7
39.770        20
39.780         7
39.790        33
39.800        33
39.810        27
39.820        27
39.830        13
39.840        20
39.850        27
39.860        33
39.870        27
39.880        27
39.890        27
39.900        20
39.910        33
39.920        47
39.930        40
39.940        27
39.950        53
39.960         0
39.970        40
39.980        13
39.990        33
40.000        20
40.010        47
40.020        33
40.030        20
40.040        27
40.050        47
40.060        20
40.070        13
40.080        27
40.090        27
40.100        20
40.110        40
40.120        20
40.130        20
40.140         7
40.150        27
40.160        13
40.170        20
40.180        20
40.190        13
40.200        53
40.210        13
40.220        33
40.230        27
40.240        20
40.250        13
40.260        13
40.270         7
40.280        20
40.290        13
40.300        20
40.310        33
40.320        33
40.330        13
40.340        20
40.350        47
40.360        47
40.370        13
40.380        13
40.390        13
40.400        27
40.410         7
40.420        20
40.430        53
40.440        13
40.450        20
40.460        27
40.470        20
40.480        33
40.490        27
40.500        33
40.510        20
40.520        20
40.530        20
40.540        13
40.550         0
40.560        13
40.570         7
40.580        20
40.590        13
40.600        13
40.610        13
40.620        27
40.630        40
40.640        27
40.650        27
40.660        53
40.670        27
40.680        20
40.690        33
40.700        13
40.710        20
40.720        20
40.730        40
40.740        27
40.750        27
40.760        20
40.770        13
40.780        27
40.790         7
40.800        13
40.810         7
40.820        13
40.830        20
40.840         7
40.850        20
40.860        47
40.870        40
40.880        27
40.890        20
40.900        13
40.910         7
40.920        47
40.930        20
40.940        47
40.950        27
40.960        40
40.970        13
40.980        20
40.990        13
41.000        13
41.010        27
41.020        27
41.030        27
41.040        20
41.050        27
41.060        33
41.070        27
41.080        53
41.090        13
41.100        33
41.110        27
41.120        33
41.130        27
41.140        40
41.150        27
41.160        13
41.170        33
41.180        20
41.190        27
41.200        13
41.210        27
41.220        27
41.230         7
41.240        33
41.250        20
41.260        20
41.270        33
41.280        40
41.290        13
41.300        13
41.310        13
41.320        40
41.330        27
41.340        13
41.350        27
41.360         7
41.370        27
41.380        20
41.390        20
41.400        40
41.410        13
41.420        33
41.430        27
41.440        27
41.450        40
41.460        47
41.470         7
41.480        27
41.490        47
41.500        27
41.510        20
41.520         7
41.530        60
41.540        53
41.550        20
41.560        33
41.570        60
41.580        47
41.590        47
41.600        27
41.610        33
41.620        53
41.630        40
41.640        60
41.650        33
41.660        60
41.670        13
41.680        20
41.690        33
41.700        33
41.710        33
41.720        13
41.730        40
41.740        53
41.750        47
41.760        27
41.770        53
41.780        67
41.790        33
41.800        40
41.810        27
41.820        40
41.830        40
41.840         7
41.850        40
41.860        27
41.870        80
41.880        40
41.890        40
41.900        33
41.910        47
41.920        20
41.930        33
41.940         7
41.950         0
41.960        20
41.970        20
41.980        13
41.990        60
42.000        20
42.010        27
42.020        27
42.030        33
42.040        13
42.050        13
42.060        40
42.070        13
42.080         7
42.090         7
42.100        20
42.110         7
42.120        13
42.130        80
42.140         7
42.150        33
42.160        20
42.170        13
42.180        20
42.190        13
42.200        13
42.210        40
42.220        20
42.230        33
42.240        33
42.250        33
42.260         7
42.270        20
42.280        27
42.290        13
42.300        33
42.310         7
42.320        33
42.330        20
42.340        20
42.350        20
42.360        27
42.370        13
42.380        13
42.390        33
42.400        27
42.410        40
42.420        27
42.430         7
42.440        20
42.450        13
42.460        13
42.470        20
42.480         7
42.490        27
42.500        47
42.510        13
42.520        13
42.530        40
42.540         7
42.550        33
42.560        33
42.570         7
42.580        13
42.590        27
42.600        20
42.610        33
42.620        27
42.630        13
42.640        33
42.650        13
42.660        33
42.670        40
42.680        20
42.690        33
42.700        47
42.710        53
42.720        20
42.730        33
42.740         0
42.750        33
42.760        13
42.770        13
42.780        20
42.790        33
42.800         7
42.810        33
42.820         7
42.830        27
42.840        33
42.850        33
42.860        13
42.870        27
42.880        20
42.890        33
42.900        53
42.910        20
42.920        27
42.930        13
42.940        20
42.950        13
42.960        40
42.970        20
42.980        47
42.990        27
43.000        27
43.010        13
43.020         7
43.030         7
43.040        13
43.050        33
43.060        53
43.070        20
43.080        27
43.090        33
43.100        20
43.110        20
43.120         7
43.130        27
43.140        13
43.150        40
43.160        20
43.170         7
43.180        20
43.190        33
43.200        13
43.210        20
43.220         7
43.230        20
43.240        20
43.250        13
43.260        20
43.270        27
43.280        20
43.290        20
43.300        20
43.310        33
43.320        20
43.330        33
43.340        20
43.350        47
43.360        13
43.370        13
43.380         0
43.390        27
43.400        13
43.410        20
43.420         7
43.430        53
43.440        33
43.450        40
43.460         7
43.470        20
43.480        53
43.490        27
43.500        53
43.510        80
43.520         7
43.530         0
43.540        20
43.550        33
43.560        20
43.570        27
43.580        20
43.590         7
43.600        13
43.610        20
43.620         7
43.630        20
43.640         7
43.650        20
43.660        27
43.670        27
43.680        33
43.690        20
43.700        20
43.710        20
43.720        27
43.730        13
43.740         0
43.750         7
43.760        13
43.770        33
43.780        20
43.790        33
43.800        20
43.810        13
43.820        20
43.830        27
43.840        20
43.850        40
43.860        20
43.870        13
43.880        13
43.890        27
43.900        13
43.910        33
43.920         7
43.930        20
43.940         7
43.950        27
43.960         7
43.970        20
43.980        33
43.990        20
44.000        27
44.010        40
44.020        27
44.030         7
44.040        40
44.050         7
44.060        20
44.070        13
44.080        27
44.090        33
44.100        47
44.110        33
44.120        13
44.130        20
44.140        13
44.150        40
44.160        20
44.170        13
44.180        27
44.190        33
44.200         7
44.210        13
44.220         0
44.230        87
44.240        20
44.250        13
44.260        40
44.270        40
44.280        47
44.290         7
44.300        27
44.310        27
44.320        20
44.330        53
44.340        40
44.350        13
44.360        33
44.370        33
44.380        27
44.390        20
44.400        27
44.410        33
44.420        53
44.430         7
44.440        40
44.450        33
44.460        20
44.470        27
44.480        27
44.490        27
44.500        33
44.510        27
44.520        33
44.530        20
44.540         7
44.550        27
44.560        60
44.570        53
44.580        53
44.590        20
44.600        27
44.610        60
44.620        60
44.630        60
44.640        33
44.650        33
44.660        47
44.670        13
44.680         7
44.690        47
44.700        40
44.710        53
44.720        40
44.730        67
44.740        53
44.750        40
44.760        60
44.770        47
44.780        60
44.790        33
44.800        13
44.810        40
44.820        47
44.830        67
44.840        27
44.850        33
44.860        47
44.870         0
44.880        40
44.890        53
44.900        33
44.910        33
44.920        33
44.930        27
44.940        47
44.950        73
44.960        73
44.970        53
44.980        27
44.990        33
45.000        67
45.010        40
45.020        67
45.030        40
45.040        60
45.050        53
45.060        40
45.070        40
45.080        60
45.090        27
45.100        40
45.110        80
45.120       100
45.130       107
45.140        67
45.150        67
45.160        47
45.170        67
45.180        60
45.190        73
45.200        47
45.210        80
45.220        60
45.230        67
45.240        53
45.250        60
45.260        87
45.270        33
45.280       107
45.290        80
45.300        80
45.310        73
45.320        60
45.330        60
45.340        73
45.350        47
45.360        53
45.370        67
45.380        53
45.390        73
45.400        80
45.410        93
45.420        87
45.430        73
45.440        73
45.450        67
45.460       140
45.470        73
45.480        87
45.490        80
45.500       100
45.510       120
45.520        73
45.530       100
45.540        87
45.550       127
45.560        73
45.570       127
45.580        67
45.590       133
45.600       113
45.610       160
45.620       127
45.630       120
45.640       107
45.650       180
45.660       173
45.670       133
45.680        87
45.690       173
45.700       160
45.710       173
45.720       153
45.730       153
45.740       153
45.750       193
45.760       167
45.770       140
45.780       280
45.790       187
45.800       147
45.810       220
45.820       240
45.830       227
45.840       307
45.850       207
45.860       233
45.870       207
45.880       267
45.890       380
45.900       240
45.910       280
45.920       267
45.930       380
45.940       446
45.950       347
45.960       387
45.970       533
45.980       486
45.990       473
46.000       393
46.010       606
46.020       453
46.030       613
46.040       653
46.050       546
46.060       733
46.070       680
46.080       740
46.090       853
46.100       960
46.110       973
46.120      1000
46.130      1086
46.140       980
46.150      1206
46.160      1153
46.170      1266
46.180      1319
46.190      1333
46.200      1546
46.210      1586
46.220      1439
46.230      1673
46.240      2059
46.250      1786
46.260      1859
46.270      1933
46.280      2266
46.290      1993
46.300      2346
46.310      2359
46.320      2632
46.330      2592
46.340      2779
46.350      2599
46.360      2532
46.370      2886
46.380      2666
46.390      2746
46.400      2592
46.410      2959
46.420      2799
46.430      2759
46.440      2912
46.450      2779
46.460      3052
46.470      2692
46.480      2532
46.490      2499
46.500      2612
46.510      2412
46.520      2272
46.530      2306
46.540      2366
46.550      2359
46.560      2186
46.570      2132
46.580      2132
46.590      2059
46.600      1833
46.610      1846
46.620      1686
46.630      1613
46.640      1433
46.650      1366
46.660      1259
46.670      1253
46.680      1133
46.690      1253
46.700      1173
46.710      1000
46.720      1206
46.730       880
46.740       913
46.750       673
46.760       786
46.770       666
46.780       740
46.790       653
46.800       640
46.810       560
46.820       513
46.830       593
46.840       506
46.850       546
46.860       460
46.870       380
46.880       347
46.890       380
46.900       367
46.910       413
46.920       433
46.930       320
46.940       413
46.950       300
46.960       367
46.970       340
46.980       360
46.990       360
47.000       320
47.010       313
47.020       260
47.030       300
47.040       233
47.050       207
47.060       200
47.070       200
47.080       207
47.090       207
47.100       233
47.110       160
47.120       140
47.130       233
47.140       160
47.150       193
47.160       193
47.170       207
47.180       180
47.190       113
47.200       153
47.210       133
47.220       120
47.230       100
47.240       107
47.250       140
47.260       113
47.270       140
47.280        93
47.290       127
47.300       133
47.310        93
47.320       173
47.330       120
47.340       153
47.350        47
47.360       107
47.370       160
47.380       147
47.390        67
47.400       160
47.410       133
47.420       120
47.430       193
47.440        73
47.450        87
47.460       100
47.470       147
47.480       100
47.490        80
47.500        93
47.510        27
47.520       107
47.530        60
47.540        73
47.550        73
47.560       100
47.570        93
47.580        73
47.590        73
47.600       113
47.610        87
47.620       160
47.630        80
47.640        87
47.650        60
47.660        73
47.670       100
47.680        53
47.690        40
47.700        73
47.710        73
47.720        53
47.730        53
47.740        93
47.750        33
47.760        80
47.770        93
47.780        73
47.790        67
47.800        67
47.810        47
47.820        80
47.830        73
47.840        73
47.850        67
47.860        67
47.870        60
47.880        33
47.890        53
47.900        60
47.910        60
47.920        47
47.930        73
47.940        73
47.950        47
47.960        53
47.970        87
47.980        87
47.990        33
48.000       100
48.010        60
48.020        73
48.030        27
48.040        13
48.050        33
48.060        40
48.070        53
48.080        47
48.090        87
48.100        67
48.110        67
48.120        27
48.130        60
48.140        27
48.150        47
48.160        53
48.170        60
48.180        67
48.190        47
48.200        13
48.210        80
48.220        60
48.230        80
48.240        60
48.250        40
48.260        40
48.270        60
48.280        40
48.290        53
48.300        60
48.310        27
48.320        53
48.330        60
48.340        47
48.350        47
48.360        47
48.370        60
48.380        40
48.390        60
48.400         7
48.410        33
48.420        33
48.430        67
48.440        53
48.450        27
48.460        40
48.470        33
48.480        53
48.490        60
48.500        27
48.510        53
48.520        47
48.530        27
48.540        40
48.550        53
48.560        33
48.570        33
48.580        27
48.590        40
48.600        53
48.610        53
48.620        33
48.630        27
48.640        27
48.650        20
48.660        27
48.670        40
48.680        53
48.690        60
48.700        40
48.710        33
48.720        20
48.730        40
48.740        47
48.750        47
48.760        20
48.770        13
48.780        33
48.790        60
48.800        27
48.810        40
48.820        13
48.830        53
48.840        33
48.850        60
48.860        20
48.870        67
48.880        33
48.890        13
48.900        40
48.910        27
48.920        20
48.930        20
48.940        40
48.950        47
48.960        40
48.970        60
48.980        20
48.990        67
49.000        53
49.010        40
49.020        27
49.030        20
49.040        20
49.050        20
49.060        33
49.070        13
49.080        27
49.090        27
49.100         7
49.110        67
49.120        53
49.130        13
49.140        73
49.150        47
49.160        33
49.170        20
49.180        33
49.190        27
49.200        47
49.210        33
49.220        40
49.230        67
49.240        40
49.250        33
49.260        40
49.270        40
49.280        20
49.290        53
49.300        27
49.310        60
49.320        27
49.330        40
49.340        13
49.350        33
49.360        40
49.370        47
49.380        40
49.390        33
49.400         7
49.410        47
49.420        53
49.430        33
49.440        20
49.450        27
49.460         7
49.470        47
49.480        40
49.490        33
49.500        33
49.510        33
49.520        13
49.530        60
49.540        27
49.550        53
49.560        27
49.570        13
49.580        33
49.590        33
49.600        20
49.610        47
49.620        67
49.630        13
49.640        13
49.650        33
49.660        47
49.670        20
49.680        27
49.690        27
49.700        60
49.710        20
49.720        60
49.730        67
49.740        27
49.750        13
49.760        47
49.770        27
49.780        20
49.790        20
49.800        33
49.810        27
49.820        33
49.830         0
49.840        27
49.850        33
49.860        20
49.870        40
49.880        20
49.890        27
49.900        20
49.910        40
49.920        33
49.930        33
49.940        13
49.950        27
49.960        40
49.970        53
49.980        33
49.990         7
50.000        20
50.010        40
50.020        27
50.030        67
50.040        33
50.050        20
50.060        40
50.070        33
50.080        27
50.090         7
50.100        47
50.110        53
50.120        20
50.130        27
50.140        27
50.150         7
50.160        13
50.170        33
50.180        20
50.190        20
50.200        13
50.210        47
50.220        47
50.230        47
50.240        27
50.250        40
50.260        20
50.270        33
50.280        60
50.290         0
50.300        27
50.310        47
50.320        27
50.330        33
50.340        33
50.350        73
50.360        27
50.370        40
50.380        73
50.390        13
50.400        20
50.410       107
50.420        20
50.430        40
50.440        47
50.450        27
50.460        13
50.470        40
50.480        47
50.490        20
50.500        33
50.510        40
50.520        33
50.530        53
50.540        33
50.550        27
50.560        40
50.570        53
50.580        20
50.590        20
50.600        40
50.610        27
50.620        20
50.630        53
50.640        53
50.650        67
50.660        20
50.670        27
50.680        47
50.690        60
50.700        47
50.710        80
50.720        47
50.730        60
50.740        47
50.750        40
50.760        73
50.770        53
50.780        33
50.790        67
50.800        40
50.810        40
50.820        40
50.830        67
50.840       107
50.850        60
50.860        47
50.870        60
50.880        47
50.890        27
50.900        33
50.910        47
50.920        80
50.930        60
50.940        33
50.950        47
50.960        60
50.970        53
50.980        47
50.990        67
51.000        60
51.010        33
51.020        40
51.030        33
51.040        60
51.050        33
51.060        33
51.070        40
51.080        20
51.090        27
51.100        60
51.110        33
51.120        93
51.130        20
51.140        40
51.150        67
51.160        27
51.170        53
51.180        13
51.190        47
51.200        27
51.210        53
51.220        47
51.230        60
51.240        60
51.250        33
51.260        20
51.270        33
51.280        27
51.290        60
51.300        40
51.310        13
51.320        67
51.330        60
51.340        67
51.350        40
51.360        27
51.370        67
51.380        27
51.390        53
51.400        67
51.410        60
51.420        60
51.430        40
51.440        53
51.450        40
51.460        53
51.470        73
51.480        47
51.490        80
51.500        67
51.510        33
51.520        20
51.530        33
51.540        93
51.550        33
51.560        53
51.570        60
51.580        67
51.590        20
51.600        40
51.610        47
51.620        67
51.630        73
51.640        73
51.650        53
51.660        53
51.670        67
51.680        67
51.690        47
51.700        47
51.710        27
51.720        73
51.730        67
51.740        73
51.750        67
51.760        67
51.770        67
51.780        73
51.790        33
51.800        27
51.810        60
51.820        53
51.830        53
51.840        80
51.850        47
51.860        73
51.870        40
51.880        53
51.890        93
51.900        20
51.910        47
51.920        80
51.930        60
51.940       100
51.950        67
51.960        73
51.970        73
51.980        80
51.990        93
52.000       100
52.010        80
52.020       107
52.030        53
52.040        47
52.050       100
52.060       113
52.070        93
52.080        93
52.090       133
52.100        93
52.110        67
52.120       147
52.130       107
52.140       180
52.150       120
52.160       153
52.170       200
52.180       153
52.190       200
52.200       187
52.210       173
52.220       287
52.230       267
52.240       400
52.250       446
52.260       526
52.270       693
52.280       666
52.290      1106
52.300      1046
52.310      1519
52.320      1826
52.330      2146
52.340      2526
52.350      2699
52.360      3252
52.370      2959
52.380      3699
52.390      3885
52.400      4158
52.410      3938
52.420      4058
52.430      4138
52.440      4278
52.450      4118
52.460      4198
52.470      4052
52.480      4318
52.490      3892
52.500      3985
52.510      3885
52.520      4145
52.530      4458
52.540      4931
52.550      4945
52.560      4838
52.570      5378
52.580      5398
52.590      5631
52.600      5311
52.610      4558
52.620      4052
52.630      3539
52.640      2806
52.650      2399
52.660      1986
52.670      2006
52.680      1886
52.690      1799
52.700      1839
52.710      1946
52.720      1999
52.730      2033
52.740      1959
52.750      1986
52.760      1379
52.770      1246
52.780       913
52.790       686
52.800       526
52.810       387
52.820       373
52.830       267
52.840       200
52.850       227
52.860       200
52.870       127
52.880       173
52.890       153
52.900       153
52.910       140
52.920       140
52.930       113
52.940       153
52.950       147
52.960       107
52.970       147
52.980        73
52.990        67
53.000        73
53.010        80
53.020       120
53.030       127
53.040       100
53.050       107
53.060       100
53.070        53
53.080        73
53.090        67
53.100        60
53.110        67
53.120        80
53.130        73
53.140        93
53.150        60
53.160        80
53.170        60
53.180       120
53.190        87
53.200        80
53.210        33
53.220        47
53.230        80
53.240        80
53.250       107
53.260        40
53.270        80
53.280       113
53.290        33
53.300        53
53.310        47
53.320        33
53.330        40
53.340        33
53.350        47
53.360        67
53.370        80
53.380        60
53.390        80
53.400        67
53.410        40
53.420        60
53.430        67
53.440         7
53.450        73
53.460        67
53.470        60
53.480        47
53.490        60
53.500       100
53.510        73
53.520        73
53.530        33
53.540        33
53.550        60
53.560        47
53.570        27
53.580        40
53.590        60
53.600        93
53.610        47
53.620        27
53.630        53
53.640        13
53.650        27
53.660        87
53.670        33
53.680        27
53.690        60
53.700        33
53.710        33
53.720        73
53.730        67
53.740        47
53.750        87
53.760        40
53.770        13
53.780        73
53.790        33
53.800        40
53.810        47
53.820        40
53.830        67
53.840        80
53.850        40
53.860        33
53.870        47
53.880        40
53.890        67
53.900        80
53.910        73
53.920        53
53.930        47
53.940        47
53.950        47
53.960        80
53.970        20
53.980        33
53.990        47
54.000        33
54.010        33
54.020        67
54.030        53
54.040        33
54.050        53
54.060        67
54.070        27
54.080        13
54.090        67
54.100        33
54.110         7
54.120        60
54.130        27
54.140        47
54.150        27
54.160        47
54.170        27
54.180        73
54.190        47
54.200        60
54.210        13
54.220        47
54.230        47
54.240        53
54.250        47
54.260        13
54.270        27
54.280        27
54.290        47
54.300        27
54.310        40
54.320        40
54.330        40
54.340       127
54.350        60
54.360        40
54.370        47
54.380        53
54.390        73
54.400        47
54.410        47
54.420        20
54.430        33
54.440        73
54.450        53
54.460        33
54.470        53
54.480        13
54.490        27
54.500        27
54.510        40
54.520        60
54.530        40
54.540        40
54.550        60
54.560        40
54.570        53
54.580        73
54.590        20
54.600        27
54.610        60
54.620        27
54.630        40
54.640        53
54.650        47
54.660        27
54.670        20
54.680        13
54.690        53
54.700        47
54.710        87
54.720        60
54.730        47
54.740        33
54.750        53
54.760        53
54.770        33
54.780        80
54.790        40
54.800        20
54.810        27
54.820        47
54.830        20
54.840        33
54.850        33
54.860        33
54.870        53
54.880        33
54.890         7
54.900        47
54.910        40
54.920        73
54.930        53
54.940        47
54.950        40
54.960        40
54.970        53
54.980        40
54.990        20
55.000        40
55.010        53
55.020        60
55.030        33
55.040        47
55.050        53
55.060        40
55.070        27
55.080        40
55.090        13
55.100        13
55.110        20
55.120        33
55.130        47
55.140        47
55.150         7
55.160        33
55.170        27
55.180        33
55.190        73
55.200        20
55.210        40
55.220        53
55.230        67
55.240        13
55.250        27
55.260        53
55.270        13
55.280        33
55.290        60
55.300        33
55.310        60
55.320        33
55.330        47
55.340        40
55.350        67
55.360        40
55.370        87
55.380        27
55.390        27
55.400        40
55.410        40
55.420        40
55.430        33
55.440        40
55.450        27
55.460        60
55.470        53
55.480        47
55.490         7
55.500        40
55.510        73
55.520        33
55.530        60
55.540        27
55.550        20
55.560        40
55.570        40
55.580        40
55.590        80
55.600        67
55.610        13
55.620        40
55.630        20
55.640        27
55.650        53
55.660        33
55.670        27
55.680        47
55.690        33
55.700        40
55.710        53
55.720        53
55.730        53
55.740        53
55.750        27
55.760        33
55.770        40
55.780        20
55.790        40
55.800        33
55.810        33
55.820        53
55.830        20
55.840        47
55.850        27
55.860        60
55.870        60
55.880        53
55.890        33
55.900        53
55.910        20
55.920        20
55.930        47
55.940        60
55.950        20
55.960        27
55.970        53
55.980        53
55.990        73
56.000        20
56.010        33
56.020        33
56.030        27
56.040        27
56.050        20
56.060        47
56.070        60
56.080        33
56.090        73
56.100        40
56.110        33
56.120        73
56.130        80
56.140        27
56.150        67
56.160        40
56.170        60
56.180        33
56.190        40
56.200        67
56.210        40
56.220        20
56.230        27
56.240        60
56.250        53
56.260        40
56.270        13
56.280        27
56.290        80
56.300        80
56.310        53
56.320        40
56.330        40
56.340        33
56.350        53
56.360        27
56.370        27
56.380        33
56.390        40
56.400        20
56.410        33
56.420        27
56.430        27
56.440        47
56.450        20
56.460        53
56.470        20
56.480        33
56.490        20
56.500        47
56.510        53
56.520        20
56.530        27
56.540        20
56.550        67
56.560        13
56.570        27
56.580        47
56.590        53
56.600        27
56.610        47
56.620        33
56.630        60
56.640        40
56.650        87
56.660        13
56.670        33
56.680        33
56.690        33
56.700        53
56.710        40
56.720        40
56.730        33
56.740        53
56.750        40
56.760        20
56.770        47
56.780        80
56.790        13
56.800        47
56.810        20
56.820        67
56.830        20
56.840        40
56.850        60
56.860        20
56.870        47
56.880        13
56.890        40
56.900         7
56.910        27
56.920        40
56.930        53
56.940        67
56.950        27
56.960        27
56.970        40
56.980        53
56.990        27
57.000        27
57.010        67
57.020        20
57.030        33
57.040        27
57.050        33
57.060        47
57.070        47
57.080        60
57.090        53
57.100        53
57.110        13
57.120        53
57.130        53
57.140        20
57.150        53
57.160        27
57.170        33
57.180        27
57.190        53
57.200        60
57.210        13
57.220        40
57.230        47
57.240        33
57.250        60
57.260        27
57.270        47
57.280        27
57.290        27
57.300        20
57.310        27
57.320        20
57.330        33
57.340        33
57.350        60
57.360        47
57.370        20
57.380        60
57.390        33
57.400        53
57.410        33
57.420        53
57.430        33
57.440        33
57.450        67
57.460        47
57.470        33
57.480        27
57.490        27
57.500        47
57.510        40
57.520        27
57.530        67
57.540        47
57.550        33
57.560        47
57.570        27
57.580        27
57.590        47
57.600        33
57.610        33
57.620        47
57.630        60
57.640        47
57.650        33
57.660        47
57.670        40
57.680        47
57.690        33
57.700        40
57.710        67
57.720        53
57.730        60
57.740        47
57.750        40
57.760        40
57.770         7
57.780        67
57.790        53
57.800        47
57.810        47
57.820        73
57.830        67
57.840        47
57.850        53
57.860        27
57.870        40
57.880        67
57.890        53
57.900        47
57.910        53
57.920        33
57.930        27
57.940        60
57.950        67
57.960        60
57.970        53
57.980        67
57.990        27
58.000        33
58.010        73
58.020        27
58.030        13
58.040        47
58.050        60
58.060        40
58.070        27
58.080        47
58.090        20
58.100        40
58.110        60
58.120        73
58.130        27
58.140        33
58.150        40
58.160        53
58.170        80
58.180        53
58.190        53
58.200         0
58.210        40
58.220        40
58.230        40
58.240        27
58.250        27
58.260        60
58.270        33
58.280        53
58.290        27
58.300        33
58.310        53
58.320        53
58.330        93
58.340        47
58.350        53
58.360        20
58.370        20
58.380        33
58.390        40
58.400        80
58.410        60
58.420        33
58.430        33
58.440        47
58.450        27
58.460        40
58.470        40
58.480        40
58.490        40
58.500        47
58.510        33
58.520        20
58.530        27
58.540        13
58.550        33
58.560        53
58.570        47
58.580        33
58.590        40
58.600        20
58.610        47
58.620        27
58.630        33
58.640        40
58.650        60
58.660         7
58.670        27
58.680        20
58.690        53
58.700        33
58.710        33
58.720        53
58.730        20
58.740        47
58.750        33
58.760        47
58.770        33
58.780        40
58.790         7
58.800        27
58.810        27
58.820        73
58.830        27
58.840        40
58.850        80
58.860        13
58.870        20
58.880        27
58.890        60
58.900        47
58.910        40
58.920        27
58.930        47
58.940        27
58.950        47
58.960         7
58.970        20
58.980        40
58.990        27
59.000        33
59.010        47
59.020        73
59.030        27
59.040        27
59.050        27
59.060        33
59.070        47
59.080        47
59.090        33
59.100        27
59.110        40
59.120        47
59.130        33
59.140        13
59.150        40
59.160        33
59.170        40
59.180        67
59.190        33
59.200        53
59.210        27
59.220        20
59.230        40
59.240        27
59.250        13
59.260        20
59.270        20
59.280        40
59.290        33
59.300        93
59.310        27
59.320        27
59.330        47
59.340        47
59.350        40
59.360        27
59.370        67
59.380        40
59.390        47
59.400        33
59.410        20
59.420        27
59.430        27
59.440        33
59.450         7
59.460         7
59.470        40
59.480        33
59.490        53
59.500        40
59.510        33
59.520        27
59.530        67
59.540        27
59.550        33
59.560        27
59.570        40
59.580        13
59.590        40
59.600        47
59.610        40
59.620        53
59.630        67
59.640        47
59.650        40
59.660        27
59.670        53
59.680        47
59.690        93
59.700        27
59.710        73
59.720        40
59.730         7
59.740        13
59.750        47
59.760        33
59.770        60
59.780        33
59.790        40
59.800        40
59.810        33
59.820        60
59.830        47
59.840        60
59.850        80
59.860        53
59.870        33
59.880        27
59.890        13
59.900        60
59.910        80
59.920        53
59.930        47
59.940        20
59.950        20
59.960        27
59.970        80
59.980        67
59.990        13
60.000        13
