20.000        13
20.010        13
20.020        67
20.030       120
20.040        27
20.050        67
20.060        40
20.070        53
20.080        40
20.090        13
20.100        80
20.110        80
20.120        53
20.130       107
20.140        27
20.150        40
20.160        40
20.170        67
20.180        53
20.190        67
20.200        27
20.210        27
20.220        53
20.230        67
20.240        53
20.250        27
20.260        80
20.270        67
20.280        80
20.290        27
20.300        13
20.310        67
20.320        40
20.330        27
20.340        13
20.350        27
20.360        40
20.370        13
20.380        27
20.390        13
20.400        80
20.410        93
20.420        67
20.430        53
20.440        27
20.450        40
20.460        80
20.470       120
20.480        67
20.490        93
20.500        13
20.510        53
20.520        27
20.530         0
20.540        40
20.550        80
20.560        13
20.570         0
20.580        53
20.590        40
20.600       107
20.610        27
20.620         0
20.630        27
20.640        80
20.650        67
20.660        67
20.670        40
20.680        13
20.690        53
20.700        13
20.710       120
20.720        13
20.730        13
20.740        40
20.750        40
20.760        80
20.770        93
20.780        53
20.790        13
20.800        67
20.810       120
20.820        13
20.830        40
20.840        53
20.850        40
20.860        53
20.870        27
20.880        40
20.890        40
20.900        67
20.910        40
20.920        40
20.930        27
20.940        13
20.950        80
20.960        67
20.970        67
20.980        53
20.990        27
21.000        53
21.010        67
21.020        40
21.030        53
21.040        40
21.050        53
21.060        40
21.070        27
21.080        27
21.090        27
21.100        27
21.110        53
21.120        40
21.130        27
21.140        53
21.150        67
21.160        27
21.170        27
21.180        67
21.190        67
21.200        40
21.210         0
21.220        53
21.230        53
21.240        40
21.250        53
21.260        27
21.270        80
21.280        13
21.290        27
21.300        27
21.310        40
21.320        40
21.330        13
21.340       107
21.350        67
21.360        40
21.370        67
21.380        40
21.390        53
21.400        80
21.410        53
21.420        27
21.430        80
21.440        27
21.450        53
21.460        13
21.470        67
21.480        53
21.490        67
21.500        27
21.510        40
21.520        40
21.530        67
21.540        13
21.550        80
21.560        80
21.570        13
21.580        53
21.590        53
21.600        27
21.610        93
21.620        13
21.630        27
21.640        40
21.650        27
21.660        53
21.670        53
21.680        67
21.690        53
21.700        40
21.710        67
21.720        40
21.730        40
21.740        13
21.750        13
21.760        27
21.770        27
21.780        40
21.790        53
21.800        27
21.810         0
21.820        93
21.830        67
21.840        93
21.850        53
21.860        40
21.870        13
21.880        53
21.890        93
21.900        53
21.910        40
21.920        67
21.930        40
21.940        27
21.950       107
21.960        13
21.970        53
21.980         0
21.990        80
22.000        40
22.010        40
22.020        67
22.030        53
22.040        53
22.050        67
22.060        67
22.070        53
22.080        53
22.090        40
22.100        40
22.110        40
22.120        67
22.130        40
22.140        27
22.150        40
22.160        13
22.170        27
22.180        80
22.190        53
22.200        27
22.210        67
22.220        53
22.230        27
22.240        53
22.250        67
22.260        93
22.270        93
22.280        53
22.290        53
22.300       133
22.310        67
22.320        27
22.330        67
22.340       147
22.350        93
22.360        67
22.370        40
22.380        93
22.390        67
22.400        40
22.410       173
22.420        93
22.430        40
22.440        80
22.450        93
22.460       107
22.470        53
22.480        80
22.490       120
22.500       147
22.510        80
22.520        80
22.530       133
22.540        93
22.550        40
22.560       160
22.570       187
22.580       147
22.590       120
22.600       200
22.610       133
22.620       173
22.630       253
22.640       147
22.650       200
22.660       173
22.670       320
22.680       240
22.690       187
22.700       320
22.710       253
22.720       240
22.730       147
22.740       253
22.750       253
22.760       280
22.770       293
22.780       267
22.790       307
22.800       240
22.810       267
22.820       173
22.830       293
22.840       227
22.850       160
22.860       227
22.870       227
22.880       160
22.890       120
22.900       120
22.910       107
22.920       147
22.930       133
22.940       120
22.950        93
22.960        93
22.970       107
22.980        67
22.990        67
23.000        40
23.010       187
23.020        80
23.030       133
23.040        80
23.050        93
23.060       120
23.070        80
23.080        93
23.090        13
23.100        40
23.110        80
23.120        27
23.130        53
23.140        67
23.150        53
23.160        80
23.170        27
23.180        40
23.190        53
23.200        80
23.210        27
23.220        40
23.230        40
23.240        67
23.250        53
23.260        53
23.270        93
23.280        80
23.290        67
23.300        67
23.310        93
23.320        27
23.330        27
23.340       120
23.350        67
23.360       107
23.370       107
23.380        53
23.390        80
23.400        40
23.410        93
23.420        53
23.430        67
23.440        40
23.450        53
23.460        53
23.470        93
23.480        53
23.490        40
23.500        80
23.510        53
23.520        53
23.530        93
23.540        40
23.550        13
23.560        53
23.570        27
23.580        93
23.590        80
23.600        40
23.610        53
23.620        80
23.630        80
23.640        27
23.650        53
23.660        53
23.670        80
23.680        53
23.690        53
23.700        53
23.710        93
23.720        53
23.730        27
23.740        53
23.750        40
23.760        53
23.770        27
23.780        13
23.790        67
23.800        67
23.810        53
23.820        53
23.830        27
23.840        40
23.850        13
23.860        67
23.870         0
23.880        40
23.890        53
23.900        27
23.910        27
23.920        40
23.930        40
23.940       107
23.950        27
23.960        27
23.970        40
23.980       120
23.990        80
24.000        27
24.010        93
24.020        67
24.030        40
24.040        13
24.050        40
24.060        53
24.070        40
24.080        40
24.090         0
24.100        40
24.110        40
24.120        53
24.130        53
24.140        53
24.150        13
24.160        27
24.170        40
24.180        93
24.190        27
24.200        40
24.210        67
24.220        40
24.230         0
24.240        53
24.250        40
24.260        67
24.270        53
24.280        13
24.290        40
24.300        27
24.310        80
24.320        67
24.330        40
24.340        27
24.350        53
24.360        53
24.370        40
24.380        13
24.390        27
24.400        13
24.410        40
24.420        53
24.430         0
24.440        80
24.450        40
24.460        67
24.470        27
24.480        80
24.490        53
24.500        53
24.510        67
24.520        13
24.530        13
24.540        27
24.550        53
24.560        67
24.570        53
24.580        53
24.590        27
24.600        40
24.610        93
24.620        27
24.630        40
24.640        93
24.650        53
24.660        27
24.670        53
24.680        27
24.690        27
24.700        53
24.710        80
24.720        27
24.730        13
24.740        80
24.750        27
24.760        27
24.770        40
24.780        40
24.790       107
24.800        80
24.810        40
24.820        53
24.830        80
24.840         0
24.850        53
24.860        53
24.870        27
24.880        53
24.890        40
24.900        27
24.910        27
24.920        27
24.930        13
24.940        80
24.950        40
24.960        27
24.970        40
24.980        80
24.990        40
25.000        80
25.010        53
25.020         0
25.030        13
25.040        67
25.050        27
25.060        40
25.070        27
25.080        67
25.090        27
25.100        13
25.110        53
25.120        53
25.130        53
25.140        67
25.150         0
25.160        53
25.170        40
25.180         0
25.190       120
25.200        13
25.210         0
25.220        80
25.230        27
25.240        13
25.250        53
25.260        93
25.270        67
25.280        40
25.290        27
25.300        27
25.310        40
25.320        53
25.330        13
25.340        80
25.350        80
25.360        13
25.370        80
25.380        67
25.390        40
25.400        40
25.410        40
25.420        27
25.430        67
25.440        67
25.450        40
25.460        53
25.470        27
25.480        53
25.490        67
25.500        53
25.510        40
25.520        40
25.530        27
25.540        67
25.550        67
25.560        40
25.570        80
25.580        80
25.590        67
25.600        93
25.610       107
25.620        80
25.630       147
25.640       147
25.650        93
25.660        93
25.670        53
25.680        80
25.690        53
25.700        40
25.710        40
25.720        40
25.730        27
25.740        27
25.750        53
25.760        27
25.770        13
25.780        27
25.790        13
25.800        67
25.810        53
25.820         0
25.830        53
25.840        40
25.850        40
25.860        27
25.870        27
25.880        13
25.890        80
25.900        27
25.910        40
25.920        13
25.930        13
25.940        40
25.950        13
25.960        13
25.970         0
25.980        67
25.990        53
26.000         0
26.010        13
26.020        40
26.030        27
26.040        13
26.050        27
26.060        13
26.070        27
26.080        27
26.090        27
26.100        67
26.110        27
26.120        13
26.130        40
26.140        80
26.150        40
26.160        53
26.170        67
26.180        13
26.190        80
26.200        13
26.210         0
26.220        53
26.230        67
26.240        67
26.250        67
26.260        27
26.270        93
26.280        27
26.290        67
26.300        13
26.310        67
26.320        27
26.330        53
26.340        13
26.350        40
26.360        27
26.370        40
26.380        13
26.390        40
26.400        13
26.410        13
26.420        40
26.430        27
26.440        40
26.450       107
26.460        27
26.470        13
26.480        13
26.490        27
26.500        67
26.510        13
26.520        53
26.530        53
26.540        27
26.550        40
26.560        27
26.570        27
26.580        40
26.590        13
26.600         0
26.610        27
26.620        27
26.630        40
26.640        27
26.650        40
26.660        53
26.670        13
26.680        67
26.690        13
26.700        53
26.710        27
26.720         0
26.730        13
26.740         0
26.750        13
26.760         0
26.770        67
26.780        27
26.790        67
26.800         0
26.810        13
26.820        27
26.830        13
26.840        13
26.850        40
26.860        40
26.870        13
26.880        27
26.890        40
26.900        13
26.910        27
26.920         0
26.930        40
26.940         0
26.950        53
26.960        80
26.970        40
26.980        27
26.990        13
27.000        40
27.010        40
27.020        13
27.030        40
27.040        40
27.050        27
27.060        53
27.070        40
27.080        27
27.090        27
27.100        53
27.110        27
27.120        80
27.130        13
27.140        40
27.150        40
27.160        67
27.170        53
27.180        53
27.190        13
27.200        53
27.210        27
27.220        13
27.230        13
27.240        40
27.250        40
27.260        40
27.270        40
27.280        67
27.290        67
27.300        80
27.310        40
27.320        53
27.330        40
27.340        40
27.350        40
27.360        40
27.370        53
27.380        13
27.390        40
27.400        53
27.410        53
27.420        27
27.430        13
27.440        13
27.450        53
27.460        27
27.470        40
27.480        27
27.490        27
27.500        53
27.510        40
27.520        27
27.530        13
27.540        80
27.550        40
27.560        67
27.570        40
27.580        27
27.590        40
27.600        40
27.610        67
27.620        53
27.630        27
27.640        13
27.650        40
27.660        53
27.670        27
27.680        27
27.690        27
27.700        53
27.710        40
27.720        67
27.730        27
27.740        13
27.750        53
27.760        53
27.770        13
27.780         0
27.790         0
27.800        27
27.810        40
27.820        13
27.830        40
27.840        40
27.850        40
27.860        27
27.870        27
27.880        67
27.890        27
27.900         0
27.910        40
27.920        13
27.930        40
27.940        13
27.950        53
27.960        13
27.970        53
27.980        13
27.990        13
28.000        13
28.010        40
28.020        40
28.030        27
28.040        27
28.050        27
28.060        53
28.070         0
28.080        67
28.090        27
28.100         0
28.110        13
28.120        27
28.130        40
28.140        13
28.150        27
28.160        80
28.170        13
28.180        40
28.190        53
28.200        27
28.210        13
28.220        67
28.230        27
28.240        40
28.250        27
28.260        80
28.270        67
28.280        13
28.290        40
28.300        40
28.310         0
28.320        80
28.330        27
28.340        27
28.350        40
28.360        27
28.370        40
28.380        27
28.390        27
28.400        53
28.410        13
28.420        67
28.430        53
28.440        40
28.450        40
28.460        40
28.470        13
28.480        40
28.490        40
28.500        53
28.510        27
28.520        53
28.530        40
28.540        40
28.550        40
28.560        40
28.570        40
28.580        67
28.590        40
28.600        13
28.610         0
28.620        27
28.630         0
28.640        80
28.650        13
28.660        27
28.670        40
28.680        13
28.690         0
28.700        40
28.710        40
28.720        27
28.730        27
28.740        27
28.750        53
28.760        13
28.770        40
28.780         0
28.790        53
28.800        27
28.810        40
28.820        27
28.830        27
28.840        27
28.850        67
28.860        40
28.870        40
28.880        53
28.890        40
28.900        40
28.910         0
28.920        40
28.930        27
28.940         0
28.950        40
28.960        93
28.970        40
28.980        13
28.990        13
29.000        67
29.010        53
29.020        13
29.030        13
29.040        13
29.050        67
29.060        53
29.070        80
29.080        40
29.090        80
29.100        80
29.110        80
29.120        27
29.130         0
29.140        53
29.150        27
29.160        40
29.170        27
29.180         0
29.190        13
29.200        40
29.210        67
29.220        40
29.230        13
29.240        40
29.250        27
29.260        27
29.270        40
29.280        53
29.290        27
29.300        13
29.310        27
29.320        53
29.330        27
29.340        40
29.350        40
29.360        13
29.370        40
29.380        80
29.390        40
29.400         0
29.410         0
29.420        27
29.430        13
29.440        27
29.450         0
29.460        13
29.470        40
29.480        40
29.490        27
29.500        40
29.510        40
29.520        40
29.530         0
29.540        13
29.550        13
29.560        13
29.570        40
29.580        93
29.590        13
29.600        27
29.610        13
29.620        13
29.630        67
29.640        53
29.650        27
29.660        80
29.670        53
29.680        53
29.690        13
29.700        27
29.710         0
29.720        27
29.730        27
29.740        13
29.750        27
29.760        80
29.770        40
29.780        53
29.790         0
29.800        27
29.810         0
29.820        40
29.830        53
29.840        13
29.850        40
29.860        27
29.870        27
29.880        27
29.890        27
29.900        13
29.910        53
29.920        80
29.930        27
29.940        53
29.950        27
29.960        27
29.970        13
29.980        67
29.990        13
30.000        40
30.010        40
30.020        27
30.030         0
30.040        13
30.050        27
30.060        53
30.070        40
30.080        27
30.090        53
30.100        27
30.110        67
30.120        13
30.130        27
30.140        40
30.150        53
30.160        13
30.170         0
30.180        27
30.190        13
30.200        53
30.210        40
30.220        53
30.230         0
30.240        40
30.250        27
30.260        13
30.270        13
30.280        27
30.290        13
30.300        67
30.310         0
30.320        27
30.330        27
30.340        53
30.350        13
30.360        27
30.370        27
30.380        53
30.390        40
30.400        40
30.410        40
30.420        27
30.430        13
30.440        27
30.450        27
30.460        40
30.470        13
30.480        13
30.490         0
30.500        13
30.510        40
30.520        13
30.530        53
30.540        27
30.550        40
30.560        13
30.570        13
30.580        13
30.590        27
30.600        53
30.610        13
30.620        27
30.630        27
30.640        53
30.650        27
30.660        53
30.670        40
30.680        40
30.690        40
30.700        27
30.710        13
30.720        27
30.730        13
30.740        67
30.750        80
30.760        13
30.770        27
30.780        27
30.790         0
30.800        40
30.810        53
30.820        13
30.830        27
30.840        27
30.850        13
30.860        13
30.870        27
30.880        53
30.890        53
30.900        13
30.910         0
30.920        13
30.930        40
30.940        27
30.950        40
30.960        13
30.970        53
30.980        13
30.990        40
31.000        27
31.010        13
31.020        27
31.030        27
31.040        13
31.050        40
31.060        40
31.070        27
31.080        80
31.090        53
31.100        27
31.110        27
31.120        53
31.130        27
31.140        13
31.150        53
31.160        27
31.170        40
31.180        13
31.190        53
31.200        27
31.210        53
31.220        27
31.230        27
31.240        40
31.250        13
31.260        67
31.270        53
31.280        27
31.290        53
31.300        67
31.310        13
31.320         0
31.330        13
31.340        40
31.350        27
31.360        13
31.370        27
31.380        13
31.390        27
31.400        13
31.410        40
31.420        67
31.430        13
31.440        40
31.450        53
31.460        13
31.470        53
31.480        13
31.490        13
31.500        27
31.510        53
31.520        27
31.530        53
31.540        80
31.550        53
31.560        67
31.570        13
31.580        27
31.590        13
31.600        27
31.610        13
31.620        40
31.630        27
31.640        40
31.650         0
31.660        13
31.670        27
31.680        53
31.690        67
31.700        13
31.710        53
31.720        40
31.730        67
31.740        13
31.750        40
31.760        13
31.770        13
31.780        53
31.790        40
31.800        13
31.810        53
31.820        13
31.830        93
31.840        67
31.850        67
31.860        40
31.870        40
31.880        27
31.890        80
31.900        53
31.910        80
31.920         0
31.930        80
31.940        40
31.950         0
31.960        67
31.970        40
31.980        13
31.990        40
32.000        53
32.010         0
32.020        80
32.030       107
32.040        40
32.050       133
32.060        53
32.070       107
32.080        67
32.090        80
32.100        93
32.110        67
32.120        80
32.130       107
32.140        93
32.150        80
32.160       107
32.170        80
32.180       147
32.190       120
32.200        40
32.210       120
32.220       240
32.230       120
32.240       173
32.250       200
32.260       173
32.270       267
32.280       253
32.290       227
32.300       213
32.310       200
32.320       347
32.330       253
32.340       280
32.350       213
32.360       227
32.370       307
32.380       373
32.390       240
32.400       267
32.410       413
32.420       333
32.430       347
32.440       293
32.450       267
32.460       307
32.470       280
32.480       173
32.490       187
32.500       360
32.510       240
32.520       293
32.530       280
32.540       133
32.550       147
32.560       227
32.570       213
32.580       173
32.590       200
32.600       213
32.610       213
32.620       147
32.630       160
32.640       160
32.650       187
32.660       133
32.670        80
32.680       160
32.690        93
32.700        80
32.710        40
32.720       147
32.730        53
32.740        53
32.750        67
32.760        80
32.770        27
32.780        93
32.790        80
32.800        53
32.810        67
32.820        80
32.830        93
32.840        80
32.850        67
32.860        53
32.870        40
32.880         0
32.890        27
32.900        40
32.910        67
32.920        53
32.930        40
32.940        27
32.950        40
32.960        53
32.970         0
32.980        40
32.990        27
33.000        13
33.010        27
33.020        40
33.030        53
33.040        27
33.050        13
33.060        13
33.070        27
33.080        53
33.090        13
33.100         0
33.110        40
33.120         0
33.130        53
33.140        53
33.150        53
33.160        40
33.170        40
33.180        53
33.190        27
33.200         0
33.210         0
33.220        27
33.230        40
33.240        27
33.250        13
33.260        53
33.270        67
33.280        27
33.290        53
33.300        53
33.310       107
33.320        27
33.330        27
33.340        13
33.350        27
33.360        40
33.370        27
33.380        27
33.390         0
33.400        13
33.410        67
33.420        27
33.430        40
33.440        13
33.450        13
33.460        40
33.470        40
33.480        13
33.490        13
33.500        27
33.510        13
33.520        27
33.530        13
33.540        27
33.550        40
33.560         0
33.570        53
33.580        13
33.590        40
33.600        27
33.610        53
33.620        27
33.630        27
33.640        13
33.650        13
33.660        13
33.670        40
33.680        67
33.690        40
33.700        27
33.710        27
33.720        40
33.730        13
33.740        53
33.750        27
33.760         0
33.770        27
33.780        13
33.790         0
33.800        27
33.810        27
33.820        13
33.830        27
33.840        67
33.850        67
33.860        13
33.870        27
33.880        40
33.890        13
33.900        13
33.910        40
33.920        27
33.930        40
33.940        13
33.950        13
33.960        13
33.970        13
33.980        53
33.990        53
34.000        13
34.010         0
34.020        40
34.030         0
34.040        53
34.050        40
34.060        27
34.070        13
34.080         0
34.090         0
34.100        13
34.110        13
34.120         0
34.130        27
34.140        27
34.150        53
34.160        27
34.170         0
34.180        40
34.190        13
34.200        53
34.210        27
34.220        53
34.230        27
34.240        27
34.250        40
34.260        13
34.270        13
34.280        40
34.290        27
34.300        40
34.310        13
34.320        27
34.330         0
34.340        13
34.350        80
34.360        13
34.370        13
34.380        53
34.390        13
34.400        40
34.410        27
34.420        40
34.430        13
34.440        40
34.450         0
34.460        27
34.470        13
34.480        40
34.490        13
34.500        27
34.510        27
34.520         0
34.530        40
34.540        13
34.550         0
34.560        13
34.570        27
34.580        40
34.590        27
34.600        13
34.610        13
34.620        40
34.630        40
34.640        27
34.650        13
34.660        40
34.670        40
34.680        53
34.690        27
34.700        27
34.710        40
34.720        40
34.730        13
34.740        27
34.750        40
34.760        27
34.770        40
34.780        40
34.790        53
34.800        53
34.810        13
34.820        13
34.830        27
34.840        53
34.850        27
34.860        40
34.870         0
34.880        13
34.890        40
34.900        40
34.910        27
34.920        27
34.930        13
34.940        53
34.950        27
34.960        53
34.970        53
34.980        13
34.990        13
35.000        27
35.010        27
35.020        40
35.030        27
35.040        40
35.050        67
35.060         0
35.070        53
35.080        67
35.090        53
35.100        27
35.110        27
35.120        93
35.130        93
35.140        40
35.150        40
35.160        93
35.170        80
35.180        67
35.190        53
35.200       107
35.210        80
35.220       173
35.230        93
35.240       107
35.250       120
35.260       120
35.270        40
35.280        67
35.290        27
35.300        93
35.310        67
35.320        53
35.330        27
35.340        27
35.350        27
35.360        27
35.370        13
35.380        13
35.390         0
35.400        40
35.410        13
35.420        27
35.430        13
35.440        40
35.450        27
35.460        40
35.470        13
35.480        13
35.490        27
35.500        13
35.510        53
35.520         0
35.530        27
35.540        27
35.550        67
35.560        40
35.570        40
35.580        27
35.590        13
35.600        40
35.610        13
35.620        53
35.630        27
35.640        13
35.650        13
35.660        40
35.670        13
35.680         0
35.690         0
35.700        40
35.710        27
35.720        40
35.730        13
35.740        67
35.750        40
35.760        27
35.770        40
35.780        40
35.790        13
35.800         0
35.810        27
35.820        27
35.830        40
35.840        40
35.850        13
35.860        80
35.870         0
35.880        40
35.890        13
35.900        40
35.910         0
35.920        27
35.930         0
35.940        13
35.950        13
35.960        13
35.970        27
35.980        27
35.990        53
36.000        13
36.010        27
36.020        13
36.030        27
36.040        13
36.050        13
36.060         0
36.070        13
36.080        27
36.090        40
36.100        27
36.110         0
36.120         0
36.130        13
36.140        13
36.150        27
36.160        13
36.170        13
36.180         0
36.190        13
36.200        13
36.210        53
36.220        27
36.230        13
36.240        13
36.250        13
36.260        13
36.270         0
36.280        27
36.290         0
36.300        27
36.310        27
36.320        40
36.330         0
36.340        53
36.350        13
36.360        13
36.370        40
36.380        13
36.390        40
36.400        27
36.410        13
36.420        13
36.430        27
36.440        13
36.450        27
36.460         0
36.470        13
36.480        40
36.490        13
36.500        40
36.510        53
36.520        13
36.530        13
36.540        67
36.550        27
36.560        13
36.570        27
36.580        40
36.590        27
36.600        53
36.610        53
36.620        27
36.630        27
36.640        53
36.650        27
36.660        13
36.670        27
36.680        27
36.690        13
36.700        40
36.710         0
36.720         0
36.730        27
36.740        27
36.750         0
36.760        13
36.770        27
36.780         0
36.790         0
36.800        13
36.810        13
36.820        40
36.830        13
36.840        53
36.850        40
36.860         0
36.870        13
36.880         0
36.890        27
36.900        40
36.910         0
36.920        13
36.930        27
36.940        13
36.950        13
36.960        27
36.970        40
36.980        40
36.990        13
37.000        27
37.010        13
37.020        13
37.030         0
37.040        27
37.050        40
37.060        67
37.070        13
37.080        40
37.090         0
37.100        40
37.110        27
37.120        13
37.130        13
37.140        53
37.150        13
37.160        13
37.170        40
37.180         0
37.190         0
37.200        13
37.210        27
37.220        27
37.230        27
37.240        13
37.250        27
37.260        27
37.270         0
37.280        13
37.290        13
37.300        13
37.310        13
37.320        13
37.330        27
37.340        40
37.350        40
37.360        53
37.370        40
37.380        13
37.390        40
37.400        40
37.410        13
37.420        53
37.430         0
37.440        27
37.450        27
37.460        13
37.470        13
37.480        13
37.490        53
37.500        27
37.510        53
37.520        13
37.530         0
37.540        27
37.550        93
37.560        13
37.570        67
37.580        13
37.590        13
37.600        13
37.610        13
37.620        40
37.630        13
37.640        13
37.650        40
37.660        53
37.670        27
37.680        27
37.690        27
37.700         0
37.710        40
37.720         0
37.730        13
37.740        13
37.750         0
37.760         0
37.770        53
37.780        67
37.790        27
37.800        27
37.810        13
37.820        27
37.830        93
37.840        93
37.850        40
37.860        67
37.870        40
37.880        13
37.890        80
37.900        40
37.910        53
37.920        27
37.930        40
37.940        67
37.950        27
37.960        67
37.970        40
37.980        27
37.990        40
38.000        40
38.010        27
38.020        13
38.030        27
38.040        40
38.050         0
38.060        13
38.070         0
38.080        13
38.090        27
38.100        13
38.110        80
38.120        13
38.130        13
38.140        40
38.150         0
38.160        40
38.170        27
38.180        27
38.190        27
38.200        13
38.210        13
38.220        13
38.230        27
38.240        40
38.250        27
38.260        13
38.270        27
38.280        40
38.290         0
38.300        27
38.310        80
38.320        13
38.330        13
38.340        13
38.350        27
38.360        53
38.370        27
38.380        40
38.390        27
38.400         0
38.410        40
38.420        27
38.430        13
38.440        13
38.450        13
38.460        53
38.470        27
38.480        13
38.490        27
38.500        13
38.510        27
38.520        40
38.530        27
38.540        53
38.550         0
38.560        13
38.570        40
38.580        40
38.590        40
38.600        13
38.610        27
38.620        27
38.630        27
38.640        27
38.650        13
38.660        40
38.670        13
38.680        53
38.690         0
38.700        27
38.710        27
38.720        13
38.730        40
38.740        27
38.750        27
38.760        27
38.770        13
38.780        27
38.790        13
38.800        27
38.810        13
38.820         0
38.830        53
38.840         0
38.850        40
38.860         0
38.870        67
38.880        13
38.890        27
38.900        53
38.910        53
38.920        27
38.930        40
38.940         0
38.950        53
38.960        13
38.970         0
38.980        67
38.990        13
39.000        27
39.010        13
39.020        53
39.030        13
39.040        40
39.050        13
39.060        27
39.070        67
39.080        27
39.090         0
39.100        13
39.110        13
39.120        13
39.130        53
39.140        13
39.150         0
39.160        40
39.170        40
39.180        13
39.190        27
39.200        53
39.210         0
39.220        40
39.230        13
39.240        40
39.250        53
39.260        27
39.270        13
39.280        40
39.290        27
39.300        13
39.310        13
39.320        67
39.330        13
39.340        13
39.350        40
39.360        27
39.370        13
39.380        40
39.390        13
39.400        67
39.410        13
39.420        40
39.430        27
39.440         0
39.450        13
39.460        53
39.470         0
39.480        27
39.490        27
39.500        40
39.510        67
39.520        27
39.530        13
39.540        27
39.550         0
39.560        13
39.570        67
39.580         0
39.590         0
39.600        40
39.610         0
39.620        27
39.630        13
39.640         0
39.650        40
39.660        67
39.670        27
39.680        40
39.690        27
39.700        27
39.710        40
39.720        53
39.730        27
39.740        13
39.750        40
39.760        27
39.770        13
39.780        67
39.790        13
39.800        13
39.810        27
39.820        40
39.830        27
39.840        27
39.850        13
39.860        13
39.870        53
39.880        53
39.890        13
39.900        27
39.910         0
39.920        27
39.930        27
39.940        40
39.950         0
39.960        27
39.970         0
39.980        67
39.990        27
40.000        13
40.010        53
40.020         0
40.030        53
40.040        13
40.050        80
40.060        53
40.070        27
40.080        27
40.090        53
40.100        27
40.110        27
40.120        13
40.130        27
40.140        13
40.150        13
40.160        27
40.170        13
40.180        53
40.190        40
40.200        13
40.210        53
40.220        13
40.230        13
40.240        13
40.250        67
40.260        27
40.270        27
40.280        13
40.290        67
40.300        13
40.310        40
40.320        13
40.330        13
40.340        67
40.350        13
40.360        13
40.370        53
40.380        40
40.390        27
40.400        13
40.410        40
40.420        13
40.430         0
40.440        13
40.450        13
40.460        27
40.470        13
40.480        13
40.490        40
40.500         0
40.510        13
40.520        40
40.530        80
40.540        27
40.550         0
40.560        13
40.570         0
40.580        27
40.590        13
40.600        13
40.610         0
40.620        40
40.630        13
40.640        40
40.650        27
40.660         0
40.670        27
40.680        53
40.690        27
40.700        13
40.710        40
40.720        13
40.730         0
40.740         0
40.750        13
40.760        27
40.770        13
40.780        13
40.790         0
40.800         0
40.810        40
40.820        27
40.830        13
40.840         0
40.850        80
40.860        13
40.870        27
40.880        13
40.890        13
40.900        13
40.910        40
40.920        40
40.930        13
40.940         0
40.950        27
40.960        53
40.970        13
40.980        40
40.990        40
41.000        40
41.010        27
41.020        27
41.030         0
41.040        13
41.050        40
41.060        40
41.070        40
41.080        40
41.090        53
41.100        53
41.110        67
41.120        13
41.130        27
41.140        13
41.150        27
41.160        40
41.170        27
41.180        13
41.190        27
41.200        40
41.210        13
41.220        27
41.230        27
41.240        27
41.250        27
41.260        67
41.270        53
41.280         0
41.290        40
41.300        27
41.310        13
41.320         0
41.330        40
41.340        67
41.350        27
41.360        27
41.370        53
41.380        13
41.390        53
41.400        13
41.410         0
41.420        40
41.430        13
41.440        53
41.450         0
41.460        40
41.470        13
41.480        40
41.490        13
41.500        27
41.510        40
41.520        27
41.530        13
41.540        80
41.550        27
41.560        67
41.570        40
41.580        27
41.590        27
41.600        27
41.610        27
41.620        13
41.630        67
41.640        53
41.650        67
41.660        67
41.670        40
41.680        93
41.690        67
41.700       120
41.710       120
41.720       160
41.730       133
41.740       213
41.750       173
41.760       213
41.770       187
41.780       120
41.790       173
41.800        80
41.810        80
41.820        67
41.830       120
41.840       120
41.850       107
41.860       120
41.870        67
41.880       187
41.890       107
41.900        53
41.910        93
41.920        53
41.930        53
41.940        80
41.950        67
41.960         0
41.970        40
41.980        67
41.990        13
42.000        40
42.010        53
42.020        40
42.030        40
42.040        13
42.050        53
42.060         0
42.070        13
42.080        27
42.090        80
42.100        13
42.110        27
42.120        27
42.130        40
42.140        67
42.150        13
42.160        53
42.170        13
42.180        13
42.190        53
42.200        27
42.210        40
42.220        53
42.230        27
42.240       107
42.250        40
42.260        40
42.270         0
42.280        27
42.290        13
42.300        40
42.310        13
42.320        40
42.330        40
42.340        13
42.350        40
42.360        13
42.370        40
42.380        13
42.390        27
42.400        13
42.410        27
42.420        27
42.430        40
42.440        27
42.450        40
42.460        13
42.470        13
42.480        13
42.490        40
42.500        13
42.510        27
42.520        53
42.530         0
42.540        13
42.550        27
42.560        67
42.570        27
42.580        13
42.590        27
42.600        27
42.610        40
42.620        40
42.630        27
42.640        13
42.650         0
42.660        13
42.670         0
42.680        13
42.690        80
42.700        27
42.710        13
42.720        27
42.730        13
42.740        27
42.750        13
42.760        40
42.770         0
42.780        93
42.790        40
42.800        13
42.810        27
42.820        27
42.830        13
42.840        67
42.850        27
42.860        27
42.870        13
42.880        80
42.890        27
42.900         0
42.910        27
42.920        40
42.930        27
42.940        40
42.950        40
42.960        13
42.970        27
42.980        27
42.990        13
43.000        67
43.010        13
43.020       107
43.030        40
43.040        13
43.050        27
43.060        27
43.070        13
43.080        13
43.090        27
43.100        27
43.110        67
43.120         0
43.130        27
43.140         0
43.150         0
43.160        13
43.170        53
43.180        40
43.190        27
43.200        27
43.210        40
43.220        27
43.230        80
43.240        67
43.250        27
43.260        27
43.270        67
43.280        27
43.290        13
43.300        93
43.310        27
43.320        27
43.330        53
43.340        13
43.350        27
43.360        53
43.370        80
43.380       107
43.390        53
43.400       200
43.410       107
43.420       187
43.430        93
43.440        53
43.450       107
43.460        80
43.470       173
43.480        53
43.490        80
43.500        80
43.510        93
43.520        53
43.530        93
43.540        53
43.550       107
43.560        67
43.570        40
43.580        93
43.590        27
43.600        13
43.610         0
43.620        40
43.630        13
43.640        13
43.650        27
43.660        67
43.670        80
43.680        27
43.690        40
43.700        40
43.710        13
43.720        40
43.730        40
43.740        27
43.750        53
43.760        40
43.770        27
43.780        40
43.790         0
43.800        13
43.810        40
43.820        53
43.830        27
43.840        40
43.850        13
43.860        40
43.870         0
43.880        80
43.890        53
43.900        40
43.910         0
43.920        53
43.930         0
43.940        27
43.950        53
43.960        40
43.970        13
43.980        67
43.990        40
44.000        40
44.010        27
44.020        67
44.030        13
44.040        53
44.050        27
44.060        40
44.070        53
44.080        27
44.090        40
44.100        67
44.110        27
44.120        67
44.130        53
44.140        40
44.150        40
44.160        13
44.170        27
44.180        27
44.190        27
44.200        80
44.210        53
44.220        13
44.230        27
44.240        40
44.250        67
44.260        67
44.270        40
44.280        53
44.290        27
44.300        67
44.310        40
44.320        27
44.330        40
44.340        40
44.350        53
44.360        53
44.370        40
44.380        67
44.390        40
44.400        67
44.410        67
44.420        40
44.430        27
44.440        40
44.450        27
44.460         0
44.470        53
44.480        13
44.490        40
44.500        40
44.510        40
44.520        53
44.530        27
44.540        53
44.550        40
44.560        27
44.570        27
44.580        40
44.590        53
44.600        53
44.610        13
44.620        13
44.630        67
44.640        27
44.650        53
44.660        27
44.670        67
44.680        13
44.690        53
44.700        40
44.710        53
44.720        80
44.730        53
44.740        53
44.750        40
44.760        53
44.770        27
44.780        53
44.790        80
44.800        40
44.810        80
44.820        27
44.830        67
44.840        93
44.850        53
44.860        53
44.870        67
44.880        93
44.890        27
44.900        13
44.910        13
44.920        80
44.930        93
44.940        80
44.950        40
44.960        80
44.970        53
44.980        53
44.990        53
45.000        40
45.010        67
45.020       107
45.030        67
45.040        67
45.050       107
45.060        80
45.070       107
45.080        93
45.090        53
45.100        27
45.110        67
45.120        40
45.130        67
45.140        93
45.150        67
45.160        67
45.170       133
45.180        53
45.190        27
45.200        53
45.210        67
45.220        80
45.230        53
45.240        67
45.250        93
45.260        53
45.270       107
45.280       107
45.290        80
45.300       107
45.310        67
45.320        80
45.330       120
45.340        40
45.350       227
45.360        93
45.370       107
45.380       107
45.390       107
45.400        93
45.410        53
45.420        93
45.430       120
45.440       107
45.450        53
45.460       120
45.470        93
45.480       107
45.490       187
45.500        93
45.510        93
45.520       133
45.530        93
45.540       133
45.550       147
45.560       187
45.570       227
45.580       187
45.590       147
45.600       133
45.610       253
45.620       107
45.630        53
45.640       133
45.650       307
45.660       120
45.670       160
45.680       187
45.690       187
45.700       213
45.710       200
45.720       147
45.730       200
45.740       307
45.750       227
45.760       280
45.770       240
45.780       373
45.790       360
45.800       227
45.810       307
45.820       240
45.830       320
45.840       333
45.850       293
45.860       493
45.870       426
45.880       320
45.890       573
45.900       493
45.910       387
45.920       493
45.930       520
45.940       533
45.950       533
45.960       586
45.970       680
45.980       520
45.990       693
46.000       506
46.010       626
46.020       720
46.030       706
46.040       800
46.050       706
46.060       853
46.070       706
46.080       773
46.090       920
46.100      1120
46.110       986
46.120      1000
46.130       706
46.140      1013
46.150      1120
46.160      1240
46.170      1053
46.180      1293
46.190      1279
46.200      1333
46.210      1373
46.220      1213
46.230      1546
46.240      1546
46.250      1559
46.260      1506
46.270      1813
46.280      1759
46.290      2172
46.300      1679
46.310      1946
46.320      2146
46.330      1839
46.340      2026
46.350      1613
46.360      2066
46.370      2092
46.380      1973
46.390      1906
46.400      1826
46.410      2199
46.420      2106
46.430      1853
46.440      2239
46.450      2199
46.460      1959
46.470      2119
46.480      2279
46.490      1879
46.500      1973
46.510      1893
46.520      2053
46.530      1959
46.540      1933
46.550      2106
46.560      2239
46.570      2026
46.580      1866
46.590      1546
46.600      1706
46.610      1613
46.620      1373
46.630      1493
46.640      1519
46.650      1346
46.660      1279
46.670      1213
46.680      1386
46.690      1146
46.700      1173
46.710       920
46.720      1200
46.730       880
46.740      1213
46.750       973
46.760       800
46.770       933
46.780      1000
46.790       906
46.800       626
46.810       906
46.820       706
46.830       613
46.840       387
46.850       613
46.860       640
46.870       600
46.880       640
46.890       506
46.900       413
46.910       466
46.920       413
46.930       466
46.940       347
46.950       426
46.960       360
46.970       320
46.980       400
46.990       307
47.000       440
47.010       400
47.020       400
47.030       267
47.040       320
47.050       293
47.060       360
47.070       293
47.080       333
47.090       227
47.100       347
47.110       240
47.120       200
47.130       227
47.140       240
47.150       267
47.160       240
47.170       200
47.180       213
47.190       200
47.200       173
47.210       187
47.220       200
47.230       227
47.240       173
47.250       227
47.260       200
47.270       147
47.280       227
47.290       160
47.300       253
47.310       200
47.320       133
47.330       133
47.340       213
47.350       147
47.360        80
47.370       133
47.380       253
47.390        80
47.400        80
47.410        80
47.420       107
47.430       173
47.440       107
47.450       120
47.460       160
47.470       107
47.480        80
47.490       120
47.500       147
47.510       107
47.520        67
47.530       133
47.540        80
47.550        53
47.560       147
47.570        80
47.580        93
47.590       107
47.600        53
47.610        93
47.620       133
47.630        80
47.640        80
47.650        93
47.660        40
47.670        80
47.680       133
47.690        93
47.700        80
47.710        53
47.720        40
47.730       107
47.740        93
47.750       120
47.760        80
47.770       120
47.780        53
47.790        53
47.800       120
47.810        40
47.820       107
47.830        53
47.840        27
47.850        40
47.860        53
47.870        67
47.880       107
47.890        67
47.900        93
47.910        53
47.920        67
47.930        27
47.940        53
47.950        80
47.960        40
47.970        67
47.980        13
47.990        80
48.000        67
48.010        67
48.020        27
48.030        27
48.040        40
48.050        80
48.060        80
48.070        27
48.080        53
48.090        13
48.100        40
48.110        27
48.120        40
48.130        67
48.140        40
48.150        67
48.160        53
48.170        53
48.180        27
48.190        53
48.200        93
48.210        40
48.220        80
48.230        27
48.240        80
48.250        53
48.260        27
48.270        53
48.280        27
48.290        27
48.300        53
48.310        27
48.320        53
48.330        40
48.340        53
48.350        27
48.360        53
48.370        27
48.380        80
48.390        40
48.400        27
48.410        40
48.420        27
48.430        27
48.440        53
48.450        40
48.460        27
48.470        67
48.480        27
48.490        40
48.500       133
48.510        67
48.520        40
48.530        13
48.540        40
48.550        27
48.560        80
48.570        53
48.580        93
48.590        40
48.600        27
48.610        27
48.620        67
48.630        80
48.640        53
48.650        27
48.660        53
48.670        27
48.680        40
48.690        13
48.700        67
48.710        40
48.720        67
48.730        53
48.740        13
48.750        53
48.760        40
48.770        80
48.780        13
48.790        67
48.800        93
48.810        13
48.820        67
48.830        27
48.840        53
48.850        27
48.860        40
48.870        40
48.880        13
48.890       107
48.900       107
48.910        13
48.920        27
48.930        53
48.940        80
48.950        27
48.960        13
48.970        40
48.980        27
48.990        53
49.000        27
49.010        53
49.020        27
49.030        53
49.040        13
49.050        67
49.060        40
49.070         0
49.080       120
49.090         0
49.100        40
49.110        67
49.120        27
49.130         0
49.140        40
49.150        27
49.160        40
49.170        40
49.180        53
49.190        27
49.200        67
49.210        40
49.220        53
49.230        93
49.240        53
49.250        67
49.260        40
49.270        93
49.280        53
49.290        67
49.300        27
49.310        27
49.320        40
49.330        40
49.340        40
49.350        40
49.360        27
49.370        53
49.380        13
49.390        40
49.400        53
49.410        27
49.420        40
49.430        40
49.440        40
49.450        13
49.460        27
49.470        13
49.480        27
49.490        13
49.500        13
49.510        40
49.520        53
49.530        27
49.540        40
49.550        67
49.560        13
49.570         0
49.580        13
49.590        40
49.600        53
49.610        27
49.620        27
49.630        53
49.640        27
49.650        40
49.660        27
49.670        67
49.680        13
49.690        80
49.700        40
49.710        13
49.720        40
49.730        67
49.740         0
49.750        13
49.760        40
49.770        13
49.780        53
49.790        13
49.800        40
49.810        53
49.820        53
49.830         0
49.840        27
49.850        13
49.860        53
49.870         0
49.880        13
49.890        53
49.900        27
49.910        13
49.920        80
49.930        67
49.940        27
49.950        80
49.960        27
49.970        13
49.980        93
49.990        27
50.000         0
50.010         0
50.020        53
50.030        27
50.040        67
50.050        27
50.060         0
50.070        40
50.080        40
50.090        53
50.100        40
50.110        27
50.120         0
50.130        40
50.140        53
50.150         0
50.160        27
50.170        67
50.180        53
50.190        13
50.200        27
50.210        40
50.220        53
50.230        80
50.240        27
50.250        27
50.260        40
50.270        40
50.280        27
50.290        27
50.300        13
50.310        27
50.320        27
50.330        13
50.340        40
50.350        53
50.360        40
50.370        40
50.380        80
50.390        53
50.400         0
50.410        27
50.420        40
50.430         0
50.440        53
50.450        40
50.460        40
50.470        80
50.480        27
50.490        13
50.500        13
50.510        67
50.520        27
50.530        13
50.540        27
50.550        40
50.560        53
50.570        13
50.580        40
50.590        27
50.600        53
50.610        80
50.620        13
50.630        53
50.640         0
50.650        27
50.660        13
50.670        27
50.680        53
50.690        27
50.700        80
50.710        53
50.720        40
50.730        53
50.740        67
50.750        27
50.760        13
50.770        13
50.780        40
50.790        40
50.800         0
50.810         0
50.820        53
50.830        13
50.840        53
50.850        40
50.860        40
50.870        53
50.880        53
50.890        40
50.900        40
50.910        13
50.920        40
50.930        53
50.940         0
50.950        53
50.960        53
50.970         0
50.980        13
50.990         0
51.000         0
51.010        40
51.020        13
51.030        40
51.040         0
51.050        67
51.060        53
51.070        27
51.080         0
51.090        27
51.100        27
51.110        13
51.120        27
51.130        53
51.140        80
51.150        27
51.160        40
51.170        53
51.180         0
51.190        53
51.200        40
51.210        53
51.220        40
51.230        27
51.240        27
51.250        40
51.260        53
51.270        27
51.280        27
51.290        27
51.300        13
51.310        27
51.320        13
51.330        27
51.340        27
51.350        67
51.360         0
51.370        13
51.380        13
51.390        27
51.400        40
51.410        27
51.420        13
51.430        27
51.440        93
51.450        13
51.460        40
51.470        27
51.480        40
51.490        53
51.500        13
51.510        13
51.520        80
51.530        27
51.540        27
51.550        27
51.560        13
51.570        27
51.580        27
51.590        53
51.600        40
51.610        40
51.620        13
51.630        13
51.640        53
51.650         0
51.660        13
51.670        40
51.680        53
51.690        40
51.700        13
51.710        13
51.720        13
51.730        13
51.740        53
51.750        13
51.760         0
51.770        53
51.780        13
51.790        13
51.800        27
51.810         0
51.820        27
51.830        27
51.840        40
51.850        40
51.860        13
51.870        13
51.880        80
51.890        13
51.900        27
51.910        67
51.920        27
51.930        40
51.940        27
51.950        13
51.960        13
51.970         0
51.980        13
51.990        13
52.000        40
52.010        27
52.020         0
52.030        53
52.040        13
52.050        67
52.060        13
52.070         0
52.080        13
52.090        27
52.100        40
52.110        27
52.120        40
52.130        27
52.140        13
52.150        27
52.160         0
52.170        27
52.180        40
52.190        27
52.200        27
52.210        27
52.220        67
52.230        53
52.240        27
52.250        80
52.260         0
52.270        13
52.280        40
52.290        40
52.300        40
52.310        40
52.320        27
52.330        13
52.340        40
52.350        40
52.360        53
52.370        13
52.380        80
52.390         0
52.400        40
52.410        27
52.420        27
52.430        53
52.440        27
52.450        53
52.460        53
52.470        40
52.480        27
52.490         0
52.500        53
52.510        13
52.520        27
52.530        40
52.540         0
52.550        40
52.560        40
52.570        40
52.580        67
52.590        13
52.600        40
52.610        27
52.620        53
52.630        53
52.640        13
52.650        13
52.660        40
52.670         0
52.680        27
52.690        27
52.700        53
52.710         0
52.720        27
52.730        13
52.740        27
52.750        40
52.760        13
52.770        27
52.780        27
52.790        40
52.800        27
52.810        53
52.820         0
52.830        27
52.840        13
52.850        40
52.860        27
52.870        13
52.880        40
52.890        27
52.900         0
52.910        13
52.920        40
52.930        53
52.940        40
52.950        27
52.960        40
52.970        27
52.980        13
52.990        40
53.000        27
53.010        67
53.020        27
53.030        13
53.040         0
53.050        13
53.060        27
53.070        27
53.080        27
53.090         0
53.100        67
53.110        27
53.120        13
53.130         0
53.140        13
53.150         0
53.160        13
53.170        40
53.180        13
53.190        40
53.200        53
53.210        27
53.220        27
53.230        13
53.240        13
53.250        13
53.260        27
53.270        13
53.280        53
53.290        27
53.300        27
53.310        13
53.320        13
53.330        13
53.340        40
53.350        27
53.360        13
53.370        27
53.380        27
53.390        40
53.400        53
53.410        13
53.420        40
53.430        40
53.440         0
53.450        13
53.460        40
53.470        27
53.480        27
53.490        27
53.500        40
53.510        27
53.520        13
53.530        13
53.540        27
53.550        40
53.560        13
53.570        13
53.580        27
53.590        27
53.600         0
53.610         0
53.620        40
53.630        40
53.640        40
53.650        13
53.660         0
53.670        13
53.680        13
53.690         0
53.700        40
53.710        13
53.720        13
53.730        27
53.740        40
53.750         0
53.760        80
53.770        40
53.780        27
53.790        13
53.800        53
53.810        13
53.820        13
53.830        13
53.840        40
53.850        27
53.860        27
53.870        13
53.880        53
53.890         0
53.900        13
53.910        27
53.920        13
53.930        13
53.940        40
53.950         0
53.960         0
53.970        27
53.980        53
53.990        27
54.000        40
54.010        27
54.020        13
54.030        67
54.040         0
54.050        13
54.060        13
54.070        53
54.080         0
54.090        13
54.100         0
54.110         0
54.120         0
54.130        13
54.140        27
54.150         0
54.160        27
54.170        13
54.180         0
54.190        27
54.200         0
54.210         0
54.220        27
54.230        13
54.240        13
54.250        80
54.260        13
54.270        53
54.280        13
54.290        13
54.300        27
54.310        53
54.320        53
54.330        13
54.340        53
54.350        40
54.360        40
54.370        40
54.380        27
54.390        13
54.400        27
54.410        13
54.420        40
54.430        27
54.440        40
54.450        40
54.460        27
54.470        27
54.480        13
54.490        27
54.500        13
54.510        13
54.520        13
54.530        53
54.540        13
54.550        13
54.560        27
54.570        27
54.580         0
54.590        27
54.600         0
54.610        13
54.620        13
54.630        40
54.640        13
54.650        67
54.660        40
54.670        27
54.680        13
54.690        40
54.700        13
54.710        27
54.720        27
54.730        40
54.740        27
54.750         0
54.760         0
54.770        27
54.780        27
54.790        13
54.800        27
54.810         0
54.820        27
54.830        13
54.840         0
54.850        13
54.860        13
54.870        13
54.880        27
54.890        27
54.900        27
54.910         0
54.920        27
54.930         0
54.940         0
54.950        40
54.960         0
54.970         0
54.980        27
54.990        13
55.000        40
55.010        13
55.020        53
55.030         0
55.040        13
55.050        13
55.060        27
55.070        40
55.080        27
55.090         0
55.100        13
55.110         0
55.120         0
55.130        40
55.140        13
55.150         0
55.160         0
55.170         0
55.180         0
55.190        13
55.200        13
55.210        40
55.220        53
55.230        40
55.240        13
55.250        13
55.260        13
55.270         0
55.280        40
55.290         0
55.300         0
55.310        27
55.320        13
55.330        13
55.340        13
55.350        27
55.360        13
55.370        13
55.380        53
55.390         0
55.400        67
55.410        13
55.420        13
55.430        13
55.440        27
55.450        13
55.460        27
55.470        40
55.480        27
55.490        13
55.500         0
55.510        13
55.520        40
55.530        13
55.540        27
55.550        13
55.560        13
55.570        27
55.580        27
55.590        13
55.600        13
55.610        13
55.620        53
55.630        13
55.640        13
55.650        13
55.660        13
55.670        13
55.680        27
55.690        53
55.700        40
55.710         0
55.720         0
55.730        27
55.740        40
55.750        13
55.760        13
55.770        13
55.780        53
55.790        27
55.800        27
55.810        40
55.820        40
55.830        13
55.840        13
55.850        13
55.860        13
55.870        13
55.880        27
55.890        13
55.900        13
55.910        67
55.920        13
55.930        27
55.940        13
55.950        27
55.960        13
55.970        27
55.980         0
55.990        40
56.000        13
56.010         0
56.020        13
56.030        13
56.040        27
56.050        27
56.060         0
56.070        13
56.080        27
56.090        13
56.100        13
56.110        13
56.120        40
56.130        27
56.140         0
56.150         0
56.160        27
56.170        67
56.180        67
56.190        53
56.200         0
56.210        13
56.220         0
56.230        27
56.240        13
56.250         0
56.260        40
56.270        27
56.280        40
56.290        27
56.300        40
56.310        13
56.320        27
56.330        40
56.340        40
56.350         0
56.360        13
56.370        27
56.380        27
56.390        27
56.400        40
56.410         0
56.420        27
56.430        13
56.440        13
56.450        27
56.460        13
56.470        13
56.480        40
56.490         0
56.500         0
56.510        40
56.520         0
56.530        40
56.540         0
56.550        27
56.560        27
56.570        13
56.580        27
56.590        40
56.600        27
56.610        40
56.620        13
56.630        13
56.640        40
56.650        40
56.660        13
56.670        27
56.680        27
56.690        13
56.700        27
56.710         0
56.720        27
56.730        27
56.740        13
56.750         0
56.760        27
56.770        13
56.780        53
56.790         0
56.800         0
56.810         0
56.820        40
56.830        13
56.840        13
56.850        40
56.860         0
56.870         0
56.880        27
56.890        13
56.900         0
56.910        27
56.920        40
56.930        27
56.940        40
56.950        13
56.960         0
56.970         0
56.980        40
56.990         0
57.000         0
57.010        13
57.020         0
57.030        13
57.040        27
57.050         0
57.060        40
57.070        13
57.080        13
57.090        40
57.100        13
57.110         0
57.120        13
57.130        27
57.140        13
57.150        40
57.160        13
57.170         0
57.180        27
57.190        13
57.200        40
57.210        13
57.220        13
57.230        13
57.240        27
57.250        53
57.260        53
57.270        13
57.280         0
57.290        27
57.300        13
57.310        27
57.320        53
57.330        13
57.340         0
57.350        53
57.360         0
57.370        67
57.380        67
57.390        40
57.400       133
57.410        53
57.420        93
57.430        40
57.440         0
57.450        93
57.460        27
57.470        53
57.480        40
57.490        27
57.500        13
57.510       107
57.520        67
57.530       133
57.540        93
57.550       133
57.560        53
57.570        80
57.580        93
57.590       147
57.600        53
57.610       107
57.620        13
57.630       160
57.640        93
57.650        80
57.660        93
57.670        80
57.680        40
57.690        67
57.700        67
57.710        53
57.720        67
57.730        27
57.740        27
57.750        67
57.760        13
57.770        40
57.780        40
57.790        27
57.800        27
57.810        53
57.820        80
57.830        27
57.840        13
57.850        13
57.860         0
57.870        27
57.880        13
57.890        40
57.900        27
57.910        27
57.920        13
57.930        53
57.940        40
57.950        13
57.960        53
57.970        27
57.980         0
57.990         0
58.000        27
58.010        27
58.020         0
58.030        13
58.040        27
58.050        40
58.060        27
58.070         0
58.080        13
58.090         0
58.100        53
58.110        13
58.120        27
58.130        27
58.140        40
58.150        13
58.160        27
58.170        27
58.180         0
58.190        27
58.200        13
58.210        40
58.220        40
58.230        27
58.240        13
58.250        53
58.260        80
58.270        13
58.280        27
58.290         0
58.300        80
58.310         0
58.320        27
58.330        27
58.340        13
58.350        40
58.360        27
58.370         0
58.380        13
58.390        13
58.400         0
58.410        40
58.420        13
58.430         0
58.440         0
58.450        40
58.460        13
58.470        13
58.480        13
58.490         0
58.500        40
58.510        40
58.520         0
58.530        13
58.540         0
58.550        27
58.560        13
58.570         0
58.580        27
58.590        13
58.600        40
58.610        40
58.620         0
58.630        13
58.640        53
58.650         0
58.660        53
58.670        27
58.680         0
58.690         0
58.700         0
58.710        13
58.720        13
58.730         0
58.740        27
58.750        27
58.760        13
58.770        13
58.780        53
58.790        13
58.800        13
58.810        40
58.820        13
58.830         0
58.840        40
58.850        13
58.860        27
58.870        27
58.880        27
58.890        13
58.900        40
58.910        13
58.920        13
58.930        53
58.940        40
58.950        13
58.960        27
58.970        13
58.980        27
58.990        13
59.000         0
59.010         0
59.020        13
59.030        13
59.040        53
59.050         0
59.060        27
59.070        27
59.080        27
59.090         0
59.100        13
59.110        40
59.120        40
59.130        40
59.140         0
59.150        27
59.160         0
59.170        53
59.180        27
59.190         0
59.200        40
59.210        27
59.220        13
59.230         0
59.240        13
59.250        13
59.260         0
59.270        27
59.280        13
59.290        27
59.300         0
59.310         0
59.320        27
59.330        27
59.340        13
59.350         0
59.360         0
59.370         0
59.380         0
59.390        13
59.400        27
59.410        13
59.420        13
59.430         0
59.440        13
59.450        13
59.460        27
59.470        13
59.480         0
59.490        13
59.500        13
59.510        67
59.520        27
59.530         0
59.540         0
59.550        13
59.560         0
59.570        13
59.580         0
59.590        13
59.600        13
59.610        13
59.620        27
59.630        13
59.640        40
59.650        27
59.660        13
59.670        40
59.680        40
59.690        40
59.700        27
59.710        40
59.720         0
59.730        27
59.740         0
59.750         0
59.760        27
59.770        27
59.780        27
59.790        13
59.800         0
59.810        40
59.820        13
59.830        13
59.840        40
59.850         0
59.860         0
59.870         0
59.880        13
59.890        27
59.900        40
59.910         0
59.920        40
59.930        40
59.940        13
59.950        27
59.960        40
59.970        13
59.980         0
59.990        13
60.000        27
