20.000        33
20.020        50
20.040        67
20.060        47
20.080        40
20.100        50
20.120        43
20.140        43
20.160        50
20.180        50
20.200        40
20.220        47
20.240        47
20.260        33
20.280        30
20.300        73
20.320        43
20.340        57
20.360        47
20.380        40
20.400        30
20.420        50
20.440        47
20.460        53
20.480        43
20.500        57
20.520        73
20.540        30
20.560        43
20.580        47
20.600        53
20.620        27
20.640        37
20.660        40
20.680        40
20.700        33
20.720        40
20.740        47
20.760        47
20.780        37
20.800        47
20.820        40
20.840        23
20.860        57
20.880        40
20.900        47
20.920        47
20.940        50
20.960        60
20.980        43
21.000        57
21.020        47
21.040        43
21.060        43
21.080        63
21.100        47
21.120        43
21.140        67
21.160        60
21.180        30
21.200        47
21.220        47
21.240        40
21.260        37
21.280        53
21.300        43
21.320        20
21.340        20
21.360        47
21.380        43
21.400        60
21.420        60
21.440        50
21.460        60
21.480        57
21.500        43
21.520        27
21.540        37
21.560        23
21.580        33
21.600        60
21.620        47
21.640        50
21.660        30
21.680        47
21.700        40
21.720        57
21.740        47
21.760        50
21.780        47
21.800        43
21.820        30
21.840        33
21.860        40
21.880        50
21.900        30
21.920        47
21.940        23
21.960        27
21.980        33
22.000        40
22.020        50
22.040        40
22.060        40
22.080        40
22.100        50
22.120        47
22.140        37
22.160        43
22.180        40
22.200        43
22.220        53
22.240        40
22.260        40
22.280        33
22.300        30
22.320        50
22.340        37
22.360        53
22.380        47
22.400        53
22.420        40
22.440        47
22.460        40
22.480        70
22.500        37
22.520        30
22.540        53
22.560        40
22.580        57
22.600        53
22.620        43
22.640        37
22.660        53
22.680        43
22.700        57
22.720        37
22.740        40
22.760        53
22.780        37
22.800        27
22.820        47
22.840        47
22.860        53
22.880        40
22.900        33
22.920        37
22.940        63
22.960        77
22.980        37
23.000        33
23.020        53
23.040        67
23.060        47
23.080        43
23.100        30
23.120        60
23.140        37
23.160        23
23.180        23
23.200        57
23.220        43
23.240        60
23.260        33
23.280        37
23.300        37
23.320        23
23.340        30
23.360        30
23.380        53
23.400        37
23.420        33
23.440        53
23.460        40
23.480        23
23.500        27
23.520        40
23.540        47
23.560        30
23.580        33
23.600        47
23.620        47
23.640        27
23.660        47
23.680        20
23.700        37
23.720        57
23.740        30
23.760        40
23.780        50
23.800        43
23.820        27
23.840        30
23.860        43
23.880        13
23.900        40
23.920        20
23.940        37
23.960        37
23.980        33
24.000        33
24.020        33
24.040        57
24.060        40
24.080        27
24.100        37
24.120        43
24.140        23
24.160        33
24.180        27
24.200        40
24.220        37
24.240        50
24.260        40
24.280        47
24.300        43
24.320        43
24.340        27
24.360        43
24.380        37
24.400        47
24.420        37
24.440        37
24.460        60
24.480        43
24.500        30
24.520        23
24.540        23
24.560        37
24.580        30
24.600        53
24.620        23
24.640        43
24.660        27
24.680        43
24.700        43
24.720        13
24.740        33
24.760        37
24.780        20
24.800        53
24.820        27
24.840        33
24.860        47
24.880        63
24.900        23
24.920        27
24.940        43
24.960        43
24.980        40
25.000        23
25.020        47
25.040        33
25.060        30
25.080        47
25.100        30
25.120        30
25.140        30
25.160        27
25.180        43
25.200        40
25.220        30
25.240        50
25.260        27
25.280        33
25.300        37
25.320        37
25.340        37
25.360        33
25.380        30
25.400        20
25.420        43
25.440        27
25.460        27
25.480        37
25.500        30
25.520        37
25.540        47
25.560        40
25.580        93
25.600       107
25.620       100
25.640        53
25.660        73
25.680        53
25.700        33
25.720        40
25.740        33
25.760        10
25.780        30
25.800        30
25.820        43
25.840        27
25.860        30
25.880        33
25.900        47
25.920        40
25.940        13
25.960        40
25.980        30
26.000        40
26.020        43
26.040        23
26.060        43
26.080        23
26.100        27
26.120        43
26.140        43
26.160        37
26.180        57
26.200        40
26.220        40
26.240        23
26.260        47
26.280        33
26.300        33
26.320        43
26.340        27
26.360        27
26.380        27
26.400        60
26.420        33
26.440        50
26.460        47
26.480        33
26.500        37
26.520        27
26.540        43
26.560        27
26.580        17
26.600        23
26.620        30
26.640        37
26.660        23
26.680        33
26.700        47
26.720        43
26.740        50
26.760        23
26.780        30
26.800        20
26.820        27
26.840        30
26.860        13
26.880        30
26.900        27
26.920        23
26.940        10
26.960        40
26.980        37
27.000        13
27.020        30
27.040        40
27.060        30
27.080        37
27.100        10
27.120        20
27.140        20
27.160        23
27.180        33
27.200        30
27.220        30
27.240        30
27.260        40
27.280        30
27.300        33
27.320        30
27.340        27
27.360        17
27.380        17
27.400        47
27.420        57
27.440        47
27.460        43
27.480        17
27.500        27
27.520        37
27.540        20
27.560        13
27.580        57
27.600        40
27.620        33
27.640        17
27.660        23
27.680        43
27.700        43
27.720        27
27.740        43
27.760        30
27.780        30
27.800        30
27.820        50
27.840        23
27.860        33
27.880        40
27.900        30
27.920        23
27.940        33
27.960        27
27.980        23
28.000        23
28.020        23
28.040        23
28.060        23
28.080        33
28.100        23
28.120        33
28.140        30
28.160        23
28.180        27
28.200        30
28.220        43
28.240        33
28.260        27
28.280        27
28.300        40
28.320        27
28.340        17
28.360        40
28.380        33
28.400        23
28.420        30
28.440        17
28.460        40
28.480        23
28.500        23
28.520        43
28.540        50
28.560        37
28.580        40
28.600        37
28.620        20
28.640        33
28.660        47
28.680        43
28.700        10
28.720        23
28.740        33
28.760        23
28.780        33
28.800        43
28.820        30
28.840        57
28.860        27
28.880        30
28.900        37
28.920        57
28.940        43
28.960        27
28.980        30
29.000        40
29.020        17
29.040        37
29.060        13
29.080        33
29.100        37
29.120        37
29.140        30
29.160        43
29.180        27
29.200        23
29.220        27
29.240        33
29.260        30
29.280        27
29.300        47
29.320        37
29.340        23
29.360        10
29.380        43
29.400        30
29.420        17
29.440        33
29.460        47
29.480        33
29.500        27
29.520        30
29.540        47
29.560        57
29.580        20
29.600        20
29.620        37
29.640        30
29.660        47
29.680        43
29.700        60
29.720        23
29.740        40
29.760        20
29.780        77
29.800        37
29.820        30
29.840        20
29.860        27
29.880        20
29.900        20
29.920        17
29.940        23
29.960        27
29.980        53
30.000        33
30.020        43
30.040        50
30.060        37
30.080        37
30.100        30
30.120        17
30.140        23
30.160        17
30.180        33
30.200        53
30.220        43
30.240        27
30.260        30
30.280        23
30.300        37
30.320        27
30.340        37
30.360        23
30.380        20
30.400        37
30.420        33
30.440        30
30.460        23
30.480        40
30.500        40
30.520        17
30.540        53
30.560        53
30.580        40
30.600        30
30.620        17
30.640        37
30.660        47
30.680        30
30.700        47
30.720        40
30.740        37
30.760        33
30.780        43
30.800        47
30.820        43
30.840        57
30.860        50
30.880        53
30.900        40
30.920        37
30.940        43
30.960        23
30.980        50
31.000        47
31.020        43
31.040        47
31.060        57
31.080        73
31.100        33
31.120        67
31.140        60
31.160        77
31.180        57
31.200        40
31.220        50
31.240        57
31.260        90
31.280        63
31.300       100
31.320        90
31.340       113
31.360        97
31.380       117
31.400       130
31.420       127
31.440       123
31.460       207
31.480       170
31.500       157
31.520       187
31.540       280
31.560       290
31.580       227
31.600       307
31.620       357
31.640       330
31.660       400
31.680       403
31.700       460
31.720       463
31.740       506
31.760       533
31.780       450
31.800       606
31.820       530
31.840       593
31.860       636
31.880       550
31.900       616
31.920       610
31.940       533
31.960       536
31.980       573
32.000       610
32.020       453
32.040       593
32.060       513
32.080       463
32.100       460
32.120       400
32.140       453
32.160       380
32.180       323
32.200       317
32.220       303
32.240       250
32.260       233
32.280       210
32.300       277
32.320       257
32.340       287
32.360       220
32.380       190
32.400       190
32.420       190
32.440       187
32.460       157
32.480       163
32.500       170
32.520       137
32.540       100
32.560       113
32.580       143
32.600       120
32.620        93
32.640       127
32.660        73
32.680       103
32.700        73
32.720        87
32.740       103
32.760        90
32.780        93
32.800        83
32.820       100
32.840        80
32.860        67
32.880        53
32.900        67
32.920        43
32.940        43
32.960        57
32.980        87
33.000        73
33.020        70
33.040        67
33.060        43
33.080        53
33.100        40
33.120        73
33.140        63
33.160        37
33.180        47
33.200        60
33.220        43
33.240        27
33.260        23
33.280        37
33.300        33
33.320        60
33.340        13
33.360        37
33.380        53
33.400        43
33.420        40
33.440        23
33.460        53
33.480        40
33.500        37
33.520        27
33.540        67
33.560        30
33.580        43
33.600        30
33.620        60
33.640        23
33.660        27
33.680        37
33.700        27
33.720        37
33.740        20
33.760        40
33.780        57
33.800        23
33.820        37
33.840        60
33.860        30
33.880        33
33.900        47
33.920        40
33.940        37
33.960        33
33.980        43
34.000        43
34.020        27
34.040        43
34.060        37
34.080        33
34.100        33
34.120        27
34.140        27
34.160        37
34.180        33
34.200        40
34.220        37
34.240        43
34.260        40
34.280        23
34.300        33
34.320         7
34.340        40
34.360        40
34.380        33
34.400        37
34.420        33
34.440        20
34.460        20
34.480        37
34.500        33
34.520        37
34.540        13
34.560        33
34.580        47
34.600        17
34.620        37
34.640        17
34.660        20
34.680        43
34.700        37
34.720        20
34.740        47
34.760        40
34.780        43
34.800        40
34.820        20
34.840        37
34.860        17
34.880        27
34.900        30
34.920        50
34.940        90
34.960        67
34.980        50
35.000        33
35.020        67
35.040        33
35.060        60
35.080        20
35.100        60
35.120        50
35.140        80
35.160       100
35.180       130
35.200       113
35.220        93
35.240        87
35.260       117
35.280        80
35.300        87
35.320        30
35.340        17
35.360        30
35.380        43
35.400        27
35.420        37
35.440        30
35.460        23
35.480        27
35.500        27
35.520        17
35.540        23
35.560        37
35.580        37
35.600        33
35.620        13
35.640        30
35.660        30
35.680        30
35.700        37
35.720        30
35.740        23
35.760        40
35.780        17
35.800        23
35.820        53
35.840        20
35.860        37
35.880        27
35.900        23
35.920        33
35.940        30
35.960        23
35.980        33
36.000        20
36.020        33
36.040        13
36.060        30
36.080        20
36.100        33
36.120        13
36.140        40
36.160        20
36.180        27
36.200        30
36.220        50
36.240        13
36.260        20
36.280        30
36.300        27
36.320        27
36.340        40
36.360        20
36.380        27
36.400        27
36.420        17
36.440        37
36.460        33
36.480        20
36.500        30
36.520        23
36.540        20
36.560        37
36.580        13
36.600        20
36.620        40
36.640        20
36.660        30
36.680        23
36.700        17
36.720        53
36.740        37
36.760        17
36.780        30
36.800        27
36.820        30
36.840        27
36.860        23
36.880        33
36.900        43
36.920        30
36.940        30
36.960        43
36.980        53
37.000        20
37.020        27
37.040        33
37.060        40
37.080        27
37.100        30
37.120        30
37.140        40
37.160        43
37.180        20
37.200        23
37.220        63
37.240        20
37.260        30
37.280        20
37.300        43
37.320        47
37.340        20
37.360         7
37.380        50
37.400        23
37.420        23
37.440        27
37.460        10
37.480        23
37.500        37
37.520        27
37.540        37
37.560        30
37.580        20
37.600        33
37.620        20
37.640        33
37.660        27
37.680        20
37.700        17
37.720        43
37.740        23
37.760        53
37.780        60
37.800        50
37.820        30
37.840        20
37.860        17
37.880        33
37.900        47
37.920        43
37.940        17
37.960        40
37.980        27
38.000        33
38.020        30
38.040        27
38.060        20
38.080        33
38.100        33
38.120        20
38.140        13
38.160        23
38.180        17
38.200        37
38.220        30
38.240        33
38.260        20
38.280        50
38.300        27
38.320        43
38.340        10
38.360        23
38.380        10
38.400        30
38.420        33
38.440        23
38.460        20
38.480        20
38.500        20
38.520        27
38.540        33
38.560        37
38.580        13
38.600        20
38.620        27
38.640        20
38.660        33
38.680        17
38.700        20
38.720        30
38.740        27
38.760        27
38.780        10
38.800        23
38.820        23
38.840        10
38.860        30
38.880        37
38.900        20
38.920        60
38.940        30
38.960        33
38.980        37
39.000        50
39.020        20
39.040        20
39.060        30
39.080        20
39.100        43
39.120        17
39.140        27
39.160        43
39.180        13
39.200        40
39.220        30
39.240        23
39.260        27
39.280        23
39.300        27
39.320        23
39.340        20
39.360        33
39.380        33
39.400        23
39.420        20
39.440        30
39.460        37
39.480        30
39.500        20
39.520        30
39.540        37
39.560        43
39.580        33
39.600        30
39.620        27
39.640        30
39.660        20
39.680        33
39.700        20
39.720        27
39.740        37
39.760        40
39.780        27
39.800        37
39.820        27
39.840        50
39.860        17
39.880        27
39.900        30
39.920        20
39.940        30
39.960        47
39.980        30
40.000        30
40.020        33
40.040        20
40.060        23
40.080        23
40.100        27
40.120        23
40.140        23
40.160        33
40.180        20
40.200        27
40.220        27
40.240        23
40.260        37
40.280        13
40.300        43
40.320        30
40.340        17
40.360        17
40.380        30
40.400        17
40.420        30
40.440        20
40.460        27
40.480        30
40.500        17
40.520        27
40.540        20
40.560        13
40.580        23
40.600        13
40.620        27
40.640        27
40.660        33
40.680        23
40.700        23
40.720        33
40.740        23
40.760        23
40.780        37
40.800        27
40.820        30
40.840        40
40.860        47
40.880        30
40.900        23
40.920        17
40.940        33
40.960        20
40.980        27
41.000        20
41.020        17
41.040        30
41.060        17
41.080        17
41.100        37
41.120        27
41.140        27
41.160        17
41.180        20
41.200        13
41.220        27
41.240        23
41.260        20
41.280        27
41.300        37
41.320        23
41.340        13
41.360        17
41.380        27
41.400        20
41.420        30
41.440        63
41.460        33
41.480        30
41.500        37
41.520        33
41.540        27
41.560        47
41.580        37
41.600        70
41.620       103
41.640       147
41.660       173
41.680       203
41.700       230
41.720       200
41.740       190
41.760       160
41.780        93
41.800       130
41.820       107
41.840        97
41.860        57
41.880        43
41.900        50
41.920        70
41.940        17
41.960        27
41.980        23
42.000        13
42.020        23
42.040        37
42.060        23
42.080        40
42.100        33
42.120        30
42.140        10
42.160        23
42.180        40
42.200        40
42.220        43
42.240        20
42.260        37
42.280        17
42.300        23
42.320        13
42.340        37
42.360        27
42.380        20
42.400        37
42.420        10
42.440        17
42.460        17
42.480        30
42.500        40
42.520        20
42.540        33
42.560        30
42.580        43
42.600        37
42.620        33
42.640        13
42.660        17
42.680        30
42.700        23
42.720        40
42.740        20
42.760        27
42.780        33
42.800        10
42.820        30
42.840        10
42.860        23
42.880        17
42.900        20
42.920        17
42.940        23
42.960        67
42.980        37
43.000        27
43.020        33
43.040        37
43.060        33
43.080        23
43.100        40
43.120        50
43.140        43
43.160        50
43.180        20
43.200        20
43.220        33
43.240        27
43.260        23
43.280        23
43.300        27
43.320        57
43.340        57
43.360        73
43.380        90
43.400        60
43.420        60
43.440        63
43.460        63
43.480        53
43.500        80
43.520        57
43.540        57
43.560        37
43.580        17
43.600        23
43.620        20
43.640        27
43.660        43
43.680        30
43.700        27
43.720        30
43.740        20
43.760        10
43.780        20
43.800        17
43.820        33
43.840        13
43.860        40
43.880        33
43.900        33
43.920        23
43.940        10
43.960        40
43.980        40
44.000        27
44.020        23
44.040        40
44.060        17
44.080        17
44.100        10
44.120        37
44.140        40
44.160        20
44.180        37
44.200        33
44.220        33
44.240        23
44.260        27
44.280        47
44.300        30
44.320        43
44.340        27
44.360        30
44.380        43
44.400        20
44.420        70
44.440        47
44.460        33
44.480        30
44.500        23
44.520        67
44.540        40
44.560        40
44.580        30
44.600        23
44.620        53
44.640        17
44.660        33
44.680        53
44.700        23
44.720        53
44.740        37
44.760        47
44.780        40
44.800        40
44.820        43
44.840        63
44.860        37
44.880        47
44.900        97
44.920        40
44.940        77
44.960        77
44.980        80
45.000        87
45.020        67
45.040        77
45.060        70
45.080        57
45.100        73
45.120        57
45.140        93
45.160        73
45.180        77
45.200        80
45.220        87
45.240        67
45.260       100
45.280        93
45.300       110
45.320        73
45.340        57
45.360        60
45.380        90
45.400        90
45.420        90
45.440        83
45.460       110
45.480       130
45.500        83
45.520       117
45.540       100
45.560        77
45.580        67
45.600        80
45.620        77
45.640        77
45.660        97
45.680       103
45.700        80
45.720        87
45.740        63
45.760       100
45.780        73
45.800       100
45.820        63
45.840        67
45.860       110
45.880        77
45.900        53
45.920        57
45.940        77
45.960       100
45.980        63
46.000        40
46.020        70
46.040        47
46.060        53
46.080        57
46.100        67
46.120        67
46.140        57
46.160        77
46.180        47
46.200        37
46.220        43
46.240        57
46.260        57
46.280        67
46.300        70
46.320        53
46.340        60
46.360        60
46.380        63
46.400        33
46.420        60
46.440        33
46.460        60
46.480        37
46.500        50
46.520        57
46.540        47
46.560        27
46.580        43
46.600        37
46.620        37
46.640        43
46.660        43
46.680        70
46.700        27
46.720        23
46.740        40
46.760        33
46.780        40
46.800        23
46.820        27
46.840        30
46.860        33
46.880        33
46.900        40
46.920        17
46.940        27
46.960        43
46.980        27
47.000        53
47.020        27
47.040        23
47.060        23
47.080        23
47.100        33
47.120        50
47.140        30
47.160        33
47.180        37
47.200        30
47.220        27
47.240        23
47.260        27
47.280        30
47.300        23
47.320        30
47.340        20
47.360        17
47.380        23
47.400        33
47.420        30
47.440        30
47.460        20
47.480        10
47.500        30
47.520        30
47.540        33
47.560        30
47.580        30
47.600        27
47.620        20
47.640        10
47.660        23
47.680        17
47.700        43
47.720        33
47.740        33
47.760        33
47.780        37
47.800        27
47.820        20
47.840        13
47.860        20
47.880        17
47.900        20
47.920        17
47.940        27
47.960        33
47.980        20
48.000        37
48.020        13
48.040        33
48.060        17
48.080        20
48.100        43
48.120        27
48.140        17
48.160        13
48.180        10
48.200        37
48.220        57
48.240        17
48.260        20
48.280        33
48.300        30
48.320        30
48.340        30
48.360        13
48.380        30
48.400        43
48.420        10
48.440        13
48.460        30
48.480        20
48.500        20
48.520        43
48.540        23
48.560        10
48.580        10
48.600        30
48.620        43
48.640        20
48.660        30
48.680        17
48.700        23
48.720        13
48.740        43
48.760        27
48.780        23
48.800        23
48.820        17
48.840        13
48.860        27
48.880        13
48.900        13
48.920        10
48.940        20
48.960        20
48.980        23
49.000        20
49.020        33
49.040        20
49.060        27
49.080        30
49.100        13
49.120         3
49.140        17
49.160        30
49.180        20
49.200        13
49.220        20
49.240        20
49.260        27
49.280        10
49.300        23
49.320        17
49.340        10
49.360        17
49.380        23
49.400         7
49.420        17
49.440        20
49.460        17
49.480        30
49.500        17
49.520         7
49.540        13
49.560        20
49.580        40
49.600        27
49.620        13
49.640        23
49.660        17
49.680        13
49.700        17
49.720        20
49.740        17
49.760        10
49.780        20
49.800        27
49.820        17
49.840        30
49.860        17
49.880        27
49.900        13
49.920         7
49.940        27
49.960        10
49.980        13
50.000         7
50.020        10
50.040        20
50.060        33
50.080        20
50.100        23
50.120        10
50.140        30
50.160        27
50.180        20
50.200         7
50.220         7
50.240        20
50.260        13
50.280         7
50.300        33
50.320        17
50.340        30
50.360        27
50.380        17
50.400        10
50.420        30
50.440        17
50.460        23
50.480        13
50.500        37
50.520        13
50.540        30
50.560         7
50.580        37
50.600         7
50.620        20
50.640        20
50.660        17
50.680        23
50.700        17
50.720         7
50.740        17
50.760        33
50.780        20
50.800        17
50.820        30
50.840        13
50.860        10
50.880        27
50.900        33
50.920        17
50.940        23
50.960        27
50.980        10
51.000        23
51.020        23
51.040         3
51.060        13
51.080        17
51.100        17
51.120        20
51.140        30
51.160        30
51.180        43
51.200        17
51.220        33
51.240        23
51.260        13
51.280        17
51.300        20
51.320        10
51.340        20
51.360         7
51.380        17
51.400        43
51.420         3
51.440        20
51.460        20
51.480        10
51.500        13
51.520        13
51.540        23
51.560         3
51.580        23
51.600        13
51.620        20
51.640        13
51.660        17
51.680        10
51.700        17
51.720        27
51.740        10
51.760        20
51.780        17
51.800        13
51.820        23
51.840        20
51.860        13
51.880        17
51.900        30
51.920        20
51.940        17
51.960         7
51.980        13
52.000        13
52.020        10
52.040        27
52.060        23
52.080         3
52.100        20
52.120        10
52.140        13
52.160        33
52.180        23
52.200        23
52.220        27
52.240        20
52.260        13
52.280        17
52.300        17
52.320        30
52.340        23
52.360        23
52.380        13
52.400        10
52.420        30
52.440        17
52.460        13
52.480        33
52.500        23
52.520        37
52.540        37
52.560        20
52.580        57
52.600        60
52.620       107
52.640        70
52.660        43
52.680        30
52.700        67
52.720        23
52.740        67
52.760        50
52.780        57
52.800        57
52.820        43
52.840        20
52.860        23
52.880        40
52.900        20
52.920        17
52.940        10
52.960        17
52.980        27
53.000        17
53.020        17
53.040        30
53.060        13
53.080        27
53.100        10
53.120        23
53.140        23
53.160        30
53.180        23
53.200        23
53.220        23
53.240        10
53.260        33
53.280        33
53.300        20
53.320         7
53.340        27
53.360        17
53.380        20
53.400        10
53.420        20
53.440        27
53.460        10
53.480        23
53.500        17
53.520        13
53.540        33
53.560        23
53.580        17
53.600        10
53.620        33
53.640        23
53.660        10
53.680        13
53.700         3
53.720        13
53.740        13
53.760        23
53.780        20
53.800        17
53.820        10
53.840        17
53.860        13
53.880        10
53.900        23
53.920        10
53.940        20
53.960        17
53.980        20
54.000        13
54.020         7
54.040        20
54.060        10
54.080        20
54.100        17
54.120        10
54.140        20
54.160         0
54.180        20
54.200        23
54.220        10
54.240        13
54.260        17
54.280        23
54.300        23
54.320        27
54.340        27
54.360        13
54.380        10
54.400        30
54.420        27
54.440        17
54.460        20
54.480        20
54.500        30
54.520        20
54.540        10
54.560        20
54.580        37
54.600        33
54.620         7
54.640        17
54.660        13
54.680        27
54.700        30
54.720        27
54.740        23
54.760        13
54.780        17
54.800        17
54.820        37
54.840        13
54.860        17
54.880        20
54.900        13
54.920        30
54.940        23
54.960        23
54.980         7
55.000        17
55.020        20
55.040        13
55.060        13
55.080        30
55.100        13
55.120        23
55.140        33
55.160        27
55.180        13
55.200        13
55.220        17
55.240        13
55.260        13
55.280        23
55.300        33
55.320        17
55.340        10
55.360        13
55.380         7
55.400        17
55.420        17
55.440        17
55.460        23
55.480        10
55.500        13
55.520        17
55.540        23
55.560        13
55.580        27
55.600        20
55.620        13
55.640        20
55.660        23
55.680        23
55.700        13
55.720        13
55.740        27
55.760        30
55.780        33
55.800        20
55.820        13
55.840        17
55.860        27
55.880        23
55.900        17
55.920        23
55.940        13
55.960        23
55.980         7
56.000        20
56.020        23
56.040        13
56.060        17
56.080        13
56.100        17
56.120        20
56.140        20
56.160        13
56.180        10
56.200        10
56.220        30
56.240        30
56.260        17
56.280        40
56.300        17
56.320        23
56.340        13
56.360        13
56.380        33
56.400        17
56.420        43
56.440        33
56.460        27
56.480        17
56.500        20
56.520        47
56.540        33
56.560        23
56.580        37
56.600        23
56.620        10
56.640        30
56.660        20
56.680        33
56.700        20
56.720        30
56.740        27
56.760        40
56.780        17
56.800        30
56.820        20
56.840        23
56.860        37
56.880        27
56.900        33
56.920        33
56.940        13
56.960        30
56.980        23
57.000        20
57.020        30
57.040        20
57.060        20
57.080        27
57.100        50
57.120        23
57.140        30
57.160        20
57.180        33
57.200        53
57.220        43
57.240        47
57.260        33
57.280        23
57.300        17
57.320        10
57.340        23
57.360        43
57.380        43
57.400        63
57.420        47
57.440        70
57.460       110
57.480       107
57.500        93
57.520        97
57.540        83
57.560        93
57.580        40
57.600       100
57.620        53
57.640        63
57.660        40
57.680        57
57.700        53
57.720        60
57.740        37
57.760        60
57.780        23
57.800        30
57.820        30
57.840        37
57.860        23
57.880        43
57.900        27
57.920        17
57.940        30
57.960        33
57.980        20
58.000        13
58.020        20
58.040        33
58.060        17
58.080        20
58.100        23
58.120        30
58.140        10
58.160        23
58.180        17
58.200        17
58.220        30
58.240        27
58.260        10
58.280        17
58.300        33
58.320         7
58.340         7
58.360        13
58.380        23
58.400        13
58.420        23
58.440        27
58.460         3
58.480        13
58.500        20
58.520         7
58.540        20
58.560        17
58.580        23
58.600         3
58.620        20
58.640        13
58.660         7
58.680        20
58.700        10
58.720        10
58.740        17
58.760        23
58.780        37
58.800        13
58.820        33
58.840         3
58.860        30
58.880        20
58.900        10
58.920        17
58.940        23
58.960         7
58.980        10
59.000        10
59.020        20
59.040        23
59.060        17
59.080        27
59.100        13
59.120        17
59.140        13
59.160        10
59.180         7
59.200        23
59.220        17
59.240        20
59.260        23
59.280        23
59.300        20
59.320        23
59.340        17
59.360        23
59.380        20
59.400        50
59.420        10
59.440        20
59.460        27
59.480         7
59.500        17
59.520        17
59.540        33
59.560        27
59.580        13
59.600        23
59.620        27
59.640        17
59.660        30
59.680        17
59.700        30
59.720        20
59.740        10
59.760        10
59.780        23
59.800        30
59.820        17
59.840        23
59.860        27
59.880        13
59.900        13
59.920        13
59.940        27
59.960        13
59.980        27
60.000        27
