20.000        47
20.020        47
20.040        27
20.060        43
20.080        43
20.100        53
20.120        50
20.140        37
20.160        43
20.180        50
20.200        23
20.220        27
20.240        50
20.260        50
20.280        50
20.300        63
20.320        30
20.340        40
20.360        27
20.380        93
20.400        37
20.420        60
20.440        47
20.460        50
20.480        47
20.500        53
20.520        33
20.540        37
20.560        40
20.580        60
20.600        80
20.620        50
20.640        33
20.660        67
20.680        70
20.700        40
20.720        30
20.740        40
20.760        50
20.780        53
20.800        40
20.820        33
20.840        37
20.860        43
20.880        50
20.900        50
20.920        47
20.940        40
20.960        37
20.980        33
21.000        50
21.020        43
21.040        63
21.060        30
21.080        53
21.100        47
21.120        27
21.140        33
21.160        80
21.180        47
21.200        37
21.220        47
21.240        43
21.260        40
21.280        70
21.300        40
21.320        50
21.340        40
21.360        43
21.380        57
21.400        53
21.420        50
21.440        50
21.460        43
21.480        40
21.500        40
21.520        23
21.540        70
21.560        47
21.580        50
21.600        27
21.620        37
21.640        50
21.660        57
21.680        40
21.700        47
21.720        57
21.740        37
21.760        37
21.780        40
21.800        33
21.820        30
21.840        43
21.860        23
21.880        63
21.900        47
21.920        33
21.940        47
21.960        53
21.980        30
22.000        40
22.020        40
22.040        37
22.060        43
22.080        70
22.100        57
22.120        67
22.140        40
22.160        40
22.180        63
22.200        60
22.220        50
22.240        50
22.260        47
22.280        67
22.300        50
22.320        63
22.340        47
22.360        60
22.380        83
22.400        77
22.420        53
22.440        90
22.460        97
22.480       100
22.500       120
22.520       130
22.540       180
22.560       170
22.580       300
22.600       270
22.620       357
22.640       360
22.660       357
22.680       363
22.700       423
22.720       400
22.740       383
22.760       373
22.780       267
22.800       260
22.820       273
22.840       227
22.860       250
22.880       203
22.900       167
22.920       107
22.940       157
22.960       143
22.980       133
23.000        87
23.020        97
23.040        83
23.060        97
23.080        63
23.100       117
23.120        77
23.140        90
23.160        73
23.180        60
23.200        73
23.220        87
23.240        60
23.260        63
23.280        63
23.300        37
23.320        50
23.340        63
23.360        43
23.380        43
23.400        60
23.420        40
23.440        37
23.460        53
23.480        53
23.500        50
23.520        83
23.540        50
23.560        33
23.580        27
23.600        50
23.620        53
23.640        70
23.660        43
23.680        33
23.700        37
23.720        43
23.740        53
23.760        67
23.780        57
23.800        37
23.820        40
23.840        57
23.860        43
23.880        43
23.900        47
23.920        50
23.940        37
23.960        23
23.980        57
24.000        53
24.020        50
24.040        50
24.060        40
24.080        57
24.100        50
24.120        43
24.140        37
24.160        43
24.180        37
24.200        37
24.220        47
24.240        53
24.260        57
24.280        50
24.300        30
24.320        23
24.340        27
24.360        57
24.380        50
24.400        27
24.420        37
24.440        30
24.460        43
24.480        40
24.500        40
24.520        33
24.540        37
24.560        43
24.580        47
24.600        53
24.620        40
24.640        43
24.660        33
24.680        47
24.700        53
24.720        57
24.740        30
24.760        20
24.780        37
24.800        53
24.820        37
24.840        50
24.860        67
24.880        67
24.900        57
24.920        43
24.940        57
24.960        33
24.980        53
25.000        50
25.020        43
25.040        40
25.060        53
25.080        20
25.100        23
25.120        47
25.140        40
25.160        43
25.180        60
25.200        40
25.220        53
25.240        63
25.260        60
25.280        40
25.300        30
25.320        57
25.340        33
25.360        33
25.380        43
25.400        23
25.420        50
25.440        50
25.460        57
25.480        37
25.500        43
25.520        40
25.540        40
25.560        23
25.580        37
25.600        63
25.620        10
25.640        27
25.660        30
25.680        43
25.700        53
25.720        33
25.740        37
25.760        33
25.780        17
25.800        60
25.820        47
25.840        27
25.860        57
25.880        37
25.900        40
25.920        40
25.940        47
25.960        33
25.980        57
26.000        27
26.020        43
26.040        50
26.060        47
26.080        33
26.100        30
26.120        27
26.140        23
26.160        37
26.180        53
26.200        30
26.220        40
26.240        50
26.260        60
26.280        33
26.300        30
26.320        33
26.340        37
26.360        13
26.380        43
26.400        20
26.420        50
26.440        47
26.460        23
26.480        43
26.500        37
26.520        50
26.540        37
26.560        30
26.580        47
26.600        33
26.620        53
26.640        50
26.660        23
26.680        37
26.700        33
26.720        40
26.740        30
26.760        43
26.780        27
26.800        33
26.820        30
26.840        53
26.860        23
26.880        37
26.900        37
26.920        43
26.940        47
26.960        27
26.980        40
27.000        30
27.020        27
27.040        40
27.060        30
27.080        27
27.100        23
27.120        33
27.140        27
27.160        37
27.180        33
27.200        47
27.220        43
27.240        30
27.260        30
27.280        33
27.300        30
27.320        30
27.340        33
27.360        63
27.380        40
27.400        40
27.420        57
27.440        23
27.460        60
27.480        40
27.500        40
27.520        20
27.540        53
27.560        33
27.580        27
27.600        33
27.620        30
27.640        37
27.660        13
27.680        37
27.700        40
27.720        20
27.740        47
27.760        30
27.780        20
27.800        20
27.820        27
27.840        37
27.860        30
27.880        37
27.900        33
27.920        37
27.940        30
27.960        23
27.980        43
28.000        57
28.020        23
28.040        13
28.060        33
28.080        23
28.100        40
28.120        13
28.140        37
28.160        43
28.180        27
28.200        37
28.220        53
28.240        37
28.260        17
28.280        17
28.300        23
28.320        37
28.340        33
28.360        23
28.380        30
28.400        30
28.420        53
28.440        27
28.460        40
28.480        13
28.500        37
28.520        33
28.540        17
28.560        37
28.580        17
28.600        20
28.620        50
28.640        30
28.660        37
28.680        23
28.700        30
28.720        20
28.740        30
28.760        37
28.780        43
28.800        40
28.820        17
28.840        40
28.860        33
28.880        20
28.900        27
28.920        27
28.940        27
28.960        30
28.980        43
29.000        23
29.020        37
29.040        30
29.060        30
29.080        23
29.100        37
29.120        33
29.140        50
29.160        43
29.180        33
29.200        43
29.220        50
29.240        37
29.260        70
29.280        43
29.300        67
29.320        40
29.340        53
29.360        73
29.380        70
29.400        53
29.420        77
29.440        60
29.460        67
29.480        30
29.500        37
29.520        40
29.540        40
29.560        47
29.580        47
29.600        33
29.620        33
29.640        20
29.660        27
29.680        20
29.700        20
29.720        37
29.740        33
29.760        17
29.780        33
29.800        27
29.820        23
29.840        30
29.860        33
29.880        23
29.900        33
29.920        27
29.940        27
29.960        43
29.980        33
30.000        27
30.020        40
30.040        43
30.060        30
30.080        40
30.100        37
30.120        33
30.140        33
30.160        43
30.180        23
30.200        10
30.220        30
30.240        23
30.260        27
30.280        33
30.300        47
30.320        27
30.340        30
30.360        30
30.380        13
30.400        23
30.420        23
30.440        20
30.460        40
30.480        23
30.500        17
30.520        33
30.540        20
30.560        27
30.580        33
30.600        23
30.620        20
30.640        23
30.660        33
30.680        17
30.700        13
30.720        53
30.740        13
30.760        40
30.780        20
30.800        30
30.820        40
30.840        33
30.860        17
30.880        20
30.900        10
30.920        13
30.940        30
30.960        20
30.980        17
31.000        47
31.020        27
31.040        40
31.060        23
31.080        23
31.100        33
31.120        33
31.140        10
31.160        20
31.180        30
31.200        27
31.220        37
31.240        43
31.260        27
31.280        20
31.300        17
31.320        30
31.340        20
31.360        20
31.380        27
31.400        20
31.420        27
31.440        53
31.460        33
31.480        13
31.500        27
31.520         7
31.540        23
31.560        37
31.580        27
31.600        40
31.620        40
31.640        33
31.660        23
31.680        20
31.700        43
31.720        47
31.740        33
31.760        47
31.780        13
31.800        20
31.820        30
31.840        23
31.860        40
31.880        53
31.900        40
31.920        30
31.940        23
31.960        33
31.980        30
32.000        20
32.020        33
32.040        27
32.060        47
32.080        30
32.100        27
32.120        27
32.140        63
32.160        43
32.180        40
32.200        40
32.220        37
32.240        57
32.260        60
32.280        47
32.300        80
32.320        63
32.340        63
32.360        80
32.380        67
32.400        97
32.420        90
32.440        93
32.460        97
32.480       130
32.500        67
32.520       123
32.540        67
32.560        97
32.580       133
32.600        93
32.620        73
32.640        60
32.660        63
32.680        40
32.700        50
32.720        67
32.740        40
32.760        40
32.780        47
32.800        57
32.820        40
32.840        13
32.860        53
32.880        17
32.900        37
32.920        37
32.940        33
32.960        30
32.980        37
33.000        33
33.020        23
33.040        33
33.060        20
33.080        23
33.100        33
33.120        23
33.140        33
33.160        37
33.180        30
33.200        23
33.220        43
33.240        20
33.260        20
33.280        10
33.300        20
33.320        40
33.340        33
33.360        30
33.380        30
33.400        17
33.420        30
33.440        17
33.460        23
33.480         7
33.500        47
33.520        20
33.540        23
33.560        37
33.580        23
33.600        30
33.620        20
33.640        17
33.660        20
33.680        17
33.700        27
33.720        37
33.740        37
33.760        27
33.780        17
33.800        33
33.820        37
33.840        20
33.860        23
33.880        30
33.900        27
33.920        23
33.940        23
33.960        30
33.980        33
34.000         7
34.020        30
34.040        23
34.060        20
34.080        30
34.100        27
34.120        23
34.140        23
34.160        27
34.180        27
34.200        37
34.220        23
34.240        30
34.260        50
34.280        17
34.300        23
34.320        43
34.340        17
34.360        30
34.380        27
34.400        43
34.420        30
34.440        33
34.460        27
34.480        30
34.500        43
34.520        33
34.540        50
34.560        17
34.580        30
34.600        33
34.620        33
34.640        43
34.660        23
34.680        37
34.700        50
34.720        30
34.740        53
34.760        30
34.780        53
34.800        43
34.820        17
34.840        27
34.860        43
34.880        17
34.900        30
34.920        40
34.940        27
34.960        37
34.980        63
35.000        33
35.020        43
35.040        53
35.060        57
35.080        47
35.100        27
35.120        47
35.140        30
35.160        40
35.180        37
35.200        53
35.220        60
35.240        40
35.260        67
35.280        87
35.300       110
35.320       207
35.340       393
35.360       686
35.380      1040
35.400      1539
35.420      1756
35.440      2266
35.460      2299
35.480      2239
35.500      2136
35.520      1629
35.540      1509
35.560      1359
35.580      1096
35.600       930
35.620       870
35.640       723
35.660       723
35.680       433
35.700       393
35.720       367
35.740       330
35.760       297
35.780       260
35.800       143
35.820       120
35.840        80
35.860       100
35.880        73
35.900        60
35.920       123
35.940        87
35.960        77
35.980        50
36.000        53
36.020        57
36.040        63
36.060        50
36.080        40
36.100        83
36.120        60
36.140        50
36.160        60
36.180        43
36.200        47
36.220        27
36.240        23
36.260        20
36.280        50
36.300        30
36.320        60
36.340        33
36.360        33
36.380        37
36.400        67
36.420        40
36.440        30
36.460        47
36.480        43
36.500        27
36.520        50
36.540        30
36.560        40
36.580        53
36.600        40
36.620        27
36.640        50
36.660        33
36.680        27
36.700        63
36.720        37
36.740        40
36.760        43
36.780        37
36.800        23
36.820        43
36.840        23
36.860        13
36.880        17
36.900        30
36.920        30
36.940        27
36.960        27
36.980        47
37.000        30
37.020        30
37.040        30
37.060        20
37.080        27
37.100        33
37.120        30
37.140        30
37.160        27
37.180        20
37.200        30
37.220        13
37.240        33
37.260        23
37.280        33
37.300        50
37.320        10
37.340        33
37.360        20
37.380        40
37.400        43
37.420        33
37.440        33
37.460        37
37.480        37
37.500        30
37.520        33
37.540        40
37.560        27
37.580        33
37.600        23
37.620        30
37.640        20
37.660        33
37.680        43
37.700        57
37.720        60
37.740        33
37.760        47
37.780        37
37.800        23
37.820        37
37.840        23
37.860        30
37.880        33
37.900        23
37.920        20
37.940        27
37.960        40
37.980        33
38.000        20
38.020        17
38.040        23
38.060        17
38.080        23
38.100        27
38.120        30
38.140        33
38.160        50
38.180        20
38.200        10
38.220        43
38.240        30
38.260        27
38.280        33
38.300        43
38.320        33
38.340        23
38.360        40
38.380        20
38.400        30
38.420        53
38.440        40
38.460        30
38.480        13
38.500        27
38.520        30
38.540        37
38.560        37
38.580        23
38.600        33
38.620        27
38.640        23
38.660        47
38.680        13
38.700        23
38.720        17
38.740        33
38.760        47
38.780        20
38.800        33
38.820        20
38.840        33
38.860        27
38.880        23
38.900        30
38.920        43
38.940        23
38.960        73
38.980        20
39.000        40
39.020        40
39.040        30
39.060        20
39.080        53
39.100        47
39.120        40
39.140        13
39.160        40
39.180        37
39.200        30
39.220        37
39.240        33
39.260        27
39.280        23
39.300        27
39.320        53
39.340        57
39.360        57
39.380        40
39.400        50
39.420        40
39.440        47
39.460        30
39.480        57
39.500        27
39.520        23
39.540        27
39.560        37
39.580        30
39.600        30
39.620        33
39.640        27
39.660        20
39.680        40
39.700        33
39.720        37
39.740        33
39.760        30
39.780        57
39.800        50
39.820        27
39.840        50
39.860        43
39.880        47
39.900        47
39.920        50
39.940        83
39.960        77
39.980        47
40.000        80
40.020        67
40.040        87
40.060       103
40.080        93
40.100        87
40.120       100
40.140        37
40.160        63
40.180        70
40.200        67
40.220        47
40.240        57
40.260        23
40.280        50
40.300        53
40.320        27
40.340        43
40.360        50
40.380        20
40.400        47
40.420        30
40.440        37
40.460        23
40.480        13
40.500        33
40.520        40
40.540        20
40.560        23
40.580        33
40.600        57
40.620        10
40.640        43
40.660        33
40.680        27
40.700        40
40.720        47
40.740        27
40.760        43
40.780        37
40.800        47
40.820        27
40.840        50
40.860        23
40.880        30
40.900        37
40.920        23
40.940        27
40.960        20
40.980        37
41.000        33
41.020        23
41.040        40
41.060        20
41.080        37
41.100        30
41.120        17
41.140        23
41.160        23
41.180        37
41.200        40
41.220        30
41.240        37
41.260        53
41.280        33
41.300        47
41.320        17
41.340        20
41.360        43
41.380        43
41.400        33
41.420        33
41.440        50
41.460        30
41.480        27
41.500        63
41.520        47
41.540        63
41.560        57
41.580        47
41.600        53
41.620        57
41.640        33
41.660        60
41.680        90
41.700        47
41.720        60
41.740        47
41.760        53
41.780        50
41.800        63
41.820        37
41.840        47
41.860        77
41.880        37
41.900        60
41.920        43
41.940        67
41.960        57
41.980        47
42.000        40
42.020        37
42.040        33
42.060        63
42.080        40
42.100        33
42.120        27
42.140        27
42.160        47
42.180        37
42.200        20
42.220        50
42.240        27
42.260        53
42.280        37
42.300        33
42.320        33
42.340        20
42.360        43
42.380        27
42.400        47
42.420        17
42.440        27
42.460        23
42.480        50
42.500        50
42.520        20
42.540        37
42.560        50
42.580        30
42.600        23
42.620        27
42.640        57
42.660        27
42.680        23
42.700        40
42.720        40
42.740        43
42.760        17
42.780        63
42.800        30
42.820        33
42.840        37
42.860        50
42.880        27
42.900        47
42.920        53
42.940        37
42.960        30
42.980        50
43.000        33
43.020        27
43.040        47
43.060        37
43.080        43
43.100        43
43.120        50
43.140        70
43.160        37
43.180        53
43.200        43
43.220        33
43.240        50
43.260        30
43.280        57
43.300        40
43.320        43
43.340        40
43.360        50
43.380        37
43.400        20
43.420        37
43.440        27
43.460        53
43.480        33
43.500        27
43.520        57
43.540        37
43.560        50
43.580        37
43.600        37
43.620        43
43.640        37
43.660        53
43.680        23
43.700        47
43.720        43
43.740        23
43.760        50
43.780        40
43.800        63
43.820        63
43.840        53
43.860        33
43.880        47
43.900        40
43.920        40
43.940        40
43.960        43
43.980        60
44.000        43
44.020        60
44.040        67
44.060        50
44.080        37
44.100        43
44.120        63
44.140        53
44.160        27
44.180        43
44.200        37
44.220        43
44.240        37
44.260        57
44.280        47
44.300        60
44.320        53
44.340        77
44.360        23
44.380        50
44.400        40
44.420        70
44.440        53
44.460        67
44.480        60
44.500        40
44.520        53
44.540        47
44.560        67
44.580        77
44.600        50
44.620        67
44.640        73
44.660        67
44.680        60
44.700        87
44.720        70
44.740        63
44.760        73
44.780        73
44.800        57
44.820        83
44.840        67
44.860       107
44.880        83
44.900       110
44.920        80
44.940       110
44.960        90
44.980        80
45.000        87
45.020        90
45.040       147
45.060        70
45.080        70
45.100        97
45.120       113
45.140        97
45.160       130
45.180       117
45.200        97
45.220       127
45.240       177
45.260       123
45.280       143
45.300       130
45.320       153
45.340       167
45.360       140
45.380       170
45.400       230
45.420       180
45.440       143
45.460       157
45.480       183
45.500       180
45.520       230
45.540       187
45.560       233
45.580       213
45.600       280
45.620       263
45.640       267
45.660       320
45.680       300
45.700       323
45.720       390
45.740       390
45.760       420
45.780       436
45.800       506
45.820       560
45.840       613
45.860       640
45.880       723
45.900       766
45.920       866
45.940       966
45.960      1066
45.980      1210
46.000      1263
46.020      1486
46.040      1519
46.060      1739
46.080      1983
46.100      2046
46.120      2232
46.140      2446
46.160      2689
46.180      2762
46.200      3032
46.220      3149
46.240      3299
46.260      3622
46.280      3689
46.300      4165
46.320      4022
46.340      4182
46.360      4282
46.380      4192
46.400      4078
46.420      4605
46.440      4338
46.460      4185
46.480      3918
46.500      3732
46.520      3675
46.540      3602
46.560      3245
46.580      3269
46.600      2696
46.620      2942
46.640      2702
46.660      2416
46.680      2256
46.700      2096
46.720      2029
46.740      1806
46.760      1673
46.780      1596
46.800      1563
46.820      1333
46.840      1173
46.860      1110
46.880      1093
46.900       916
46.920       876
46.940       763
46.960       790
46.980       653
47.000       640
47.020       646
47.040       496
47.060       473
47.080       473
47.100       353
47.120       407
47.140       360
47.160       397
47.180       337
47.200       290
47.220       387
47.240       360
47.260       280
47.280       223
47.300       213
47.320       207
47.340       270
47.360       217
47.380       230
47.400       233
47.420       157
47.440       207
47.460       150
47.480       187
47.500       180
47.520       123
47.540       223
47.560       163
47.580       173
47.600       107
47.620       170
47.640       113
47.660       140
47.680       163
47.700       143
47.720        97
47.740       117
47.760       127
47.780       133
47.800        93
47.820       110
47.840       140
47.860       107
47.880        93
47.900       123
47.920        87
47.940       107
47.960       107
47.980        73
48.000       100
48.020        67
48.040        83
48.060        70
48.080       137
48.100       103
48.120        63
48.140       110
48.160        87
48.180        83
48.200       127
48.220       113
48.240        73
48.260        83
48.280       103
48.300        97
48.320        97
48.340        73
48.360        83
48.380        93
48.400       110
48.420       130
48.440        90
48.460        67
48.480        93
48.500        97
48.520        97
48.540        70
48.560       107
48.580        77
48.600        70
48.620        90
48.640        80
48.660        83
48.680        73
48.700        90
48.720        83
48.740        70
48.760        97
48.780        87
48.800        73
48.820        57
48.840        63
48.860        60
48.880        53
48.900        60
48.920        60
48.940        83
48.960       113
48.980        63
49.000        43
49.020        77
49.040        47
49.060        73
49.080        87
49.100        73
49.120        83
49.140        53
49.160        73
49.180        77
49.200        63
49.220        87
49.240        77
49.260        63
49.280        63
49.300        60
49.320       110
49.340        70
49.360        63
49.380        63
49.400        57
49.420        60
49.440        43
49.460        53
49.480        57
49.500        63
49.520        43
49.540        87
49.560        70
49.580        37
49.600        37
49.620        47
49.640        80
49.660        50
49.680        80
49.700        73
49.720        80
49.740        80
49.760        57
49.780        37
49.800        60
49.820        83
49.840        87
49.860        53
49.880        93
49.900        60
49.920        73
49.940        60
49.960        47
49.980        50
50.000        70
50.020        80
50.040        60
50.060        80
50.080        37
50.100        70
50.120        67
50.140        53
50.160        63
50.180        40
50.200        70
50.220        77
50.240        73
50.260        47
50.280        53
50.300        80
50.320        70
50.340        40
50.360        67
50.380        57
50.400        70
50.420        77
50.440        77
50.460        67
50.480        90
50.500        63
50.520        50
50.540        57
50.560        53
50.580        70
50.600        27
50.620        53
50.640        63
50.660        53
50.680        47
50.700        63
50.720        83
50.740        33
50.760        70
50.780        53
50.800        53
50.820        63
50.840        70
50.860        70
50.880        37
50.900        50
50.920        53
50.940        77
50.960        63
50.980        90
51.000        63
51.020        47
51.040        87
51.060        63
51.080        47
51.100        50
51.120        53
51.140        70
51.160        70
51.180        57
51.200        53
51.220        80
51.240        67
51.260        90
51.280        50
51.300        80
51.320        23
51.340       107
51.360        47
51.380        53
51.400        47
51.420        57
51.440        33
51.460        57
51.480        50
51.500        60
51.520        60
51.540        43
51.560        70
51.580        37
51.600        37
51.620        40
51.640        57
51.660        50
51.680        80
51.700        70
51.720        47
51.740        47
51.760        43
51.780        53
51.800        50
51.820        47
51.840        50
51.860        70
51.880        47
51.900        67
51.920        53
51.940        70
51.960        47
51.980        57
52.000        40
52.020        50
52.040        43
52.060        20
52.080        73
52.100        43
52.120        60
52.140        73
52.160        40
52.180        53
52.200        30
52.220        63
52.240        70
52.260        30
52.280        57
52.300        37
52.320        50
52.340        43
52.360        63
52.380        50
52.400        50
52.420        60
52.440        53
52.460        60
52.480        47
52.500        57
52.520        57
52.540        47
52.560        67
52.580        47
52.600        70
52.620        73
52.640        57
52.660        43
52.680        60
52.700        47
52.720        57
52.740        37
52.760        53
52.780        47
52.800        33
52.820        50
52.840        47
52.860        37
52.880        47
52.900        37
52.920        57
52.940        53
52.960        47
52.980        63
53.000        40
53.020        37
53.040        37
53.060        47
53.080        43
53.100        47
53.120        70
53.140        33
53.160        40
53.180        50
53.200        57
53.220        60
53.240        33
53.260        43
53.280        33
53.300        53
53.320        67
53.340        63
53.360        40
53.380        57
53.400        47
53.420        33
53.440        53
53.460        57
53.480        50
53.500        37
53.520        53
53.540        53
53.560        50
53.580        67
53.600        50
53.620        57
53.640        50
53.660        40
53.680        40
53.700        53
53.720        83
53.740        47
53.760        53
53.780        20
53.800        70
53.820        63
53.840        50
53.860        33
53.880        63
53.900        50
53.920        33
53.940        53
53.960        70
53.980        60
54.000        60
54.020        63
54.040        57
54.060        50
54.080        73
54.100        53
54.120        73
54.140        50
54.160        40
54.180        40
54.200        57
54.220        23
54.240        60
54.260        40
54.280        57
54.300        37
54.320        50
54.340        57
54.360        70
54.380        43
54.400        43
54.420        40
54.440        30
54.460        43
54.480        60
54.500        47
54.520        50
54.540        40
54.560        60
54.580        37
54.600        57
54.620        57
54.640        53
54.660        60
54.680        97
54.700        40
54.720        63
54.740        80
54.760        30
54.780        50
54.800        77
54.820        53
54.840        83
54.860        53
54.880        43
54.900        47
54.920        53
54.940        47
54.960        50
54.980        53
55.000        47
55.020        43
55.040        57
55.060        43
55.080        60
55.100        50
55.120        43
55.140        70
55.160        47
55.180        50
55.200        77
55.220        40
55.240        33
55.260        43
55.280        40
55.300        47
55.320        73
55.340        53
55.360        53
55.380        57
55.400        47
55.420        50
55.440        53
55.460        20
55.480        43
55.500        57
55.520        33
55.540        70
55.560        30
55.580        53
55.600        40
55.620        73
55.640        50
55.660        37
55.680        80
55.700        30
55.720        70
55.740        50
55.760        77
55.780        47
55.800        73
55.820        60
55.840        40
55.860        50
55.880        40
55.900        57
55.920        40
55.940        53
55.960        50
55.980        23
56.000        47
56.020        37
56.040        47
56.060        53
56.080        50
56.100        23
56.120        37
56.140        27
56.160        70
56.180        53
56.200        53
56.220        60
56.240        27
56.260        27
56.280        33
56.300        47
56.320        53
56.340        53
56.360        37
56.380        57
56.400        67
56.420        53
56.440        57
56.460        53
56.480        77
56.500        43
56.520        83
56.540        27
56.560        13
56.580        63
56.600        53
56.620        40
56.640        70
56.660        47
56.680        70
56.700        57
56.720        53
56.740        57
56.760        33
56.780        27
56.800        30
56.820        27
56.840        43
56.860        30
56.880        60
56.900        37
56.920        40
56.940        43
56.960        53
56.980        60
57.000        37
57.020        70
57.040        23
57.060        47
57.080        67
57.100        27
57.120        60
57.140        40
57.160        33
57.180        37
57.200        50
57.220        57
57.240        67
57.260        43
57.280        43
57.300        67
57.320        40
57.340        67
57.360        43
57.380        60
57.400        63
57.420        77
57.440        60
57.460        50
57.480        40
57.500        57
57.520        60
57.540        63
57.560        43
57.580        67
57.600        50
57.620        40
57.640        33
57.660        63
57.680        27
57.700        30
57.720        47
57.740        43
57.760        40
57.780        50
57.800        33
57.820        43
57.840        53
57.860        60
57.880        50
57.900        40
57.920        47
57.940        60
57.960        43
57.980        67
58.000        47
58.020        60
58.040        40
58.060        53
58.080        60
58.100        43
58.120        53
58.140        43
58.160        60
58.180        33
58.200        50
58.220        43
58.240        43
58.260        23
58.280        70
58.300        67
58.320        53
58.340        33
58.360        43
58.380        33
58.400        57
58.420        23
58.440        50
58.460        43
58.480        47
58.500        40
58.520        73
58.540        40
58.560        27
58.580        43
58.600        57
58.620        60
58.640        20
58.660        37
58.680        53
58.700        43
58.720        30
58.740        43
58.760        30
58.780        67
58.800        23
58.820        53
58.840        40
58.860        40
58.880        73
58.900        40
58.920        40
58.940        53
58.960        30
58.980        37
59.000        37
59.020        53
59.040        33
59.060        47
59.080        50
59.100        50
59.120        40
59.140        20
59.160        40
59.180        30
59.200        30
59.220        47
59.240        17
59.260        47
59.280        43
59.300        47
59.320        43
59.340        50
59.360        37
59.380        27
59.400        57
59.420        40
59.440        47
59.460        37
59.480        37
59.500        53
59.520        73
59.540        50
59.560        37
59.580        47
59.600        53
59.620        40
59.640        27
59.660        47
59.680        40
59.700        40
59.720        63
59.740        30
59.760        47
59.780        20
59.800        27
59.820        57
59.840        47
59.860        43
59.880        57
59.900        27
59.920        67
59.940        53
59.960        47
59.980        47
60.000        60
