20.000       463
20.020       373
20.040       343
20.060       403
20.080       380
20.100       280
20.120       440
20.140       413
20.160       370
20.180       370
20.200       347
20.220       476
20.240       387
20.260       403
20.280       410
20.300       363
20.320       347
20.340       357
20.360       423
20.380       410
20.400       413
20.420       303
20.440       363
20.460       390
20.480       363
20.500       380
20.520       327
20.540       370
20.560       387
20.580       370
20.600       340
20.620       363
20.640       407
20.660       383
20.680       453
20.700       373
20.720       367
20.740       380
20.760       303
20.780       403
20.800       393
20.820       400
20.840       360
20.860       460
20.880       363
20.900       373
20.920       347
20.940       287
20.960       377
20.980       407
21.000       367
21.020       323
21.040       353
21.060       393
21.080       327
21.100       443
21.120       360
21.140       297
21.160       317
21.180       353
21.200       327
21.220       327
21.240       300
21.260       307
21.280       353
21.300       360
21.320       320
21.340       340
21.360       363
21.380       357
21.400       357
21.420       373
21.440       363
21.460       380
21.480       347
21.500       343
21.520       320
21.540       360
21.560       273
21.580       367
21.600       290
21.620       370
21.640       373
21.660       397
21.680       360
21.700       347
21.720       337
21.740       280
21.760       323
21.780       370
21.800       310
21.820       373
21.840       307
21.860       340
21.880       330
21.900       313
21.920       260
21.940       303
21.960       290
21.980       300
22.000       310
22.020       303
22.040       313
22.060       337
22.080       293
22.100       313
22.120       273
22.140       310
22.160       293
22.180       270
22.200       323
22.220       343
22.240       293
22.260       310
22.280       273
22.300       337
22.320       227
22.340       250
22.360       367
22.380       283
22.400       287
22.420       283
22.440       290
22.460       290
22.480       300
22.500       413
22.520       270
22.540       303
22.560       310
22.580       260
22.600       300
22.620       343
22.640       320
22.660       260
22.680       260
22.700       293
22.720       333
22.740       290
22.760       300
22.780       317
22.800       260
22.820       307
22.840       263
22.860       277
22.880       273
22.900       280
22.920       270
22.940       290
22.960       260
22.980       293
23.000       333
23.020       317
23.040       263
23.060       343
23.080       293
23.100       337
23.120       337
23.140       333
23.160       353
23.180       310
23.200       290
23.220       300
23.240       310
23.260       300
23.280       343
23.300       293
23.320       247
23.340       307
23.360       333
23.380       307
23.400       283
23.420       277
23.440       287
23.460       320
23.480       273
23.500       290
23.520       263
23.540       257
23.560       237
23.580       273
23.600       317
23.620       257
23.640       267
23.660       320
23.680       307
23.700       273
23.720       277
23.740       300
23.760       323
23.780       243
23.800       293
23.820       233
23.840       273
23.860       320
23.880       287
23.900       263
23.920       277
23.940       330
23.960       267
23.980       313
24.000       253
24.020       303
24.040       293
24.060       280
24.080       293
24.100       283
24.120       317
24.140       277
24.160       307
24.180       253
24.200       253
24.220       233
24.240       283
24.260       253
24.280       233
24.300       320
24.320       220
24.340       270
24.360       223
24.380       313
24.400       253
24.420       233
24.440       333
24.460       260
24.480       237
24.500       267
24.520       223
24.540       307
24.560       220
24.580       247
24.600       240
24.620       227
24.640       287
24.660       257
24.680       280
24.700       313
24.720       300
24.740       277
24.760       240
24.780       240
24.800       257
24.820       253
24.840       237
24.860       313
24.880       273
24.900       263
24.920       217
24.940       237
24.960       210
24.980       193
25.000       230
25.020       233
25.040       247
25.060       213
25.080       210
25.100       220
25.120       253
25.140       190
25.160       170
25.180       277
25.200       227
25.220       260
25.240       197
25.260       177
25.280       213
25.300       267
25.320       207
25.340       223
25.360       213
25.380       230
25.400       233
25.420       187
25.440       207
25.460       153
25.480       210
25.500       187
25.520       160
25.540       250
25.560       177
25.580       210
25.600       223
25.620       170
25.640       170
25.660       160
25.680       170
25.700       180
25.720       170
25.740       110
25.760       163
25.780       157
25.800       123
25.820       140
25.840       117
25.860       170
25.880       157
25.900       110
25.920       107
25.940       160
25.960       117
25.980       153
26.000       123
26.020       143
26.040       123
26.060       153
26.080       127
26.100       117
26.120       127
26.140       140
26.160       137
26.180       120
26.200       167
26.220       147
26.240       153
26.260       127
26.280       107
26.300        90
26.320       120
26.340       113
26.360       123
26.380       120
26.400        90
26.420       123
26.440       140
26.460       120
26.480       110
26.500       103
26.520       103
26.540       133
26.560       113
26.580       110
26.600       130
26.620       140
26.640        90
26.660       123
26.680       133
26.700       103
26.720       143
26.740        93
26.760        97
26.780       110
26.800        87
26.820        70
26.840       123
26.860        93
26.880       107
26.900       113
26.920        80
26.940       113
26.960       110
26.980       107
27.000       107
27.020       123
27.040       103
27.060       120
27.080        83
27.100       110
27.120       120
27.140       113
27.160        63
27.180        73
27.200        77
27.220       113
27.240       123
27.260       113
27.280       113
27.300        97
27.320       120
27.340        97
27.360       107
27.380        73
27.400       103
27.420        80
27.440        80
27.460       137
27.480        67
27.500        87
27.520        93
27.540       113
27.560       120
27.580        93
27.600        87
27.620        80
27.640       117
27.660       120
27.680       103
27.700       103
27.720       100
27.740       117
27.760        73
27.780        77
27.800       103
27.820       127
27.840        67
27.860       110
27.880       147
27.900        90
27.920       117
27.940        87
27.960        63
27.980        93
28.000       113
28.020        77
28.040        90
28.060       113
28.080        73
28.100        97
28.120        90
28.140        70
28.160        77
28.180       100
28.200        97
28.220       100
28.240       100
28.260        67
28.280       100
28.300        70
28.320        93
28.340        97
28.360        93
28.380        77
28.400        87
28.420        77
28.440        90
28.460        80
28.480        73
28.500       110
28.520        60
28.540        80
28.560        73
28.580        63
28.600       103
28.620        77
28.640        97
28.660        60
28.680        77
28.700        90
28.720        67
28.740        67
28.760        57
28.780        43
28.800       100
28.820        93
28.840        70
28.860        50
28.880        87
28.900        87
28.920       103
28.940        83
28.960        57
28.980        80
29.000        90
29.020        77
29.040        70
29.060        53
29.080        87
29.100        57
29.120        83
29.140       107
29.160        97
29.180       100
29.200        90
29.220        83
29.240        90
29.260        87
29.280        93
29.300        77
29.320        97
29.340       100
29.360       107
29.380       130
29.400        87
29.420        67
29.440        73
29.460        73
29.480        80
29.500        93
29.520        97
29.540       110
29.560       113
29.580       103
29.600        63
29.620       110
29.640       110
29.660       103
29.680       110
29.700        57
29.720        60
29.740        77
29.760        57
29.780        53
29.800        73
29.820        73
29.840        73
29.860        80
29.880        73
29.900        53
29.920        40
29.940        50
29.960        70
29.980        63
30.000        73
30.020        87
30.040        63
30.060        87
30.080        93
30.100        60
30.120        67
30.140       110
30.160        87
30.180        97
30.200        87
30.220        87
30.240        53
30.260        63
30.280        60
30.300        73
30.320        70
30.340        87
30.360        40
30.380        53
30.400        80
30.420        43
30.440        97
30.460        87
30.480        77
30.500        67
30.520        77
30.540       100
30.560       100
30.580        80
30.600        87
30.620        70
30.640        87
30.660        80
30.680        57
30.700        80
30.720       110
30.740        97
30.760       113
30.780       103
30.800        93
30.820        77
30.840        90
30.860       113
30.880        77
30.900       113
30.920        93
30.940        90
30.960        93
30.980        63
31.000        97
31.020       110
31.040       120
31.060        67
31.080       100
31.100        90
31.120       113
31.140       117
31.160       100
31.180        90
31.200        90
31.220        73
31.240       113
31.260       107
31.280       127
31.300        93
31.320       140
31.340        90
31.360       117
31.380        93
31.400       127
31.420       107
31.440       110
31.460       110
31.480       143
31.500       120
31.520        97
31.540       103
31.560       180
31.580       133
31.600       150
31.620       137
31.640       217
31.660       193
31.680       177
31.700       190
31.720       217
31.740       210
31.760       230
31.780       290
31.800       293
31.820       310
31.840       373
31.860       423
31.880       420
31.900       436
31.920       410
31.940       450
31.960       500
31.980       526
32.000       660
32.020       520
32.040       563
32.060      1076
32.080      1656
32.100      2612
32.120      2879
32.140      2449
32.160      1616
32.180       856
32.200       643
32.220       510
32.240       450
32.260       423
32.280       410
32.300       343
32.320       303
32.340       330
32.360       390
32.380       247
32.400       250
32.420       333
32.440       263
32.460       207
32.480       290
32.500       230
32.520       253
32.540       230
32.560       217
32.580       263
32.600       237
32.620       180
32.640       213
32.660       197
32.680       130
32.700       177
32.720       230
32.740       203
32.760       177
32.780       187
32.800       137
32.820       193
32.840       163
32.860       157
32.880       183
32.900       137
32.920       167
32.940       143
32.960       163
32.980       203
33.000       130
33.020       170
33.040       143
33.060       173
33.080       113
33.100       167
33.120       153
33.140       123
33.160       157
33.180       133
33.200       120
33.220       120
33.240       143
33.260       137
33.280       113
33.300       160
33.320       143
33.340       180
33.360       137
33.380       173
33.400       137
33.420       153
33.440       113
33.460       107
33.480       140
33.500       187
33.520       143
33.540       143
33.560       113
33.580       140
33.600       167
33.620        87
33.640       133
33.660       147
33.680       157
33.700       163
33.720       127
33.740       123
33.760       120
33.780       130
33.800       120
33.820       180
33.840       127
33.860       137
33.880       133
33.900       113
33.920       163
33.940       113
33.960       167
33.980        87
34.000       133
34.020       117
34.040       170
34.060       127
34.080       137
34.100       137
34.120       187
34.140       147
34.160       147
34.180       127
34.200        97
34.220       157
34.240       153
34.260       140
34.280       110
34.300       177
34.320       143
34.340       163
34.360       300
34.380       407
34.400       580
34.420       716
34.440       753
34.460       900
34.480       926
34.500       820
34.520       843
34.540       903
34.560       866
34.580       876
34.600       783
34.620       890
34.640       983
34.660       903
34.680       906
34.700       976
34.720       853
34.740       950
34.760       926
34.780       870
34.800      1016
34.820       976
34.840       903
34.860       903
34.880       946
34.900      1073
34.920       943
34.940       926
34.960       903
34.980       913
35.000      1000
35.020       950
35.040       993
35.060       990
35.080       993
35.100      1053
35.120      1106
35.140      1180
35.160      1116
35.180      1130
35.200      1173
35.220      1193
35.240      1190
35.260      1333
35.280      1446
35.300      1566
35.320      1629
35.340      1786
35.360      2139
35.380      2502
35.400      3725
35.420      5604
35.440      8876
35.460     12355
35.480     15071
35.500     16780
35.520     18053
35.540     20515
35.560     25230
35.580     46002
35.600    123694
35.620    206777
35.640    233497
35.660    226240
35.680    178695
35.700    139538
35.720    150633
35.740    153342
35.760    133810
35.780     76443
35.800     30185
35.820     16423
35.840     11702
35.860      9010
35.880      6761
35.900      5205
35.920      3855
35.940      2982
35.960      2469
35.980      2146
36.000      2013
36.020      1756
36.040      1719
36.060      1703
36.080      1539
36.100      1539
36.120      1366
36.140      1369
36.160      1309
36.180      1353
36.200      1210
36.220      1200
36.240      1220
36.260      1163
36.280      1156
36.300      1090
36.320      1113
36.340       936
36.360       840
36.380       966
36.400       920
36.420       933
36.440       826
36.460       840
36.480       923
36.500       776
36.520       833
36.540       813
36.560       810
36.580       910
36.600       853
36.620       843
36.640       830
36.660       716
36.680       786
36.700       706
36.720       733
36.740       746
36.760       780
36.780       673
36.800       750
36.820       780
36.840       670
36.860       743
36.880       673
36.900       733
36.920       733
36.940       683
36.960       596
36.980       653
37.000       710
37.020       756
37.040       763
37.060       703
37.080       723
37.100       643
37.120       643
37.140       623
37.160       636
37.180       620
37.200       596
37.220       590
37.240       580
37.260       660
37.280       590
37.300       576
37.320       546
37.340       583
37.360       593
37.380       716
37.400       633
37.420       526
37.440       576
37.460       616
37.480       590
37.500       623
37.520       553
37.540       613
37.560       630
37.580       570
37.600       590
37.620       623
37.640       496
37.660       603
37.680       533
37.700       540
37.720       680
37.740       516
37.760       603
37.780       586
37.800       493
37.820       433
37.840       573
37.860       553
37.880       506
37.900       553
37.920       506
37.940       536
37.960       583
37.980       500
38.000       510
38.020       503
38.040       503
38.060       540
38.080       496
38.100       553
38.120       446
38.140       536
38.160       510
38.180       420
38.200       453
38.220       430
38.240       510
38.260       563
38.280       480
38.300       493
38.320       550
38.340       463
38.360       446
38.380       443
38.400       466
38.420       417
38.440       503
38.460       533
38.480       476
38.500       466
38.520       453
38.540       483
38.560       496
38.580       496
38.600       440
38.620       453
38.640       400
38.660       470
38.680       483
38.700       390
38.720       530
38.740       397
38.760       430
38.780       503
38.800       450
38.820       463
38.840       446
38.860       516
38.880       423
38.900       436
38.920       486
38.940       493
38.960       440
38.980       480
39.000       423
39.020       503
39.040       443
39.060       466
39.080       446
39.100       380
39.120       400
39.140       433
39.160       426
39.180       413
39.200       433
39.220       430
39.240       397
39.260       410
39.280       400
39.300       373
39.320       397
39.340       413
39.360       393
39.380       403
39.400       423
39.420       440
39.440       420
39.460       393
39.480       363
39.500       337
39.520       390
39.540       420
39.560       347
39.580       430
39.600       333
39.620       310
39.640       420
39.660       397
39.680       403
39.700       413
39.720       360
39.740       340
39.760       426
39.780       403
39.800       387
39.820       337
39.840       367
39.860       410
39.880       367
39.900       357
39.920       383
39.940       343
39.960       353
39.980       373
40.000       393
40.020       340
40.040       390
40.060       393
40.080       310
40.100       357
40.120       290
40.140       327
40.160       367
40.180       347
40.200       337
40.220       377
40.240       370
40.260       403
40.280       370
40.300       337
40.320       380
40.340       373
40.360       313
40.380       363
40.400       330
40.420       400
40.440       300
40.460       327
40.480       367
40.500       320
40.520       363
40.540       330
40.560       393
40.580       370
40.600       340
40.620       257
40.640       383
40.660       340
40.680       363
40.700       320
40.720       320
40.740       330
40.760       350
40.780       307
40.800       307
40.820       363
40.840       307
40.860       337
40.880       310
40.900       367
40.920       337
40.940       303
40.960       310
40.980       300
41.000       340
41.020       260
41.040       297
41.060       347
41.080       310
41.100       363
41.120       293
41.140       327
41.160       363
41.180       337
41.200       320
41.220       303
41.240       300
41.260       333
41.280       287
41.300       303
41.320       317
41.340       287
41.360       330
41.380       300
41.400       307
41.420       270
41.440       263
41.460       263
41.480       300
41.500       233
41.520       330
41.540       333
41.560       270
41.580       287
41.600       303
41.620       250
41.640       233
41.660       260
41.680       243
41.700       253
41.720       347
41.740       330
41.760       330
41.780       277
41.800       307
41.820       253
41.840       283
41.860       340
41.880       263
41.900       320
41.920       313
41.940       300
41.960       290
41.980       283
42.000       343
42.020       247
42.040       283
42.060       300
42.080       273
42.100       247
42.120       263
42.140       223
42.160       310
42.180       250
42.200       223
42.220       200
42.240       283
42.260       237
42.280       233
42.300       297
42.320       243
42.340       213
42.360       263
42.380       287
42.400       220
42.420       247
42.440       253
42.460       250
42.480       267
42.500       217
42.520       267
42.540       267
42.560       217
42.580       263
42.600       223
42.620       313
42.640       263
42.660       283
42.680       220
42.700       250
42.720       247
42.740       253
42.760       267
42.780       247
42.800       253
42.820       190
42.840       283
42.860       243
42.880       240
42.900       240
42.920       257
42.940       283
42.960       233
42.980       213
43.000       257
43.020       223
43.040       210
43.060       290
43.080       230
43.100       200
43.120       297
43.140       220
43.160       227
43.180       237
43.200       223
43.220       203
43.240       157
43.260       210
43.280       227
43.300       237
43.320       197
43.340       213
43.360       193
43.380       270
43.400       247
43.420       223
43.440       240
43.460       267
43.480       157
43.500       197
43.520       190
43.540       210
43.560       177
43.580       193
43.600       207
43.620       230
43.640       220
43.660       230
43.680       197
43.700       173
43.720       230
43.740       170
43.760       230
43.780       223
43.800       240
43.820       193
43.840       217
43.860       210
43.880       263
43.900       207
43.920       230
43.940       197
43.960       230
43.980       230
44.000       187
44.020       217
44.040       213
44.060       190
44.080       213
44.100       183
44.120       210
44.140       223
44.160       187
44.180       197
44.200       200
44.220       210
44.240       217
44.260       280
44.280       170
44.300       227
44.320       200
44.340       207
44.360       217
44.380       223
44.400       187
44.420       193
44.440       210
44.460       170
44.480       220
44.500       217
44.520       273
44.540       240
44.560       183
44.580       163
44.600       200
44.620       207
44.640       240
44.660       237
44.680       190
44.700       237
44.720       223
44.740       280
44.760       213
44.780       173
44.800       223
44.820       193
44.840       207
44.860       247
44.880       277
44.900       250
44.920       227
44.940       223
44.960       243
44.980       263
45.000       247
45.020       277
45.040       277
45.060       267
45.080       323
45.100       250
45.120       287
45.140       320
45.160       313
45.180       317
45.200       263
45.220       350
45.240       330
45.260       390
45.280       317
45.300       263
45.320       337
45.340       330
45.360       343
45.380       363
45.400       353
45.420       363
45.440       377
45.460       317
45.480       407
45.500       327
45.520       360
45.540       433
45.560       390
45.580       387
45.600       333
45.620       383
45.640       423
45.660       387
45.680       350
45.700       433
45.720       456
45.740       403
45.760       423
45.780       393
45.800       360
45.820       440
45.840       480
45.860       387
45.880       387
45.900       390
45.920       390
45.940       413
45.960       333
45.980       330
46.000       320
46.020       407
46.040       330
46.060       310
46.080       297
46.100       280
46.120       290
46.140       260
46.160       293
46.180       290
46.200       310
46.220       313
46.240       277
46.260       260
46.280       310
46.300       240
46.320       223
46.340       247
46.360       240
46.380       227
46.400       240
46.420       253
46.440       237
46.460       273
46.480       183
46.500       207
46.520       227
46.540       207
46.560       197
46.580       200
46.600       233
46.620       173
46.640       220
46.660       167
46.680       160
46.700       193
46.720       177
46.740       193
46.760       160
46.780       173
46.800       137
46.820       163
46.840       153
46.860       177
46.880       183
46.900       173
46.920       147
46.940       123
46.960       190
46.980       200
47.000       163
47.020       137
47.040       177
47.060       177
47.080       123
47.100       143
47.120       167
47.140       200
47.160       163
47.180       127
47.200       130
47.220       147
47.240       173
47.260       203
47.280       133
47.300       160
47.320       167
47.340       130
47.360        93
47.380       150
47.400       117
47.420       157
47.440       153
47.460       170
47.480       100
47.500       113
47.520       160
47.540       100
47.560       110
47.580       120
47.600       110
47.620       123
47.640       137
47.660       153
47.680       110
47.700       130
47.720       133
47.740       177
47.760       150
47.780       103
47.800       103
47.820       163
47.840       113
47.860       143
47.880        90
47.900        97
47.920       137
47.940        83
47.960       127
47.980       117
48.000       120
48.020       133
48.040       107
48.060       103
48.080       107
48.100       133
48.120       160
48.140       153
48.160       157
48.180       140
48.200       130
48.220       147
48.240       180
48.260       197
48.280        93
48.300       137
48.320       200
48.340       150
48.360       133
48.380       183
48.400       127
48.420       127
48.440       103
48.460       137
48.480       140
48.500        90
48.520       140
48.540       157
48.560       137
48.580       150
48.600       130
48.620       147
48.640       107
48.660       130
48.680       130
48.700       150
48.720        97
48.740       107
48.760       140
48.780       130
48.800       117
48.820       107
48.840       123
48.860       107
48.880       150
48.900       127
48.920        77
48.940       110
48.960       100
48.980        97
49.000        93
49.020       120
49.040       143
49.060        93
49.080        87
49.100       107
49.120        90
49.140        97
49.160       123
49.180       117
49.200        80
49.220       130
49.240        90
49.260        93
49.280       133
49.300        83
49.320       120
49.340       123
49.360        87
49.380       130
49.400       110
49.420       127
49.440       117
49.460       150
49.480       160
49.500       100
49.520       100
49.540        83
49.560       123
49.580       130
49.600        83
49.620        80
49.640       103
49.660       113
49.680        90
49.700        90
49.720        70
49.740        97
49.760        83
49.780        93
49.800        93
49.820        80
49.840        83
49.860       127
49.880        87
49.900       137
49.920       103
49.940        97
49.960       150
49.980        83
50.000        93
50.020       107
50.040        80
50.060       110
50.080        97
50.100        77
50.120       113
50.140       100
50.160       127
50.180       100
50.200       127
50.220        90
50.240        77
50.260       120
50.280        97
50.300        67
50.320       103
50.340        97
50.360       103
50.380       133
50.400        83
50.420       100
50.440       113
50.460       103
50.480        90
50.500        80
50.520       117
50.540        83
50.560        77
50.580        70
50.600        87
50.620        93
50.640       103
50.660        77
50.680        90
50.700        60
50.720        73
50.740        50
50.760        97
50.780        87
50.800       107
50.820       100
50.840        87
50.860       103
50.880        50
50.900       113
50.920        90
50.940        73
50.960       103
50.980        97
51.000        97
51.020        90
51.040        90
51.060       100
51.080        80
51.100        77
51.120       103
51.140        60
51.160        80
51.180       103
51.200        83
51.220        93
51.240        93
51.260       103
51.280       130
51.300        97
51.320       100
51.340       107
51.360       120
51.380        67
51.400        97
51.420        87
51.440        70
51.460        87
51.480        97
51.500        97
51.520       127
51.540        90
51.560        40
51.580        67
51.600        70
51.620        87
51.640       113
51.660       113
51.680        80
51.700       100
51.720       113
51.740        83
51.760        73
51.780        63
51.800       120
51.820        80
51.840        73
51.860        83
51.880        83
51.900       103
51.920        77
51.940        53
51.960       107
51.980        93
52.000        97
52.020        63
52.040       107
52.060        60
52.080        83
52.100        63
52.120        63
52.140        87
52.160        90
52.180        63
52.200        93
52.220       100
52.240        93
52.260        63
52.280        90
52.300        73
52.320        63
52.340        73
52.360        67
52.380        60
52.400        97
52.420        67
52.440        77
52.460        67
52.480        90
52.500        80
52.520        90
52.540       120
52.560        83
52.580        97
52.600        63
52.620        97
52.640        57
52.660        77
52.680        87
52.700        77
52.720        87
52.740        97
52.760        93
52.780        70
52.800        83
52.820        73
52.840        87
52.860        67
52.880       117
52.900        70
52.920        93
52.940        67
52.960        77
52.980        67
53.000       100
53.020        67
53.040        77
53.060        70
53.080        73
53.100        83
53.120        50
53.140        77
53.160        73
53.180        80
53.200        63
53.220        97
53.240        63
53.260        67
53.280        77
53.300        60
53.320       100
53.340        93
53.360        83
53.380        70
53.400        73
53.420        97
53.440        80
53.460        97
53.480        70
53.500        70
53.520        73
53.540        70
53.560       100
53.580        80
53.600        67
53.620        60
53.640        77
53.660        97
53.680        93
53.700        97
53.720        77
53.740        43
53.760        83
53.780        83
53.800        60
53.820        93
53.840        63
53.860        80
53.880       103
53.900        77
53.920        53
53.940        60
53.960        80
53.980        83
54.000       113
54.020        87
54.040        60
54.060        80
54.080       103
54.100        70
54.120        77
54.140        67
54.160        77
54.180        87
54.200        63
54.220        73
54.240        77
54.260        77
54.280        83
54.300        63
54.320       100
54.340        73
54.360        73
54.380        70
54.400        77
54.420        67
54.440        90
54.460        60
54.480        73
54.500        47
54.520        90
54.540        67
54.560        87
54.580       107
54.600        80
54.620        77
54.640        63
54.660        63
54.680        73
54.700        97
54.720        83
54.740        47
54.760       100
54.780        53
54.800        57
54.820       100
54.840        70
54.860        80
54.880        63
54.900        97
54.920        77
54.940        67
54.960        77
54.980        60
55.000        70
55.020        90
55.040        60
55.060       107
55.080        80
55.100        67
55.120        70
55.140        67
55.160        57
55.180        63
55.200        80
55.220        73
55.240        77
55.260        53
55.280        73
55.300        87
55.320        70
55.340        63
55.360        77
55.380        57
55.400        73
55.420        83
55.440        60
55.460        67
55.480        60
55.500        67
55.520        83
55.540        83
55.560        60
55.580        80
55.600        53
55.620        43
55.640        80
55.660        70
55.680        53
55.700       100
55.720        67
55.740        57
55.760        73
55.780        97
55.800        57
55.820       103
55.840        77
55.860        77
55.880        47
55.900        60
55.920        57
55.940       133
55.960        70
55.980        77
56.000        80
56.020        50
56.040        83
56.060        80
56.080        93
56.100        87
56.120        70
56.140        80
56.160        53
56.180        93
56.200        63
56.220        60
56.240        90
56.260        80
56.280        67
56.300        73
56.320        63
56.340        77
56.360        70
56.380        63
56.400        50
56.420        70
56.440        73
56.460        87
56.480        63
56.500        57
56.520        37
56.540        73
56.560       117
56.580       103
56.600       103
56.620        53
56.640        93
56.660        73
56.680        70
56.700        67
56.720        60
56.740        90
56.760        73
56.780        93
56.800        60
56.820        93
56.840        70
56.860        77
56.880        83
56.900        67
56.920        83
56.940        67
56.960        63
56.980        63
57.000        73
57.020       103
57.040        53
57.060       100
57.080        80
57.100        80
57.120        93
57.140        60
57.160        40
57.180        43
57.200        63
57.220        80
57.240        97
57.260        70
57.280        70
57.300        80
57.320        67
57.340        63
57.360       100
57.380        57
57.400        73
57.420        67
57.440        87
57.460        43
57.480        73
57.500        70
57.520        70
57.540       107
57.560        67
57.580        77
57.600        93
57.620        73
57.640        67
57.660        87
57.680        63
57.700       103
57.720        97
57.740       100
57.760        63
57.780        83
57.800        70
57.820        60
57.840        50
57.860        57
57.880        63
57.900        77
57.920        57
57.940        70
57.960        67
57.980        67
58.000        57
58.020        80
58.040        70
58.060        70
58.080        53
58.100        70
58.120        70
58.140        87
58.160        50
58.180       127
58.200        50
58.220        93
58.240        73
58.260        43
58.280        73
58.300        57
58.320        47
58.340        57
58.360        60
58.380        70
58.400        53
58.420        70
58.440        73
58.460        83
58.480        77
58.500        47
58.520        57
58.540        63
58.560        87
58.580        53
58.600        73
58.620        37
58.640        67
58.660        73
58.680       100
58.700       120
58.720        60
58.740        33
58.760        60
58.780        60
58.800        73
58.820       103
58.840        57
58.860        77
58.880        57
58.900        83
58.920        83
58.940        50
58.960        70
58.980        63
59.000        60
59.020        70
59.040        80
59.060        53
59.080       110
59.100        43
59.120        50
59.140        27
59.160        67
59.180        80
59.200        67
59.220        70
59.240        63
59.260        80
59.280        60
59.300        77
59.320        90
59.340        60
59.360        70
59.380        83
59.400        80
59.420        83
59.440        60
59.460        57
59.480        70
59.500        67
59.520        47
59.540        63
59.560        73
59.580        47
59.600        47
59.620        93
59.640        70
59.660        50
59.680        67
59.700        47
59.720        87
59.740        70
59.760        60
59.780        67
59.800        87
59.820        60
59.840        47
59.860        60
59.880        63
59.900        73
59.920        53
59.940        37
59.960        93
59.980        47
60.000        47
