20.000        23
20.020        23
20.040        43
20.060        40
20.080        53
20.100        43
20.120        57
20.140        53
20.160        37
20.180        37
20.200        23
20.220        47
20.240        57
20.260        43
20.280        37
20.300        53
20.320        37
20.340        60
20.360        43
20.380        47
20.400        40
20.420        37
20.440        43
20.460        50
20.480        33
20.500        43
20.520        23
20.540        30
20.560        30
20.580        37
20.600        50
20.620        33
20.640        30
20.660        43
20.680        40
20.700        43
20.720        53
20.740        37
20.760        37
20.780        50
20.800        30
20.820        37
20.840        47
20.860        30
20.880        37
20.900        60
20.920        33
20.940        43
20.960        43
20.980        23
21.000        40
21.020        37
21.040        43
21.060        57
21.080        27
21.100        50
21.120        43
21.140        37
21.160        37
21.180        50
21.200        60
21.220        40
21.240        30
21.260        37
21.280        40
21.300        37
21.320        50
21.340        53
21.360        40
21.380        47
21.400        23
21.420        60
21.440        43
21.460        33
21.480        47
21.500        57
21.520        57
21.540        60
21.560        30
21.580        33
21.600        33
21.620        53
21.640        40
21.660        57
21.680        27
21.700        50
21.720        43
21.740        30
21.760        50
21.780        63
21.800        60
21.820        43
21.840        37
21.860        20
21.880        47
21.900        70
21.920        30
21.940        47
21.960        63
21.980        53
22.000        43
22.020        47
22.040        47
22.060        43
22.080        30
22.100        43
22.120        47
22.140        57
22.160        37
22.180        50
22.200        47
22.220        60
22.240        80
22.260        57
22.280        53
22.300        37
22.320        53
22.340        93
22.360        97
22.380        60
22.400        73
22.420        80
22.440        93
22.460       107
22.480       150
22.500       140
22.520       113
22.540       120
22.560       110
22.580       130
22.600       103
22.620       107
22.640       123
22.660       100
22.680       127
22.700       130
22.720       107
22.740       140
22.760       110
22.780       107
22.800       107
22.820       100
22.840       117
22.860        70
22.880        83
22.900        57
22.920        70
22.940        57
22.960        73
22.980        60
23.000        77
23.020        57
23.040        83
23.060        57
23.080        47
23.100        70
23.120        47
23.140        43
23.160        47
23.180        53
23.200        43
23.220        50
23.240        37
23.260        33
23.280        33
23.300        30
23.320        43
23.340        60
23.360        43
23.380        57
23.400        40
23.420        50
23.440        47
23.460        37
23.480        53
23.500        57
23.520        27
23.540        50
23.560        47
23.580        37
23.600        30
23.620        27
23.640        53
23.660        47
23.680        67
23.700        30
23.720        40
23.740        53
23.760        30
23.780        40
23.800        33
23.820        37
23.840        33
23.860        43
23.880        57
23.900        47
23.920        57
23.940        30
23.960        30
23.980        27
24.000        37
24.020        13
24.040        30
24.060        23
24.080        43
24.100        40
24.120        37
24.140        33
24.160        43
24.180        37
24.200        60
24.220        47
24.240        50
24.260        50
24.280        20
24.300        47
24.320        43
24.340        17
24.360        30
24.380        57
24.400        33
24.420        53
24.440        37
24.460        43
24.480        43
24.500        23
24.520        37
24.540        53
24.560        43
24.580        57
24.600        50
24.620        27
24.640        23
24.660        47
24.680        40
24.700        33
24.720        37
24.740        47
24.760        43
24.780        33
24.800        67
24.820        83
24.840        60
24.860        67
24.880        53
24.900        57
24.920        50
24.940        70
24.960        40
24.980        37
25.000        33
25.020        27
25.040        30
25.060        43
25.080        40
25.100        43
25.120        50
25.140        30
25.160        40
25.180        40
25.200        33
25.220        27
25.240        30
25.260        37
25.280        43
25.300        37
25.320        43
25.340        50
25.360        17
25.380        30
25.400        53
25.420        43
25.440        50
25.460        33
25.480        40
25.500        37
25.520        23
25.540        37
25.560        47
25.580        60
25.600        37
25.620        53
25.640        43
25.660        30
25.680        27
25.700        43
25.720        33
25.740        30
25.760        33
25.780        30
25.800        23
25.820        57
25.840        40
25.860        43
25.880        40
25.900        63
25.920        37
25.940        30
25.960        27
25.980        43
26.000        37
26.020        43
26.040        30
26.060        23
26.080        23
26.100        27
26.120        23
26.140        27
26.160        27
26.180        37
26.200        30
26.220        27
26.240        53
26.260        37
26.280        17
26.300        33
26.320        30
26.340        17
26.360        27
26.380        33
26.400        40
26.420        23
26.440        43
26.460        27
26.480        40
26.500        37
26.520        37
26.540        37
26.560        33
26.580        43
26.600        40
26.620        47
26.640        60
26.660        37
26.680        47
26.700        33
26.720        33
26.740        30
26.760        50
26.780        37
26.800        23
26.820        30
26.840        17
26.860        30
26.880        33
26.900        13
26.920        40
26.940        30
26.960        47
26.980        23
27.000        17
27.020        27
27.040        20
27.060        40
27.080        53
27.100        40
27.120        30
27.140        23
27.160        40
27.180        33
27.200        33
27.220        20
27.240        30
27.260        33
27.280        27
27.300        37
27.320        53
27.340        17
27.360        30
27.380        47
27.400        37
27.420        53
27.440        20
27.460        33
27.480        40
27.500        30
27.520        33
27.540        30
27.560        43
27.580        27
27.600        27
27.620         7
27.640        27
27.660        23
27.680        43
27.700        23
27.720        33
27.740        43
27.760        27
27.780        40
27.800        37
27.820        43
27.840        37
27.860        37
27.880        33
27.900        23
27.920        17
27.940        27
27.960        47
27.980        20
28.000        27
28.020        27
28.040        27
28.060        37
28.080        17
28.100        20
28.120        17
28.140        23
28.160        30
28.180        30
28.200        27
28.220        43
28.240        17
28.260        30
28.280        23
28.300        50
28.320        40
28.340        30
28.360        33
28.380        13
28.400        43
28.420        27
28.440        37
28.460        50
28.480        27
28.500        33
28.520        33
28.540        37
28.560        20
28.580        50
28.600        20
28.620        23
28.640        33
28.660        10
28.680        13
28.700        27
28.720        30
28.740        33
28.760        20
28.780        17
28.800        30
28.820        17
28.840        47
28.860        30
28.880        33
28.900        33
28.920        20
28.940        33
28.960        27
28.980        47
29.000        23
29.020        17
29.040        47
29.060        33
29.080        43
29.100        23
29.120        30
29.140        40
29.160        37
29.180        27
29.200        33
29.220        47
29.240        53
29.260        60
29.280        73
29.300        33
29.320        87
29.340        73
29.360        63
29.380        73
29.400        93
29.420        57
29.440        40
29.460        40
29.480        43
29.500        23
29.520        40
29.540        37
29.560        33
29.580        40
29.600        37
29.620        20
29.640        37
29.660        30
29.680        33
29.700        17
29.720        30
29.740        10
29.760        43
29.780        17
29.800        17
29.820        30
29.840        27
29.860        27
29.880        23
29.900        30
29.920        37
29.940        17
29.960        30
29.980        17
30.000        20
30.020        27
30.040        40
30.060        27
30.080        27
30.100        27
30.120        13
30.140        30
30.160        17
30.180        13
30.200        23
30.220        43
30.240        20
30.260        27
30.280        13
30.300        20
30.320        17
30.340        27
30.360        27
30.380        17
30.400        27
30.420        30
30.440        20
30.460        30
30.480        27
30.500        30
30.520        17
30.540        30
30.560        33
30.580        17
30.600        10
30.620        37
30.640        23
30.660        20
30.680        23
30.700        17
30.720        20
30.740        20
30.760        17
30.780        30
30.800        23
30.820        33
30.840        23
30.860        23
30.880        20
30.900        10
30.920        37
30.940        30
30.960        20
30.980        40
31.000        27
31.020        20
31.040        17
31.060        20
31.080        20
31.100        30
31.120        47
31.140        30
31.160        23
31.180        13
31.200        33
31.220        23
31.240        30
31.260        37
31.280        17
31.300        30
31.320        40
31.340        40
31.360        43
31.380        20
31.400        43
31.420        30
31.440        27
31.460        37
31.480        23
31.500        27
31.520        23
31.540        23
31.560        17
31.580        20
31.600        20
31.620        33
31.640        27
31.660        30
31.680        40
31.700        23
31.720        20
31.740        23
31.760        30
31.780        37
31.800        40
31.820        40
31.840        20
31.860        47
31.880        53
31.900        43
31.920        57
31.940        43
31.960        47
31.980        57
32.000        50
32.020        53
32.040        60
32.060        77
32.080        53
32.100        77
32.120        70
32.140        80
32.160        87
32.180       140
32.200       113
32.220       103
32.240       110
32.260       137
32.280       157
32.300       167
32.320       163
32.340       153
32.360       147
32.380       147
32.400       130
32.420       147
32.440       153
32.460       100
32.480        97
32.500       140
32.520       117
32.540       127
32.560        97
32.580       113
32.600        70
32.620        73
32.640        60
32.660        43
32.680        60
32.700        60
32.720        47
32.740        13
32.760        63
32.780        50
32.800        43
32.820        60
32.840        27
32.860        30
32.880        40
32.900        37
32.920        10
32.940        33
32.960        33
32.980        40
33.000        20
33.020        23
33.040        27
33.060        23
33.080        23
33.100        40
33.120        60
33.140        40
33.160        40
33.180        23
33.200        30
33.220        30
33.240        27
33.260        17
33.280        33
33.300        33
33.320        40
33.340        13
33.360        20
33.380        20
33.400        30
33.420        17
33.440        20
33.460        27
33.480        13
33.500        17
33.520        17
33.540        23
33.560        13
33.580        30
33.600        23
33.620        30
33.640        40
33.660        23
33.680        17
33.700        13
33.720         3
33.740        33
33.760        20
33.780        20
33.800        27
33.820        20
33.840        10
33.860        27
33.880         7
33.900        47
33.920        40
33.940        20
33.960        23
33.980        33
34.000        33
34.020        10
34.040        17
34.060        17
34.080        30
34.100        17
34.120        23
34.140        17
34.160        30
34.180        17
34.200        20
34.220        23
34.240        23
34.260        27
34.280        13
34.300        13
34.320         7
34.340        20
34.360        33
34.380        23
34.400        10
34.420        30
34.440        20
34.460        10
34.480        17
34.500        20
34.520        27
34.540        30
34.560        33
34.580        13
34.600        13
34.620        17
34.640        23
34.660         3
34.680        17
34.700        13
34.720        23
34.740        37
34.760        23
34.780        33
34.800        17
34.820        23
34.840        10
34.860        27
34.880        23
34.900        10
34.920        13
34.940        40
34.960        20
34.980        10
35.000        23
35.020        13
35.040        30
35.060        33
35.080        20
35.100        17
35.120        27
35.140        23
35.160        13
35.180         7
35.200        40
35.220        10
35.240        17
35.260        13
35.280        27
35.300        17
35.320        37
35.340        20
35.360        23
35.380        20
35.400        37
35.420        20
35.440        23
35.460        20
35.480        17
35.500        13
35.520        20
35.540        20
35.560        27
35.580        23
35.600        10
35.620        27
35.640        17
35.660        20
35.680        27
35.700        43
35.720        20
35.740        17
35.760         7
35.780        23
35.800        27
35.820        17
35.840        33
35.860        23
35.880        37
35.900        17
35.920        40
35.940        37
35.960        27
35.980        37
36.000        30
36.020        30
36.040        10
36.060        30
36.080        17
36.100        33
36.120        23
36.140        17
36.160        10
36.180        10
36.200        17
36.220        33
36.240        27
36.260        13
36.280        20
36.300        23
36.320        10
36.340        17
36.360        17
36.380        27
36.400        23
36.420        40
36.440        10
36.460        13
36.480        10
36.500        23
36.520        37
36.540        23
36.560        30
36.580        10
36.600        23
36.620         7
36.640        23
36.660        20
36.680        20
36.700        10
36.720        33
36.740        33
36.760        13
36.780        27
36.800        20
36.820        27
36.840         7
36.860        20
36.880        10
36.900         7
36.920        13
36.940        20
36.960        23
36.980        10
37.000        10
37.020        37
37.040        20
37.060        13
37.080        23
37.100        27
37.120        10
37.140        10
37.160        33
37.180        13
37.200        33
37.220        13
37.240        20
37.260        30
37.280        27
37.300        10
37.320        23
37.340        27
37.360         7
37.380        27
37.400        20
37.420        20
37.440        10
37.460        23
37.480        27
37.500        13
37.520        10
37.540        27
37.560        23
37.580        10
37.600        30
37.620        20
37.640        13
37.660        17
37.680        27
37.700        37
37.720        17
37.740        17
37.760        23
37.780        17
37.800        17
37.820        40
37.840        13
37.860        17
37.880        20
37.900        20
37.920        20
37.940        23
37.960        23
37.980        23
38.000        20
38.020        33
38.040        23
38.060        17
38.080        17
38.100        23
38.120        20
38.140        17
38.160        17
38.180        13
38.200        10
38.220        30
38.240        17
38.260        23
38.280        27
38.300        33
38.320        23
38.340        27
38.360        20
38.380        20
38.400        27
38.420        27
38.440        10
38.460        23
38.480        27
38.500        23
38.520        33
38.540        23
38.560        27
38.580        17
38.600        27
38.620        23
38.640        17
38.660        23
38.680        10
38.700        10
38.720        33
38.740        13
38.760        23
38.780        17
38.800        27
38.820        27
38.840        30
38.860        20
38.880        27
38.900        20
38.920        20
38.940        10
38.960        20
38.980        33
39.000        20
39.020        10
39.040        23
39.060        23
39.080        20
39.100        30
39.120        33
39.140        13
39.160         3
39.180        27
39.200        37
39.220        17
39.240        23
39.260        20
39.280        27
39.300        17
39.320        20
39.340        37
39.360        40
39.380        30
39.400        37
39.420        30
39.440        17
39.460        17
39.480        33
39.500        47
39.520        13
39.540        43
39.560        17
39.580        17
39.600        20
39.620        10
39.640        17
39.660        27
39.680        23
39.700        33
39.720        30
39.740        20
39.760        40
39.780        17
39.800        27
39.820        40
39.840        27
39.860        13
39.880        27
39.900        17
39.920        27
39.940        17
39.960        43
39.980        23
40.000        33
40.020        23
40.040        37
40.060        30
40.080        30
40.100        40
40.120        30
40.140        27
40.160        40
40.180        17
40.200        13
40.220        13
40.240        37
40.260        17
40.280        13
40.300        23
40.320        13
40.340        30
40.360        20
40.380        23
40.400        40
40.420        23
40.440        13
40.460        33
40.480        23
40.500        33
40.520        17
40.540         3
40.560        10
40.580        20
40.600        23
40.620        20
40.640        43
40.660         3
40.680        40
40.700        27
40.720        33
40.740        23
40.760        37
40.780        23
40.800        20
40.820        30
40.840        27
40.860        27
40.880        17
40.900        20
40.920        17
40.940        20
40.960        10
40.980        17
41.000        23
41.020        13
41.040        17
41.060        27
41.080        17
41.100        20
41.120        30
41.140        10
41.160        20
41.180        17
41.200        20
41.220        27
41.240        27
41.260        33
41.280        30
41.300        30
41.320        50
41.340        40
41.360        17
41.380        23
41.400        10
41.420        50
41.440        23
41.460        20
41.480        23
41.500        23
41.520        30
41.540         3
41.560        30
41.580        23
41.600        30
41.620        17
41.640        17
41.660        20
41.680        27
41.700        27
41.720        23
41.740        23
41.760        13
41.780        20
41.800        43
41.820        13
41.840        23
41.860        37
41.880        17
41.900        17
41.920        17
41.940        20
41.960        37
41.980        10
42.000        10
42.020        30
42.040         7
42.060        20
42.080        30
42.100        33
42.120        17
42.140        27
42.160        17
42.180        20
42.200        30
42.220        20
42.240        13
42.260        17
42.280        23
42.300        27
42.320        27
42.340        43
42.360        13
42.380        17
42.400        13
42.420        13
42.440        13
42.460        33
42.480        13
42.500        30
42.520        20
42.540        30
42.560        27
42.580        23
42.600        20
42.620        33
42.640        27
42.660        13
42.680        40
42.700        10
42.720        27
42.740        37
42.760        20
42.780        20
42.800        30
42.820        30
42.840         7
42.860        30
42.880        17
42.900        20
42.920        17
42.940        13
42.960        27
42.980        23
43.000        13
43.020        43
43.040        10
43.060        30
43.080        23
43.100        47
43.120        40
43.140        30
43.160        40
43.180        20
43.200        37
43.220        20
43.240        23
43.260        33
43.280        37
43.300        20
43.320        30
43.340        27
43.360        27
43.380        13
43.400        33
43.420        13
43.440        33
43.460        23
43.480        53
43.500        33
43.520        30
43.540        30
43.560         7
43.580        27
43.600        30
43.620        20
43.640         7
43.660        27
43.680        33
43.700        30
43.720        20
43.740        20
43.760        30
43.780        23
43.800        23
43.820        23
43.840        37
43.860        30
43.880        27
43.900        20
43.920        17
43.940        37
43.960        27
43.980        17
44.000        30
44.020        33
44.040        23
44.060        43
44.080        23
44.100        60
44.120        30
44.140        13
44.160        23
44.180        37
44.200        23
44.220        27
44.240        40
44.260        27
44.280        40
44.300        47
44.320        23
44.340        27
44.360        30
44.380        27
44.400        43
44.420        20
44.440        50
44.460        23
44.480        37
44.500        60
44.520        40
44.540        50
44.560        27
44.580        40
44.600        20
44.620        60
44.640        50
44.660        33
44.680        50
44.700        50
44.720        50
44.740        43
44.760        50
44.780        73
44.800        50
44.820        47
44.840        47
44.860        57
44.880        57
44.900        60
44.920        67
44.940        50
44.960        63
44.980        80
45.000        83
45.020        47
45.040        67
45.060        97
45.080        63
45.100        67
45.120        83
45.140        90
45.160        83
45.180       117
45.200       113
45.220       127
45.240       110
45.260        93
45.280       100
45.300       130
45.320       120
45.340       150
45.360       140
45.380       177
45.400       187
45.420       190
45.440       197
45.460       250
45.480       233
45.500       233
45.520       207
45.540       287
45.560       287
45.580       313
45.600       280
45.620       353
45.640       397
45.660       360
45.680       423
45.700       456
45.720       436
45.740       533
45.760       513
45.780       530
45.800       560
45.820       576
45.840       630
45.860       700
45.880       653
45.900       806
45.920       706
45.940       710
45.960       726
45.980       766
46.000       870
46.020       786
46.040       783
46.060       836
46.080       886
46.100       893
46.120       746
46.140       883
46.160       776
46.180       843
46.200       820
46.220       846
46.240       806
46.260       776
46.280       770
46.300       690
46.320       706
46.340       666
46.360       636
46.380       676
46.400       653
46.420       596
46.440       473
46.460       530
46.480       496
46.500       506
46.520       463
46.540       480
46.560       433
46.580       403
46.600       357
46.620       377
46.640       373
46.660       270
46.680       330
46.700       220
46.720       347
46.740       227
46.760       197
46.780       277
46.800       203
46.820       243
46.840       163
46.860       180
46.880       147
46.900       173
46.920       140
46.940       173
46.960       153
46.980       110
47.000       173
47.020       113
47.040       187
47.060       137
47.080        70
47.100       147
47.120       120
47.140       100
47.160       103
47.180        70
47.200        63
47.220        97
47.240        87
47.260        90
47.280        60
47.300        93
47.320        93
47.340        73
47.360        70
47.380        97
47.400        60
47.420        70
47.440        80
47.460        70
47.480        77
47.500        57
47.520        63
47.540        63
47.560        77
47.580        73
47.600        70
47.620        50
47.640        57
47.660        47
47.680        63
47.700        43
47.720        87
47.740        37
47.760        53
47.780        53
47.800        23
47.820        37
47.840        30
47.860        43
47.880        40
47.900        37
47.920        43
47.940        37
47.960        23
47.980        37
48.000        27
48.020        37
48.040        40
48.060        40
48.080        40
48.100        33
48.120        43
48.140        33
48.160        43
48.180        47
48.200        30
48.220        33
48.240        30
48.260        27
48.280        10
48.300        33
48.320        20
48.340        30
48.360        47
48.380        33
48.400        63
48.420        37
48.440        47
48.460        53
48.480        57
48.500        33
48.520        53
48.540        57
48.560        63
48.580        30
48.600        17
48.620        23
48.640        47
48.660        40
48.680        40
48.700        43
48.720        37
48.740        47
48.760        33
48.780        27
48.800        40
48.820        20
48.840        33
48.860        30
48.880        43
48.900        37
48.920        47
48.940        43
48.960        13
48.980        30
49.000        33
49.020        60
49.040        27
49.060        23
49.080        33
49.100        27
49.120        43
49.140        13
49.160        47
49.180        30
49.200        23
49.220        30
49.240        33
49.260        27
49.280        57
49.300        30
49.320        20
49.340        30
49.360        23
49.380        37
49.400        27
49.420        23
49.440        43
49.460        37
49.480        47
49.500        43
49.520        17
49.540        37
49.560        17
49.580        47
49.600        40
49.620        30
49.640        30
49.660        43
49.680        13
49.700         7
49.720        40
49.740        23
49.760        23
49.780        20
49.800        20
49.820        13
49.840        37
49.860        27
49.880        33
49.900        23
49.920        33
49.940        30
49.960        27
49.980        37
50.000        30
50.020        33
50.040        33
50.060        10
50.080        27
50.100        23
50.120        20
50.140        33
50.160        33
50.180        40
50.200        30
50.220        20
50.240         7
50.260        23
50.280        20
50.300        33
50.320        23
50.340        33
50.360        23
50.380        30
50.400        23
50.420        37
50.440        30
50.460        23
50.480        47
50.500        20
50.520        17
50.540        20
50.560        20
50.580        23
50.600        33
50.620        63
50.640        23
50.660        10
50.680        20
50.700        23
50.720        10
50.740        40
50.760        40
50.780        10
50.800        20
50.820        17
50.840        33
50.860        20
50.880        40
50.900        23
50.920        17
50.940        27
50.960        30
50.980        30
51.000        37
51.020        17
51.040        23
51.060        23
51.080        43
51.100        20
51.120        23
51.140        33
51.160        17
51.180        23
51.200        13
51.220        20
51.240        20
51.260        33
51.280        13
51.300        17
51.320        27
51.340        30
51.360        47
51.380        40
51.400        33
51.420        27
51.440        27
51.460        43
51.480        20
51.500        27
51.520        20
51.540        23
51.560        33
51.580        30
51.600        20
51.620        17
51.640        37
51.660        20
51.680        43
51.700        27
51.720        40
51.740        40
51.760        33
51.780        13
51.800        33
51.820        30
51.840        20
51.860        27
51.880        50
51.900        30
51.920        40
51.940        47
51.960        33
51.980        40
52.000        30
52.020        47
52.040        37
52.060        37
52.080        27
52.100        43
52.120        30
52.140        33
52.160        30
52.180        30
52.200        53
52.220        50
52.240        50
52.260        47
52.280        27
52.300        33
52.320        33
52.340        90
52.360        30
52.380        47
52.400        60
52.420        43
52.440        63
52.460        57
52.480        93
52.500        70
52.520        47
52.540        77
52.560        73
52.580        77
52.600        70
52.620        77
52.640        77
52.660        97
52.680        83
52.700        73
52.720        80
52.740        67
52.760        47
52.780        73
52.800        80
52.820        73
52.840        63
52.860        47
52.880        70
52.900        67
52.920        37
52.940        53
52.960        23
52.980        37
53.000        47
53.020        40
53.040        40
53.060        37
53.080        50
53.100        43
53.120        53
53.140        17
53.160        53
53.180        37
53.200        20
53.220        33
53.240        33
53.260        33
53.280        40
53.300        20
53.320        33
53.340        53
53.360        37
53.380        60
53.400        33
53.420        27
53.440        13
53.460        20
53.480        30
53.500        30
53.520        20
53.540        27
53.560        43
53.580        30
53.600        27
53.620        37
53.640        23
53.660         3
53.680        17
53.700        30
53.720        33
53.740        50
53.760        37
53.780        17
53.800         7
53.820        43
53.840        33
53.860        43
53.880        13
53.900        17
53.920        27
53.940        20
53.960        37
53.980        27
54.000        20
54.020        27
54.040         3
54.060        23
54.080        30
54.100        27
54.120        30
54.140        13
54.160        27
54.180        17
54.200        17
54.220        23
54.240        33
54.260        23
54.280        23
54.300        27
54.320        27
54.340        23
54.360        13
54.380        20
54.400        13
54.420        27
54.440        20
54.460        30
54.480        27
54.500        20
54.520        17
54.540        30
54.560        13
54.580        20
54.600        20
54.620        20
54.640        30
54.660        10
54.680        20
54.700        17
54.720        17
54.740        13
54.760        20
54.780        37
54.800        37
54.820        20
54.840        30
54.860        17
54.880        13
54.900        30
54.920        13
54.940        13
54.960        23
54.980        27
55.000        27
55.020        33
55.040        37
55.060        37
55.080        20
55.100        17
55.120        13
55.140        10
55.160        33
55.180        10
55.200        13
55.220        13
55.240         7
55.260        20
55.280        27
55.300        20
55.320        23
55.340        30
55.360        20
55.380        33
55.400        20
55.420        20
55.440        17
55.460        10
55.480        13
55.500        13
55.520        27
55.540        37
55.560        17
55.580        33
55.600        10
55.620        23
55.640        17
55.660        20
55.680        17
55.700        20
55.720         7
55.740        17
55.760        27
55.780         7
55.800        30
55.820        10
55.840        27
55.860        30
55.880        10
55.900        13
55.920        20
55.940        23
55.960        27
55.980        23
56.000        40
56.020        17
56.040        20
56.060        20
56.080        23
56.100        23
56.120        10
56.140        17
56.160        23
56.180        23
56.200        23
56.220        13
56.240        27
56.260        20
56.280        10
56.300         7
56.320        20
56.340        13
56.360        13
56.380        27
56.400        17
56.420        33
56.440        23
56.460        27
56.480        20
56.500         7
56.520        23
56.540        20
56.560        27
56.580        17
56.600        13
56.620        10
56.640        10
56.660        23
56.680         3
56.700        33
56.720        13
56.740        37
56.760        23
56.780        33
56.800        37
56.820        17
56.840        20
56.860        17
56.880         3
56.900        23
56.920         7
56.940        10
56.960        17
56.980        20
57.000        23
57.020        20
57.040        13
57.060        13
57.080        30
57.100        27
57.120        20
57.140        17
57.160        20
57.180        27
57.200        20
57.220        20
57.240        27
57.260        13
57.280        30
57.300        30
57.320        23
57.340        37
57.360        40
57.380        37
57.400        27
57.420        27
57.440        17
57.460        30
57.480        23
57.500        23
57.520        20
57.540        17
57.560        17
57.580        30
57.600        13
57.620         7
57.640        27
57.660        13
57.680        17
57.700        27
57.720        20
57.740        13
57.760         7
57.780        23
57.800        20
57.820        33
57.840        27
57.860        17
57.880        13
57.900        23
57.920        13
57.940        23
57.960        23
57.980        17
58.000        17
58.020        30
58.040        20
58.060        30
58.080         7
58.100        27
58.120        20
58.140         7
58.160        20
58.180        13
58.200        13
58.220        17
58.240        13
58.260        20
58.280        20
58.300        17
58.320        20
58.340        23
58.360        10
58.380        10
58.400        13
58.420        13
58.440        33
58.460        27
58.480        17
58.500        10
58.520        10
58.540        23
58.560        10
58.580        20
58.600        20
58.620        20
58.640        17
58.660        10
58.680        23
58.700         7
58.720        13
58.740         7
58.760         7
58.780        17
58.800        10
58.820        23
58.840         7
58.860        33
58.880        13
58.900        33
58.920        10
58.940         7
58.960        10
58.980        10
59.000        17
59.020         7
59.040        10
59.060        20
59.080        23
59.100        23
59.120        10
59.140        10
59.160        13
59.180        20
59.200         3
59.220        17
59.240        13
59.260        17
59.280        17
59.300        17
59.320         7
59.340        10
59.360        10
59.380        20
59.400        17
59.420         7
59.440        13
59.460        23
59.480        10
59.500         7
59.520         7
59.540        27
59.560        17
59.580         3
59.600        10
59.620        13
59.640         7
59.660        10
59.680        20
59.700        30
59.720         7
59.740        10
59.760        10
59.780         3
59.800        10
59.820        13
59.840        20
59.860        13
59.880        20
59.900        20
59.920         7
59.940        33
59.960        17
59.980        20
60.000        30
