20.000        47
20.010        93
20.020        73
20.030        47
20.040        33
20.050        53
20.060        47
20.070        40
20.080        40
20.090        73
20.100        53
20.110        80
20.120        20
20.130        47
20.140        33
20.150        47
20.160        60
20.170        53
20.180        13
20.190        47
20.200        20
20.210        27
20.220        40
20.230        47
20.240        13
20.250        73
20.260        27
20.270        47
20.280        40
20.290        47
20.300        53
20.310        40
20.320        60
20.330        27
20.340        47
20.350        53
20.360        40
20.370        60
20.380        13
20.390        73
20.400        60
20.410        27
20.420        67
20.430        67
20.440        27
20.450        47
20.460       100
20.470        53
20.480        27
20.490        67
20.500        20
20.510        27
20.520        87
20.530        27
20.540        67
20.550        53
20.560        60
20.570        53
20.580        53
20.590        33
20.600        47
20.610        27
20.620        40
20.630        40
20.640        40
20.650        33
20.660        40
20.670        47
20.680        27
20.690        27
20.700        73
20.710        67
20.720        53
20.730        27
20.740        27
20.750        47
20.760        60
20.770        33
20.780        27
20.790        27
20.800        27
20.810        27
20.820        53
20.830        27
20.840        47
20.850        60
20.860        73
20.870        60
20.880        13
20.890        27
20.900        73
20.910        20
20.920        13
20.930        53
20.940        13
20.950        20
20.960        60
20.970        47
20.980        40
20.990        60
21.000        33
21.010        47
21.020        40
21.030        27
21.040        47
21.050        60
21.060        53
21.070        73
21.080        60
21.090         7
21.100        40
21.110         7
21.120        47
21.130        53
21.140        73
21.150        40
21.160        67
21.170        33
21.180        20
21.190        27
21.200        40
21.210        47
21.220        47
21.230        33
21.240        40
21.250        67
21.260        53
21.270        13
21.280        87
21.290        27
21.300        33
21.310        53
21.320        20
21.330        27
21.340        27
21.350        60
21.360        60
21.370        33
21.380        27
21.390        40
21.400        60
21.410        47
21.420        33
21.430        47
21.440        33
21.450        47
21.460        47
21.470        27
21.480        13
21.490        40
21.500        33
21.510        33
21.520        27
21.530        47
21.540        20
21.550        13
21.560        60
21.570        47
21.580        40
21.590        60
21.600        40
21.610        33
21.620        47
21.630        60
21.640        13
21.650        20
21.660        27
21.670        33
21.680        27
21.690        40
21.700        47
21.710         7
21.720        33
21.730        27
21.740        40
21.750        27
21.760        20
21.770        67
21.780         0
21.790        53
21.800        47
21.810        33
21.820        47
21.830        13
21.840        47
21.850        53
21.860        27
21.870        53
21.880        13
21.890        53
21.900        47
21.910        27
21.920        40
21.930        27
21.940        20
21.950        20
21.960        33
21.970        60
21.980         7
21.990        20
22.000        47
22.010        40
22.020        40
22.030        27
22.040        33
22.050        53
22.060        27
22.070        13
22.080        33
22.090        40
22.100        40
22.110        20
22.120        13
22.130        47
22.140        47
22.150        13
22.160        47
22.170        53
22.180        60
22.190        40
22.200        47
22.210        67
22.220        33
22.230        53
22.240        53
22.250        33
22.260        27
22.270        67
22.280        40
22.290        40
22.300        40
22.310        27
22.320        47
22.330        33
22.340        20
22.350        40
22.360        27
22.370        20
22.380        40
22.390        53
22.400        53
22.410        47
22.420        33
22.430        60
22.440        20
22.450        60
22.460        40
22.470        53
22.480        33
22.490        27
22.500        27
22.510        60
22.520        33
22.530         7
22.540        40
22.550        27
22.560        20
22.570        47
22.580        40
22.590        40
22.600        53
22.610        67
22.620        27
22.630        27
22.640        53
22.650        33
22.660        20
22.670        47
22.680        40
22.690        40
22.700        20
22.710        27
22.720        20
22.730        67
22.740        53
22.750        47
22.760        20
22.770        13
22.780        73
22.790        13
22.800        13
22.810        53
22.820        40
22.830        73
22.840        27
22.850        60
22.860        27
22.870        47
22.880        40
22.890        47
22.900        13
22.910        47
22.920         7
22.930        40
22.940        47
22.950        27
22.960        20
22.970        53
22.980        47
22.990        20
23.000        33
23.010        13
23.020        67
23.030        33
23.040        13
23.050        53
23.060        33
23.070        40
23.080        33
23.090        73
23.100        60
23.110        27
23.120         7
23.130        40
23.140        47
23.150        33
23.160        40
23.170        20
23.180        33
23.190        20
23.200        47
23.210        20
23.220        27
23.230        20
23.240        47
23.250        60
23.260        40
23.270         7
23.280        40
23.290        20
23.300        40
23.310        20
23.320        20
23.330        27
23.340        33
23.350        20
23.360        67
23.370        27
23.380        40
23.390        47
23.400        40
23.410        33
23.420        53
23.430        33
23.440        33
23.450        47
23.460        40
23.470        33
23.480        20
23.490        33
23.500        93
23.510        27
23.520        27
23.530        47
23.540        47
23.550        53
23.560        33
23.570        47
23.580        20
23.590        20
23.600        27
23.610        40
23.620        40
23.630        27
23.640        33
23.650         7
23.660        33
23.670        47
23.680        20
23.690        33
23.700        27
23.710        33
23.720        20
23.730        20
23.740        20
23.750        53
23.760        53
23.770        47
23.780        27
23.790        40
23.800        60
23.810        60
23.820        13
23.830        20
23.840        53
23.850        33
23.860        27
23.870        40
23.880        20
23.890        20
23.900        20
23.910        33
23.920        33
23.930        33
23.940        20
23.950        27
23.960        20
23.970        13
23.980        27
23.990        60
24.000        53
24.010        27
24.020        13
24.030        40
24.040        33
24.050        53
24.060        33
24.070        13
24.080        27
24.090        33
24.100        20
24.110        40
24.120        40
24.130        27
24.140        47
24.150        13
24.160        47
24.170        33
24.180        33
24.190        27
24.200         7
24.210        33
24.220        33
24.230        40
24.240        53
24.250        33
24.260        27
24.270        33
24.280        47
24.290        47
24.300        33
24.310        27
24.320        33
24.330        40
24.340        33
24.350        60
24.360        40
24.370        33
24.380        47
24.390        20
24.400        27
24.410        87
24.420        47
24.430        27
24.440        40
24.450        33
24.460         7
24.470        40
24.480        13
24.490        33
24.500        33
24.510        40
24.520        40
24.530         7
24.540        27
24.550        13
24.560        13
24.570        27
24.580        33
24.590        33
24.600        33
24.610        27
24.620        40
24.630        40
24.640        40
24.650        20
24.660        40
24.670        47
24.680         7
24.690        67
24.700        67
24.710        33
24.720        27
24.730        33
24.740        13
24.750        20
24.760        40
24.770        20
24.780        27
24.790         7
24.800        47
24.810        27
24.820        27
24.830        27
24.840        20
24.850        40
24.860        33
24.870        27
24.880        27
24.890        27
24.900        53
24.910        13
24.920        47
24.930        33
24.940        20
24.950        33
24.960        27
24.970        27
24.980        13
24.990        33
25.000        27
25.010        47
25.020        20
25.030        60
25.040        27
25.050        67
25.060        13
25.070         7
25.080        53
25.090        20
25.100        13
25.110        13
25.120        13
25.130        33
25.140        27
25.150        40
25.160        13
25.170        47
25.180        20
25.190        40
25.200        33
25.210        53
25.220        47
25.230        47
25.240        40
25.250        27
25.260        13
25.270        27
25.280        33
25.290        13
25.300        13
25.310        20
25.320        53
25.330        40
25.340        73
25.350        27
25.360        40
25.370        20
25.380        20
25.390        13
25.400        33
25.410        47
25.420        33
25.430        27
25.440        40
25.450        40
25.460        47
25.470        27
25.480        60
25.490        67
25.500        47
25.510        47
25.520        20
25.530        33
25.540        33
25.550        13
25.560        20
25.570        27
25.580        27
25.590        53
25.600        27
25.610        33
25.620        20
25.630        33
25.640        33
25.650        40
25.660        40
25.670        27
25.680        53
25.690        53
25.700        47
25.710        33
25.720        33
25.730        40
25.740        47
25.750        33
25.760        47
25.770        47
25.780        20
25.790        47
25.800        53
25.810        40
25.820        53
25.830        40
25.840        27
25.850        20
25.860        33
25.870        27
25.880        33
25.890        27
25.900        33
25.910        20
25.920        20
25.930        20
25.940        33
25.950        20
25.960        13
25.970        20
25.980        20
25.990        27
26.000        47
26.010        27
26.020        40
26.030        27
26.040        20
26.050        33
26.060        27
26.070        40
26.080        20
26.090        20
26.100        47
26.110        33
26.120        53
26.130        13
26.140        33
26.150        27
26.160        27
26.170        20
26.180        33
26.190        13
26.200        13
26.210        33
26.220        13
26.230        27
26.240        40
26.250        53
26.260        27
26.270        33
26.280        20
26.290        13
26.300        20
26.310        40
26.320        13
26.330        33
26.340        33
26.350        27
26.360        27
26.370        27
26.380        20
26.390        53
26.400        27
26.410         0
26.420        27
26.430        33
26.440        33
26.450        47
26.460        33
26.470        40
26.480        47
26.490        20
26.500        60
26.510        60
26.520        20
26.530        33
26.540        33
26.550        53
26.560        67
26.570        27
26.580        13
26.590        33
26.600        33
26.610        27
26.620        13
26.630        20
26.640        40
26.650        47
26.660        20
26.670        40
26.680        73
26.690        60
26.700        13
26.710        20
26.720        20
26.730        33
26.740        40
26.750        40
26.760        47
26.770        20
26.780        47
26.790        27
26.800        33
26.810        13
26.820        47
26.830        27
26.840        33
26.850        60
26.860        47
26.870        33
26.880        33
26.890        13
26.900        40
26.910        47
26.920        27
26.930        27
26.940        40
26.950        20
26.960         7
26.970        13
26.980        40
26.990        13
27.000        47
27.010        47
27.020        40
27.030        33
27.040        20
27.050        40
27.060        13
27.070        33
27.080        20
27.090        13
27.100        33
27.110        47
27.120        27
27.130        27
27.140        20
27.150        33
27.160        20
27.170        40
27.180        20
27.190         7
27.200        27
27.210        20
27.220        33
27.230        47
27.240        47
27.250        27
27.260        40
27.270        73
27.280        13
27.290        27
27.300         7
27.310        33
27.320        47
27.330        27
27.340        20
27.350        40
27.360        53
27.370        33
27.380        33
27.390        33
27.400         0
27.410        20
27.420        20
27.430        13
27.440        20
27.450        40
27.460        20
27.470        40
27.480        47
27.490        47
27.500        27
27.510        20
27.520        13
27.530        27
27.540        13
27.550        33
27.560        33
27.570        40
27.580        20
27.590        20
27.600        33
27.610        27
27.620        73
27.630        13
27.640        53
27.650        33
27.660        33
27.670        20
27.680        47
27.690        40
27.700        27
27.710        40
27.720        40
27.730        33
27.740        27
27.750        53
27.760        53
27.770        53
27.780        27
27.790        40
27.800        47
27.810        33
27.820        53
27.830        53
27.840        53
27.850       100
27.860        67
27.870        87
27.880        60
27.890        33
27.900        53
27.910        67
27.920        47
27.930        47
27.940        33
27.950        60
27.960        47
27.970         7
27.980        67
27.990        33
28.000        20
28.010        20
28.020        13
28.030        47
28.040        33
28.050        13
28.060        40
28.070        13
28.080        33
28.090        60
28.100        27
28.110        27
28.120        27
28.130        33
28.140        27
28.150        33
28.160        27
28.170        20
28.180        40
28.190        47
28.200        33
28.210        27
28.220        33
28.230        13
28.240        47
28.250        20
28.260        27
28.270        13
28.280        27
28.290        47
28.300        47
28.310        27
28.320        20
28.330        33
28.340        20
28.350        13
28.360        60
28.370        40
28.380        13
28.390        60
28.400        33
28.410        53
28.420        13
28.430        27
28.440        33
28.450        20
28.460        40
28.470        20
28.480        20
28.490        27
28.500        47
28.510        20
28.520        40
28.530        33
28.540        33
28.550        20
28.560        13
28.570        40
28.580        73
28.590        40
28.600        20
28.610        33
28.620        20
28.630        27
28.640        20
28.650        20
28.660        13
28.670        13
28.680        67
28.690        27
28.700        53
28.710        33
28.720        20
28.730        27
28.740        33
28.750        27
28.760        20
28.770        27
28.780        33
28.790        47
28.800        33
28.810        27
28.820        27
28.830        33
28.840        33
28.850        20
28.860         7
28.870        13
28.880        40
28.890        20
28.900        27
28.910        27
28.920        20
28.930        20
28.940        20
28.950        20
28.960        33
28.970        13
28.980        20
28.990        40
29.000        20
29.010        20
29.020        80
29.030        13
29.040        20
29.050        40
29.060        40
29.070        20
29.080        20
29.090        20
29.100        27
29.110        33
29.120        20
29.130        27
29.140         7
29.150        47
29.160        20
29.170        27
29.180        47
29.190        13
29.200        20
29.210        20
29.220        27
29.230        13
29.240         7
29.250        40
29.260        20
29.270        40
29.280        27
29.290        27
29.300        20
29.310        53
29.320        40
29.330        27
29.340        20
29.350        33
29.360        20
29.370        40
29.380        33
29.390        20
29.400        13
29.410         7
29.420        13
29.430        27
29.440        60
29.450        27
29.460        40
29.470        47
29.480        33
29.490        27
29.500        33
29.510        47
29.520        40
29.530        33
29.540         0
29.550        20
29.560        47
29.570        33
29.580        47
29.590        27
29.600        20
29.610        40
29.620        13
29.630        27
29.640        13
29.650        60
29.660        47
29.670        27
29.680        27
29.690         7
29.700        20
29.710        47
29.720        40
29.730        20
29.740        60
29.750        33
29.760        33
29.770        47
29.780        53
29.790        27
29.800        53
29.810        13
29.820        27
29.830        47
29.840        27
29.850        53
29.860        53
29.870        67
29.880        53
29.890        47
29.900        47
29.910       100
29.920        33
29.930        67
29.940        53
29.950        47
29.960        33
29.970        33
29.980        80
29.990        73
30.000        60
30.010        60
30.020        33
30.030        40
30.040         7
30.050        87
30.060        67
30.070        73
30.080        40
30.090        47
30.100        53
30.110        53
30.120        87
30.130        47
30.140        40
30.150        53
30.160        40
30.170        60
30.180        60
30.190        40
30.200        67
30.210        67
30.220        73
30.230        67
30.240       100
30.250        60
30.260        53
30.270        73
30.280        67
30.290        60
30.300        67
30.310        60
30.320        80
30.330        67
30.340        53
30.350        93
30.360        60
30.370        60
30.380        73
30.390        80
30.400        40
30.410       133
30.420       100
30.430        93
30.440        87
30.450       107
30.460        93
30.470        80
30.480        80
30.490        40
30.500        87
30.510        93
30.520        60
30.530       120
30.540        60
30.550       100
30.560       107
30.570       193
30.580        87
30.590       173
30.600       140
30.610       133
30.620       133
30.630       167
30.640       220
30.650       213
30.660       280
30.670       320
30.680       240
30.690       420
30.700       460
30.710       367
30.720       566
30.730       586
30.740       613
30.750       740
30.760       933
30.770      1053
30.780      1246
30.790      1326
30.800      1553
30.810      1753
30.820      1906
30.830      2319
30.840      2826
30.850      3312
30.860      4018
30.870      4112
30.880      4845
30.890      5258
30.900      5684
30.910      5978
30.920      6191
30.930      6164
30.940      5884
30.950      5804
30.960      6178
30.970      5271
30.980      5165
30.990      4505
31.000      4098
31.010      3525
31.020      3179
31.030      2932
31.040      2272
31.050      2046
31.060      1513
31.070      1333
31.080      1146
31.090      1020
31.100       600
31.110       526
31.120       393
31.130       413
31.140       280
31.150       340
31.160       213
31.170       233
31.180       260
31.190       287
31.200       207
31.210       120
31.220       193
31.230       180
31.240       133
31.250       133
31.260        93
31.270       133
31.280       113
31.290       127
31.300        93
31.310       127
31.320        73
31.330        60
31.340        80
31.350        60
31.360       127
31.370       120
31.380        87
31.390        93
31.400       100
31.410       120
31.420        80
31.430       107
31.440        60
31.450        73
31.460        73
31.470       107
31.480        80
31.490       113
31.500        73
31.510        87
31.520       120
31.530        53
31.540        93
31.550        47
31.560        73
31.570       107
31.580        20
31.590        53
31.600        67
31.610        53
31.620        40
31.630        47
31.640        93
31.650        47
31.660        40
31.670        80
31.680        33
31.690         7
31.700        47
31.710        67
31.720        73
31.730        27
31.740        93
31.750        53
31.760        60
31.770        67
31.780       113
31.790        80
31.800        40
31.810       107
31.820        27
31.830        47
31.840        33
31.850        87
31.860        93
31.870        20
31.880        40
31.890        27
31.900        73
31.910        67
31.920        40
31.930        67
31.940        33
31.950        60
31.960        20
31.970        87
31.980        33
31.990        47
32.000       113
32.010        20
32.020        47
32.030        40
32.040         0
32.050        47
32.060        33
32.070        20
32.080        13
32.090        40
32.100        20
32.110        47
32.120        53
32.130        60
32.140        67
32.150        53
32.160         0
32.170        60
32.180        47
32.190        80
32.200        47
32.210        13
32.220        53
32.230        40
32.240        27
32.250        27
32.260        40
32.270        13
32.280        33
32.290        33
32.300        53
32.310        60
32.320        40
32.330        47
32.340        53
32.350        27
32.360         7
32.370        40
32.380        33
32.390        27
32.400        53
32.410        20
32.420        60
32.430        40
32.440        47
32.450        93
32.460        40
32.470        40
32.480        13
32.490        73
32.500        53
32.510        13
32.520        47
32.530        13
32.540        27
32.550        20
32.560        20
32.570        53
32.580        13
32.590        67
32.600        47
32.610        53
32.620        47
32.630        20
32.640        33
32.650        47
32.660        27
32.670        27
32.680        40
32.690        40
32.700        40
32.710        27
32.720        47
32.730        27
32.740        27
32.750        40
32.760        87
32.770        33
32.780        40
32.790        60
32.800        47
32.810        27
32.820        20
32.830        27
32.840        33
32.850        27
32.860        40
32.870        33
32.880        20
32.890        33
32.900        53
32.910        27
32.920        20
32.930        47
32.940        20
32.950        40
32.960        53
32.970        47
32.980        20
32.990        27
33.000        33
33.010        27
33.020        33
33.030        33
33.040        20
33.050        27
33.060        20
33.070        27
33.080        40
33.090        47
33.100        53
33.110        87
33.120        40
33.130        47
33.140        40
33.150        40
33.160        27
33.170        53
33.180        33
33.190        20
33.200        47
33.210        53
33.220        27
33.230        40
33.240        33
33.250        33
33.260        53
33.270        47
33.280        47
33.290         7
33.300        47
33.310        53
33.320        47
33.330        27
33.340        27
33.350        33
33.360        20
33.370        27
33.380        27
33.390        33
33.400        27
33.410        27
33.420        40
33.430        33
33.440        20
33.450        40
33.460        20
33.470        20
33.480        40
33.490        33
33.500        27
33.510        33
33.520        40
33.530        33
33.540        27
33.550        47
33.560        27
33.570        40
33.580        33
33.590        60
33.600        33
33.610         7
33.620        20
33.630        13
33.640        33
33.650        40
33.660        40
33.670         7
33.680        27
33.690        33
33.700        40
33.710        20
33.720        40
33.730        27
33.740        60
33.750        40
33.760        53
33.770        27
33.780        73
33.790        47
33.800        20
33.810        33
33.820        13
33.830        40
33.840        27
33.850        33
33.860        27
33.870        67
33.880        33
33.890        20
33.900        40
33.910        20
33.920        40
33.930        73
33.940        33
33.950        40
33.960        53
33.970        60
33.980        33
33.990        40
34.000        33
34.010        40
34.020        27
34.030        27
34.040        47
34.050        20
34.060        27
34.070        47
34.080        40
34.090        47
34.100         7
34.110        40
34.120        53
34.130        13
34.140        60
34.150        40
34.160        67
34.170        13
34.180        27
34.190        53
34.200        27
34.210        47
34.220        13
34.230        67
34.240        40
34.250        80
34.260        20
34.270        27
34.280        60
34.290        40
34.300        47
34.310         7
34.320         7
34.330        47
34.340        27
34.350        13
34.360        40
34.370        40
34.380        73
34.390        40
34.400        13
34.410        40
34.420        27
34.430        27
34.440        27
34.450        13
34.460        27
34.470        33
34.480        53
34.490         7
34.500        33
34.510        33
34.520        27
34.530        40
34.540        40
34.550        13
34.560        33
34.570        20
34.580        53
34.590        40
34.600        13
34.610        20
34.620        20
34.630        27
34.640        13
34.650        33
34.660        27
34.670        20
34.680        20
34.690        47
34.700        20
34.710        53
34.720        33
34.730        47
34.740         0
34.750        47
34.760         7
34.770        33
34.780        20
34.790        47
34.800        33
34.810        33
34.820        13
34.830        27
34.840        33
34.850        40
34.860         7
34.870        33
34.880         7
34.890        33
34.900        53
34.910        40
34.920        67
34.930        20
34.940         7
34.950        40
34.960        13
34.970        27
34.980        47
34.990        20
35.000        13
35.010        33
35.020        13
35.030        40
35.040        67
35.050        27
35.060        27
35.070        27
35.080        40
35.090        33
35.100        33
35.110        13
35.120        53
35.130        40
35.140        33
35.150        33
35.160        33
35.170        27
35.180        20
35.190        13
35.200        20
35.210        13
35.220        47
35.230        27
35.240        40
35.250        13
35.260        33
35.270        20
35.280        33
35.290        27
35.300        47
35.310        40
35.320        33
35.330        40
35.340        47
35.350        27
35.360        47
35.370        27
35.380        40
35.390        20
35.400        20
35.410        20
35.420        20
35.430        40
35.440        20
35.450        13
35.460        27
35.470        47
35.480        33
35.490        40
35.500        47
35.510        20
35.520        27
35.530        40
35.540        20
35.550        33
35.560        47
35.570        20
35.580        13
35.590        20
35.600        13
35.610        47
35.620        33
35.630        33
35.640        40
35.650        27
35.660        47
35.670        13
35.680        13
35.690        40
35.700        27
35.710        47
35.720        47
35.730        27
35.740        13
35.750        33
35.760        33
35.770        33
35.780        20
35.790        13
35.800        27
35.810        27
35.820        27
35.830        27
35.840        27
35.850        27
35.860        27
35.870        27
35.880        27
35.890        40
35.900        33
35.910        13
35.920        27
35.930        40
35.940        40
35.950        27
35.960        40
35.970        40
35.980        40
35.990        27
36.000        20
36.010        40
36.020        27
36.030        27
36.040         7
36.050        27
36.060        13
36.070        33
36.080        13
36.090        33
36.100        33
36.110         7
36.120        33
36.130        40
36.140        33
36.150        33
36.160         0
36.170        13
36.180        47
36.190        33
36.200        13
36.210         7
36.220        20
36.230        60
36.240        27
36.250        20
36.260         7
36.270        33
36.280        33
36.290        33
36.300        53
36.310        27
36.320        20
36.330        20
36.340        33
36.350        33
36.360        47
36.370        20
36.380        53
36.390        20
36.400        33
36.410        27
36.420        27
36.430        20
36.440        20
36.450        47
36.460         7
36.470         7
36.480        13
36.490        20
36.500        27
36.510        27
36.520         7
36.530        20
36.540        73
36.550        27
36.560        33
36.570        20
36.580        20
36.590        20
36.600        27
36.610         0
36.620        27
36.630         0
36.640        27
36.650        20
36.660         7
36.670        33
36.680        33
36.690        20
36.700        13
36.710        33
36.720        40
36.730        20
36.740        20
36.750        20
36.760        20
36.770        20
36.780        13
36.790        47
36.800        47
36.810         0
36.820        13
36.830         0
36.840        27
36.850        33
36.860         7
36.870        13
36.880        27
36.890        27
36.900        20
36.910        20
36.920        27
36.930        33
36.940        20
36.950         0
36.960        20
36.970        40
36.980        47
36.990        27
37.000        27
37.010        27
37.020        40
37.030        20
37.040        20
37.050        27
37.060        27
37.070        33
37.080         7
37.090        27
37.100        40
37.110        20
37.120         7
37.130        13
37.140        20
37.150        33
37.160         7
37.170         7
37.180        13
37.190        47
37.200        20
37.210         0
37.220         7
37.230        13
37.240        27
37.250        47
37.260        33
37.270        20
37.280        27
37.290        13
37.300         7
37.310        33
37.320        13
37.330         7
37.340        60
37.350        20
37.360        27
37.370        20
37.380         0
37.390        13
37.400        13
37.410        33
37.420        20
37.430        13
37.440         7
37.450        33
37.460        33
37.470        20
37.480        33
37.490        27
37.500        20
37.510        20
37.520        33
37.530         7
37.540        40
37.550        27
37.560        20
37.570        27
37.580        33
37.590        40
37.600        27
37.610        13
37.620        13
37.630        40
37.640        13
37.650        27
37.660        40
37.670        40
37.680        40
37.690        20
37.700        27
37.710        20
37.720         7
37.730        20
37.740        47
37.750        47
37.760        20
37.770        27
37.780        27
37.790        20
37.800        67
37.810        27
37.820        40
37.830        53
37.840        40
37.850        20
37.860        20
37.870        27
37.880        20
37.890        47
37.900        13
37.910        20
37.920        47
37.930        20
37.940        20
37.950        13
37.960        27
37.970        47
37.980        20
37.990        27
38.000        40
38.010        33
38.020        27
38.030        20
38.040        53
38.050        47
38.060        40
38.070        27
38.080        60
38.090        73
38.100        27
38.110        40
38.120        33
38.130        27
38.140        47
38.150        27
38.160        20
38.170        27
38.180        33
38.190        53
38.200         0
38.210        27
38.220        33
38.230        40
38.240        47
38.250        60
38.260        53
38.270        60
38.280        20
38.290        27
38.300        53
38.310        27
38.320        33
38.330        47
38.340        27
38.350        67
38.360        13
38.370        40
38.380        40
38.390        40
38.400        47
38.410        27
38.420        20
38.430        27
38.440        20
38.450        27
38.460        33
38.470        27
38.480        33
38.490         7
38.500        27
38.510        33
38.520        13
38.530        27
38.540        27
38.550        47
38.560        47
38.570        27
38.580        13
38.590        20
38.600        33
38.610        33
38.620         0
38.630        47
38.640        27
38.650        20
38.660        13
38.670        27
38.680        47
38.690         7
38.700         7
38.710        40
38.720        13
38.730        20
38.740         0
38.750        13
38.760        13
38.770        13
38.780        33
38.790         7
38.800        27
38.810        33
38.820        27
38.830        33
38.840        27
38.850        33
38.860        40
38.870        47
38.880        27
38.890        47
38.900        40
38.910        20
38.920        27
38.930         7
38.940        13
38.950         0
38.960        33
38.970         7
38.980        67
38.990        20
39.000        33
39.010         0
39.020         7
39.030        27
39.040        13
39.050        20
39.060        20
39.070         7
39.080        13
39.090        27
39.100        40
39.110        20
39.120        20
39.130        27
39.140        13
39.150        33
39.160        33
39.170         7
39.180        40
39.190        13
39.200        13
39.210        27
39.220        13
39.230         7
39.240         7
39.250         7
39.260        27
39.270        33
39.280        20
39.290        27
39.300        40
39.310        13
39.320        27
39.330        40
39.340        13
39.350         7
39.360        40
39.370        20
39.380        27
39.390        20
39.400         0
39.410        27
39.420        33
39.430        13
39.440        13
39.450        20
39.460        13
39.470        40
39.480        13
39.490        27
39.500        20
39.510        27
39.520        27
39.530        20
39.540        20
39.550        47
39.560         0
39.570         7
39.580        20
39.590        13
39.600        27
39.610        27
39.620         7
39.630        33
39.640        13
39.650        33
39.660        13
39.670        33
39.680        40
39.690         7
39.700        33
39.710         0
39.720        20
39.730        20
39.740         7
39.750        13
39.760        13
39.770        20
39.780        20
39.790        13
39.800        40
39.810        20
39.820        27
39.830        33
39.840         0
39.850        27
39.860         0
39.870        13
39.880        20
39.890        13
39.900        20
39.910        20
39.920        20
39.930         7
39.940        20
39.950        27
39.960        33
39.970         7
39.980        27
39.990        60
40.000        20
40.010         7
40.020        20
40.030         7
40.040        20
40.050        40
40.060        13
40.070        27
40.080        33
40.090         7
40.100        27
40.110        20
40.120        20
40.130         0
40.140         7
40.150        20
40.160         7
40.170        13
40.180        20
40.190        27
40.200        27
40.210        60
40.220        13
40.230        20
40.240        13
40.250        40
40.260        27
40.270        27
40.280         7
40.290         0
40.300         7
40.310        40
40.320        20
40.330        47
40.340        13
40.350        27
40.360        27
40.370        33
40.380        27
40.390         7
40.400        47
40.410        20
40.420         7
40.430        40
40.440        20
40.450         7
40.460        20
40.470        40
40.480        33
40.490        20
40.500        33
40.510        53
40.520        13
40.530        27
40.540        13
40.550        27
40.560        13
40.570        20
40.580        27
40.590        13
40.600        27
40.610         0
40.620        33
40.630        20
40.640        33
40.650        40
40.660        27
40.670        20
40.680         0
40.690        13
40.700        20
40.710        20
40.720        20
40.730        20
40.740         7
40.750        20
40.760        13
40.770        27
40.780         7
40.790        27
40.800        33
40.810        20
40.820        33
40.830        13
40.840        13
40.850        27
40.860        40
40.870        20
40.880        27
40.890         7
40.900         7
40.910        13
40.920        20
40.930         7
40.940        13
40.950        27
40.960        27
40.970        47
40.980         7
40.990        40
41.000        33
41.010        13
41.020         7
41.030        27
41.040         7
41.050         7
41.060        20
41.070         7
41.080        20
41.090        27
41.100        13
41.110        13
41.120        27
41.130        20
41.140         7
41.150        20
41.160         7
41.170        20
41.180        27
41.190         7
41.200         7
41.210        20
41.220        13
41.230        20
41.240         7
41.250         7
41.260        13
41.270        33
41.280        27
41.290        27
41.300        33
41.310        27
41.320        27
41.330        20
41.340        27
41.350        27
41.360        27
41.370        20
41.380        33
41.390        13
41.400        13
41.410        20
41.420        13
41.430        27
41.440         7
41.450        33
41.460        33
41.470         0
41.480        27
41.490        47
41.500        20
41.510         0
41.520        13
41.530        13
41.540        20
41.550        27
41.560        27
41.570        13
41.580         7
41.590        47
41.600        20
41.610        40
41.620        33
41.630        40
41.640        33
41.650        80
41.660        67
41.670        33
41.680        60
41.690        73
41.700        80
41.710        73
41.720       147
41.730        93
41.740        67
41.750        53
41.760        53
41.770        13
41.780        47
41.790        67
41.800        47
41.810        53
41.820        47
41.830        20
41.840        80
41.850        47
41.860        13
41.870        13
41.880        20
41.890        27
41.900        20
41.910        33
41.920        33
41.930        27
41.940        20
41.950        27
41.960         7
41.970        27
41.980        40
41.990        13
42.000        20
42.010        13
42.020        27
42.030        27
42.040        13
42.050        33
42.060        20
42.070        60
42.080         7
42.090        20
42.100        20
42.110        27
42.120        13
42.130         7
42.140        13
42.150        20
42.160         7
42.170         7
42.180        33
42.190        27
42.200        27
42.210        13
42.220        27
42.230        20
42.240        33
42.250        40
42.260        20
42.270        33
42.280        27
42.290        13
42.300        13
42.310        27
42.320        20
42.330         7
42.340        13
42.350         0
42.360        20
42.370         7
42.380         0
42.390        13
42.400        20
42.410        13
42.420        33
42.430        13
42.440        13
42.450        13
42.460        27
42.470        13
42.480        27
42.490        20
42.500         7
42.510        20
42.520         7
42.530        33
42.540        33
42.550        20
42.560        33
42.570        27
42.580        20
42.590        20
42.600         7
42.610        13
42.620        13
42.630        20
42.640        27
42.650        33
42.660         0
42.670        27
42.680         7
42.690        20
42.700        33
42.710        53
42.720        13
42.730        27
42.740        27
42.750         0
42.760        27
42.770        27
42.780        13
42.790         0
42.800        20
42.810        27
42.820        20
42.830         7
42.840        13
42.850        27
42.860        33
42.870        20
42.880         7
42.890        20
42.900        27
42.910        33
42.920        13
42.930        33
42.940        20
42.950         7
42.960        13
42.970         7
42.980        20
42.990        27
43.000        20
43.010         7
43.020         7
43.030        20
43.040        27
43.050        20
43.060        20
43.070        47
43.080        13
43.090        33
43.100        27
43.110         7
43.120        20
43.130        40
43.140        27
43.150        27
43.160        40
43.170        27
43.180        13
43.190        13
43.200        33
43.210        20
43.220        20
43.230        20
43.240        20
43.250        33
43.260        20
43.270        20
43.280        13
43.290        27
43.300        20
43.310        80
43.320        33
43.330        27
43.340        67
43.350        73
43.360        67
43.370        87
43.380        47
43.390        40
43.400        40
43.410        40
43.420        40
43.430        20
43.440        93
43.450        47
43.460        20
43.470        40
43.480        47
43.490        20
43.500        33
43.510        27
43.520        27
43.530         7
43.540         7
43.550        27
43.560        27
43.570        13
43.580        20
43.590        13
43.600         7
43.610        20
43.620        13
43.630        13
43.640        27
43.650         7
43.660         7
43.670        20
43.680        20
43.690        13
43.700        20
43.710        13
43.720        27
43.730        33
43.740        27
43.750        20
43.760        20
43.770        33
43.780        40
43.790        33
43.800        13
43.810        27
43.820         0
43.830        27
43.840        13
43.850        33
43.860        33
43.870        40
43.880         7
43.890        33
43.900        13
43.910         7
43.920        13
43.930        27
43.940        20
43.950        47
43.960        20
43.970        20
43.980         7
43.990         7
44.000        27
44.010        40
44.020         7
44.030        13
44.040         7
44.050        20
44.060        27
44.070        40
44.080         0
44.090        40
44.100        27
44.110        20
44.120         7
44.130        20
44.140        27
44.150        27
44.160        13
44.170        27
44.180        27
44.190        27
44.200        13
44.210        33
44.220         7
44.230        33
44.240        40
44.250         7
44.260        13
44.270        33
44.280        33
44.290        33
44.300         7
44.310        13
44.320        27
44.330        27
44.340        33
44.350        13
44.360        40
44.370        13
44.380        27
44.390        47
44.400        20
44.410        33
44.420         7
44.430        40
44.440        13
44.450        27
44.460        20
44.470        27
44.480        27
44.490        20
44.500        13
44.510        13
44.520        20
44.530        27
44.540        20
44.550        20
44.560        27
44.570        33
44.580        13
44.590        20
44.600         7
44.610        20
44.620        47
44.630        27
44.640        27
44.650         0
44.660        27
44.670         0
44.680         0
44.690         7
44.700        33
44.710        20
44.720        13
44.730        20
44.740        20
44.750        33
44.760        40
44.770        20
44.780        13
44.790        20
44.800        33
44.810        13
44.820        13
44.830        13
44.840        40
44.850         7
44.860         7
44.870        40
44.880        27
44.890        20
44.900        20
44.910        20
44.920        27
44.930        13
44.940        33
44.950        20
44.960        13
44.970        20
44.980        27
44.990        13
45.000        13
45.010        13
45.020        13
45.030        13
45.040        53
45.050         7
45.060         7
45.070         0
45.080        27
45.090        20
45.100        27
45.110        20
45.120        13
45.130        13
45.140        53
45.150        13
45.160        20
45.170        33
45.180        20
45.190         7
45.200        13
45.210        20
45.220        33
45.230        13
45.240        20
45.250         7
45.260        20
45.270        13
45.280        13
45.290        20
45.300         7
45.310        33
45.320        20
45.330        20
45.340        13
45.350        40
45.360        13
45.370        13
45.380        20
45.390        20
45.400        33
45.410        33
45.420        27
45.430        27
45.440         0
45.450        33
45.460        27
45.470         0
45.480        27
45.490        20
45.500         7
45.510        13
45.520        13
45.530         7
45.540        13
45.550         7
45.560        27
45.570        27
45.580        33
45.590         7
45.600        27
45.610        20
45.620        33
45.630        13
45.640        13
45.650        27
45.660         7
45.670         7
45.680        20
45.690        13
45.700        20
45.710        13
45.720        27
45.730         7
45.740         7
45.750        20
45.760        20
45.770        27
45.780        20
45.790        33
45.800        40
45.810        27
45.820        27
45.830        20
45.840        13
45.850         7
45.860         7
45.870        13
45.880        20
45.890         7
45.900        13
45.910        13
45.920        27
45.930         7
45.940        27
45.950        13
45.960         0
45.970        40
45.980        13
45.990        33
46.000        27
46.010        13
46.020         7
46.030        13
46.040        20
46.050         0
46.060         7
46.070         7
46.080        20
46.090        20
46.100         0
46.110        33
46.120        13
46.130        33
46.140        20
46.150        47
46.160         7
46.170         7
46.180        27
46.190         7
46.200         7
46.210         0
46.220         0
46.230        40
46.240        13
46.250        13
46.260        33
46.270        20
46.280        27
46.290        20
46.300        13
46.310        27
46.320        13
46.330        20
46.340         0
46.350        20
46.360        40
46.370        33
46.380        13
46.390         7
46.400        27
46.410        40
46.420        13
46.430        13
46.440        13
46.450        20
46.460        13
46.470         0
46.480         7
46.490        27
46.500        27
46.510        20
46.520        27
46.530        27
46.540         7
46.550        13
46.560         0
46.570        40
46.580        13
46.590        20
46.600        13
46.610        27
46.620        27
46.630        33
46.640        27
46.650         7
46.660        20
46.670        27
46.680        27
46.690        27
46.700        13
46.710         0
46.720        33
46.730         7
46.740         0
46.750        27
46.760        20
46.770        40
46.780        20
46.790         0
46.800        13
46.810        27
46.820        13
46.830        27
46.840        20
46.850        33
46.860         7
46.870        40
46.880         7
46.890         7
46.900        20
46.910        20
46.920        27
46.930         7
46.940         7
46.950        33
46.960        27
46.970        13
46.980        27
46.990        20
47.000        20
47.010        27
47.020        27
47.030        40
47.040        20
47.050        27
47.060        33
47.070        20
47.080         0
47.090        47
47.100        27
47.110        33
47.120        27
47.130        33
47.140        13
47.150        20
47.160        20
47.170        33
47.180         0
47.190        27
47.200         7
47.210        20
47.220        20
47.230        13
47.240        20
47.250        27
47.260        13
47.270        33
47.280        20
47.290        33
47.300        13
47.310         7
47.320        27
47.330         7
47.340        13
47.350        33
47.360         7
47.370        20
47.380        13
47.390        20
47.400        20
47.410         0
47.420        27
47.430        27
47.440         7
47.450        13
47.460        33
47.470        13
47.480         7
47.490        20
47.500        13
47.510         0
47.520         0
47.530        20
47.540        13
47.550        20
47.560        13
47.570         7
47.580         7
47.590         0
47.600        20
47.610        13
47.620        20
47.630        13
47.640        13
47.650        20
47.660        13
47.670        27
47.680         7
47.690         7
47.700        20
47.710        20
47.720        27
47.730        27
47.740         7
47.750        47
47.760         7
47.770        20
47.780        13
47.790        27
47.800        20
47.810        13
47.820         7
47.830         7
47.840        13
47.850         7
47.860         0
47.870        20
47.880        33
47.890         7
47.900         7
47.910        20
47.920        13
47.930         7
47.940         7
47.950        40
47.960        27
47.970        27
47.980         0
47.990        20
48.000        13
48.010        13
48.020        40
48.030         7
48.040        20
48.050        13
48.060         7
48.070         7
48.080        20
48.090        13
48.100        13
48.110        20
48.120         7
48.130        53
48.140        13
48.150        13
48.160         0
48.170        27
48.180        13
48.190        13
48.200         7
48.210         0
48.220         0
48.230         7
48.240        20
48.250        13
48.260        13
48.270        33
48.280        33
48.290        20
48.300         7
48.310        20
48.320        27
48.330        13
48.340        40
48.350        27
48.360        20
48.370        20
48.380        27
48.390        13
48.400        40
48.410        13
48.420        20
48.430        20
48.440        13
48.450         0
48.460        33
48.470        13
48.480        13
48.490        13
48.500        20
48.510        13
48.520        13
48.530        27
48.540        13
48.550        20
48.560        13
48.570        27
48.580        13
48.590         7
48.600        20
48.610        13
48.620         7
48.630        13
48.640         7
48.650         7
48.660         7
48.670        13
48.680        20
48.690        20
48.700        13
48.710         7
48.720        27
48.730        13
48.740         7
48.750         7
48.760        20
48.770        13
48.780        13
48.790        13
48.800        20
48.810        40
48.820         7
48.830        13
48.840        13
48.850         7
48.860        27
48.870        27
48.880        13
48.890        20
48.900        47
48.910        13
48.920        20
48.930        27
48.940        27
48.950        20
48.960        13
48.970        13
48.980         7
48.990         7
49.000        13
49.010        20
49.020        13
49.030         0
49.040         0
49.050        13
49.060         7
49.070        13
49.080        13
49.090        33
49.100        13
49.110         7
49.120        13
49.130        47
49.140        20
49.150         7
49.160        33
49.170        20
49.180        20
49.190        40
49.200        13
49.210         7
49.220        13
49.230        27
49.240         0
49.250        20
49.260        20
49.270        33
49.280        13
49.290         7
49.300        13
49.310         0
49.320        13
49.330         7
49.340        13
49.350        13
49.360        13
49.370        13
49.380        40
49.390        33
49.400        13
49.410        13
49.420        20
49.430         0
49.440         7
49.450        13
49.460        40
49.470        13
49.480        40
49.490        20
49.500        20
49.510        13
49.520        33
49.530        13
49.540        20
49.550        13
49.560         7
49.570        13
49.580        13
49.590        13
49.600        27
49.610        20
49.620        13
49.630        27
49.640        33
49.650        13
49.660         7
49.670        20
49.680        20
49.690        27
49.700        13
49.710        33
49.720        27
49.730        20
49.740         7
49.750        20
49.760         0
49.770        20
49.780        20
49.790        20
49.800        40
49.810        13
49.820        13
49.830        40
49.840         0
49.850        20
49.860        20
49.870        27
49.880        13
49.890         7
49.900         7
49.910        27
49.920        13
49.930        20
49.940         7
49.950        27
49.960        13
49.970        13
49.980        20
49.990        27
50.000        13
50.010        27
50.020         7
50.030        13
50.040        13
50.050        20
50.060         0
50.070        13
50.080        27
50.090        20
50.100        13
50.110         7
50.120        40
50.130        13
50.140         0
50.150        27
50.160        13
50.170         7
50.180         7
50.190        33
50.200         7
50.210        27
50.220        20
50.230        13
50.240        27
50.250        20
50.260        20
50.270        27
50.280        13
50.290        33
50.300        13
50.310        20
50.320        20
50.330        13
50.340        13
50.350         7
50.360        20
50.370         7
50.380        13
50.390        27
50.400        20
50.410        13
50.420        33
50.430        27
50.440        13
50.450        13
50.460         0
50.470        33
50.480         7
50.490        13
50.500        13
50.510        27
50.520        40
50.530        27
50.540        13
50.550        13
50.560         0
50.570        20
50.580         0
50.590        27
50.600        47
50.610        20
50.620        40
50.630        13
50.640         0
50.650         7
50.660        13
50.670         7
50.680         0
50.690        13
50.700        20
50.710         7
50.720        13
50.730        13
50.740        13
50.750         7
50.760        13
50.770        20
50.780         7
50.790        13
50.800        27
50.810        27
50.820        13
50.830        33
50.840         7
50.850        13
50.860        27
50.870        33
50.880         0
50.890        20
50.900        13
50.910        40
50.920         7
50.930        13
50.940        27
50.950         7
50.960        27
50.970        33
50.980         7
50.990         7
51.000        33
51.010        33
51.020         7
51.030        20
51.040        20
51.050        13
51.060         7
51.070        27
51.080         7
51.090         0
51.100         7
51.110         0
51.120        13
51.130        20
51.140         7
51.150         7
51.160        40
51.170         7
51.180        13
51.190        33
51.200        13
51.210         7
51.220        13
51.230        40
51.240        20
51.250         7
51.260        13
51.270         7
51.280        27
51.290        20
51.300        20
51.310         7
51.320        20
51.330         0
51.340        27
51.350        13
51.360         7
51.370        27
51.380        47
51.390        20
51.400        13
51.410        40
51.420         0
51.430        13
51.440         0
51.450        20
51.460         7
51.470         0
51.480        20
51.490         7
51.500         7
51.510        27
51.520        13
51.530        20
51.540         7
51.550        13
51.560        20
51.570         0
51.580        13
51.590        20
51.600         7
51.610         7
51.620         0
51.630        13
51.640        13
51.650         0
51.660         0
51.670         7
51.680        20
51.690        13
51.700         7
51.710        13
51.720        20
51.730        20
51.740        13
51.750         7
51.760        13
51.770        20
51.780        13
51.790        20
51.800        13
51.810        13
51.820        13
51.830        27
51.840        33
51.850        20
51.860         7
51.870        20
51.880        13
51.890        13
51.900         7
51.910        13
51.920        20
51.930        20
51.940        20
51.950        27
51.960        13
51.970        13
51.980        20
51.990        13
52.000         7
52.010        20
52.020         7
52.030        40
52.040        27
52.050         0
52.060         7
52.070        13
52.080         7
52.090        27
52.100         0
52.110         7
52.120         7
52.130        13
52.140        13
52.150        13
52.160         7
52.170        20
52.180         7
52.190        27
52.200         7
52.210        27
52.220         0
52.230        20
52.240        33
52.250        13
52.260        20
52.270        13
52.280        13
52.290        13
52.300        13
52.310         7
52.320        20
52.330         7
52.340        20
52.350        13
52.360        13
52.370        13
52.380         7
52.390        13
52.400        20
52.410        27
52.420        33
52.430         7
52.440        27
52.450        20
52.460        33
52.470        13
52.480        20
52.490        13
52.500        20
52.510        20
52.520        20
52.530        13
52.540        33
52.550        27
52.560        40
52.570        20
52.580        20
52.590        40
52.600        20
52.610        20
52.620         0
52.630        20
52.640        33
52.650        20
52.660        20
52.670        47
52.680        13
52.690        33
52.700         7
52.710        13
52.720        27
52.730        13
52.740         7
52.750        20
52.760         7
52.770        20
52.780        27
52.790        13
52.800         7
52.810        13
52.820        20
52.830        33
52.840        27
52.850        20
52.860        27
52.870         0
52.880         7
52.890         7
52.900         7
52.910         0
52.920        13
52.930        20
52.940        13
52.950        27
52.960         7
52.970         7
52.980         7
52.990        13
53.000        13
53.010         7
53.020        13
53.030         0
53.040        20
53.050         7
53.060         7
53.070        13
53.080        13
53.090         7
53.100        33
53.110        27
53.120        20
53.130         7
53.140         7
53.150         0
53.160        20
53.170         7
53.180        20
53.190        13
53.200         7
53.210        20
53.220         7
53.230        13
53.240         7
53.250        13
53.260         0
53.270        27
53.280        13
53.290        20
53.300        27
53.310         7
53.320         7
53.330        20
53.340        13
53.350         7
53.360        33
53.370        27
53.380        13
53.390        20
53.400        13
53.410         7
53.420         7
53.430         7
53.440         7
53.450        13
53.460        13
53.470         7
53.480        13
53.490         7
53.500         0
53.510        13
53.520        20
53.530        27
53.540        33
53.550        33
53.560         7
53.570         7
53.580        13
53.590        27
53.600        13
53.610         7
53.620        33
53.630        33
53.640        13
53.650        27
53.660        33
53.670        13
53.680         0
53.690        33
53.700         0
53.710        20
53.720         7
53.730         7
53.740        20
53.750        33
53.760         7
53.770         7
53.780        33
53.790         0
53.800         7
53.810        40
53.820         0
53.830        20
53.840        20
53.850        13
53.860         0
53.870        20
53.880        20
53.890        33
53.900        33
53.910         7
53.920        27
53.930        33
53.940        40
53.950         0
53.960        13
53.970        27
53.980        13
53.990        20
54.000        13
54.010        13
54.020         7
54.030         7
54.040         7
54.050        27
54.060         7
54.070        27
54.080         7
54.090        40
54.100        33
54.110        20
54.120        20
54.130         7
54.140        27
54.150        20
54.160         7
54.170        27
54.180        20
54.190         7
54.200        13
54.210         7
54.220        20
54.230        13
54.240        20
54.250        27
54.260        20
54.270        13
54.280        13
54.290        40
54.300        27
54.310        20
54.320        13
54.330        20
54.340         0
54.350        40
54.360         0
54.370        20
54.380         0
54.390         7
54.400        27
54.410         0
54.420        20
54.430         7
54.440        13
54.450        13
54.460         0
54.470         0
54.480        20
54.490         7
54.500        27
54.510        20
54.520        27
54.530         7
54.540        13
54.550        20
54.560        13
54.570         0
54.580        27
54.590        20
54.600        20
54.610         0
54.620        33
54.630        13
54.640         7
54.650        20
54.660        13
54.670        27
54.680        33
54.690        20
54.700         0
54.710        20
54.720        13
54.730        33
54.740         7
54.750        13
54.760        20
54.770        20
54.780        13
54.790        27
54.800        20
54.810        40
54.820        20
54.830        13
54.840        20
54.850        27
54.860        40
54.870        27
54.880        40
54.890        20
54.900        47
54.910        27
54.920        40
54.930        60
54.940        87
54.950        40
54.960        60
54.970        67
54.980       100
54.990        67
55.000        67
55.010       100
55.020       127
55.030        73
55.040        93
55.050       100
55.060        80
55.070        87
55.080        87
55.090        53
55.100       107
55.110        80
55.120       120
55.130        93
55.140       113
55.150        80
55.160       100
55.170        67
55.180        93
55.190       113
55.200        67
55.210        40
55.220        60
55.230        80
55.240        40
55.250        53
55.260        80
55.270        67
55.280        40
55.290        40
55.300         7
55.310        40
55.320        47
55.330        67
55.340        33
55.350        33
55.360        40
55.370        13
55.380        33
55.390        27
55.400        27
55.410        13
55.420         7
55.430        40
55.440        27
55.450        40
55.460        13
55.470        13
55.480         7
55.490        13
55.500        13
55.510        40
55.520        13
55.530         7
55.540        33
55.550        20
55.560        13
55.570        27
55.580        20
55.590        27
55.600        20
55.610         7
55.620        20
55.630         7
55.640        33
55.650         0
55.660         7
55.670        13
55.680        20
55.690        13
55.700         7
55.710         0
55.720         0
55.730         7
55.740        27
55.750        20
55.760         7
55.770        33
55.780        20
55.790        27
55.800        27
55.810         7
55.820        13
55.830        13
55.840        27
55.850        13
55.860         7
55.870        13
55.880        40
55.890         7
55.900         7
55.910        27
55.920         7
55.930        20
55.940        20
55.950         7
55.960        13
55.970         0
55.980         7
55.990        20
56.000         7
56.010        13
56.020        20
56.030        40
56.040        13
56.050        27
56.060         7
56.070        13
56.080        20
56.090        27
56.100        13
56.110         7
56.120        20
56.130        20
56.140        27
56.150        13
56.160        20
56.170        27
56.180        27
56.190        27
56.200         0
56.210        20
56.220        13
56.230         0
56.240        20
56.250        13
56.260        33
56.270        27
56.280         0
56.290         7
56.300         0
56.310        13
56.320         7
56.330        13
56.340        27
56.350        20
56.360         0
56.370        27
56.380         7
56.390        27
56.400        27
56.410         0
56.420        20
56.430        33
56.440        13
56.450        27
56.460        20
56.470        33
56.480        20
56.490         0
56.500         7
56.510         7
56.520         0
56.530        20
56.540        27
56.550         7
56.560        13
56.570         7
56.580        13
56.590        13
56.600        13
56.610        13
56.620        33
56.630        13
56.640        13
56.650        20
56.660         0
56.670        13
56.680        13
56.690        33
56.700        33
56.710        13
56.720        20
56.730        20
56.740        13
56.750        13
56.760         7
56.770        20
56.780         7
56.790        27
56.800        13
56.810        20
56.820        13
56.830        27
56.840        13
56.850        53
56.860         7
56.870         7
56.880         7
56.890        13
56.900        20
56.910         0
56.920        20
56.930         0
56.940        13
56.950        13
56.960        13
56.970        33
56.980        20
56.990         0
57.000        20
57.010         0
57.020         7
57.030        13
57.040        20
57.050        13
57.060        40
57.070        27
57.080        27
57.090         7
57.100        20
57.110         7
57.120        27
57.130        20
57.140        33
57.150        40
57.160         7
57.170        13
57.180        33
57.190        13
57.200         7
57.210        20
57.220        13
57.230        40
57.240        33
57.250         7
57.260        27
57.270        13
57.280        13
57.290         0
57.300        20
57.310        13
57.320        27
57.330        13
57.340        13
57.350         7
57.360        27
57.370        33
57.380        27
57.390        13
57.400        20
57.410        33
57.420        13
57.430        27
57.440         7
57.450        47
57.460        53
57.470        27
57.480        60
57.490        73
57.500        40
57.510        87
57.520        80
57.530        93
57.540        60
57.550        53
57.560        73
57.570        47
57.580        40
57.590         7
57.600        33
57.610         7
57.620        47
57.630        40
57.640        47
57.650        40
57.660        53
57.670        87
57.680        20
57.690        27
57.700        67
57.710        60
57.720        20
57.730        40
57.740        13
57.750         7
57.760        40
57.770        20
57.780        27
57.790        27
57.800         7
57.810        20
57.820        20
57.830         7
57.840        27
57.850        27
57.860        40
57.870        20
57.880         7
57.890        13
57.900         7
57.910         7
57.920         7
57.930        33
57.940         7
57.950        13
57.960        13
57.970         7
57.980        33
57.990         7
58.000        20
58.010         7
58.020        20
58.030        13
58.040         7
58.050        27
58.060        20
58.070        13
58.080         7
58.090        20
58.100         0
58.110         7
58.120        20
58.130        13
58.140        27
58.150        13
58.160        13
58.170         7
58.180         7
58.190        27
58.200        20
58.210        27
58.220        20
58.230         7
58.240        27
58.250        13
58.260         0
58.270        20
58.280        20
58.290        20
58.300        27
58.310         7
58.320         7
58.330        13
58.340        13
58.350        13
58.360         7
58.370         7
58.380         7
58.390        13
58.400        13
58.410         7
58.420         7
58.430         7
58.440        27
58.450         0
58.460         7
58.470        33
58.480         7
58.490        27
58.500        13
58.510        20
58.520        27
58.530        20
58.540        20
58.550        13
58.560        20
58.570        20
58.580         0
58.590        20
58.600        13
58.610         7
58.620        13
58.630        13
58.640        33
58.650        27
58.660        13
58.670        20
58.680        33
58.690         7
58.700        20
58.710        13
58.720        27
58.730         7
58.740         7
58.750        13
58.760         7
58.770        20
58.780         0
58.790        27
58.800        13
58.810        13
58.820        13
58.830        20
58.840         7
58.850        20
58.860         7
58.870        27
58.880        20
58.890        27
58.900         0
58.910         7
58.920        13
58.930         7
58.940         7
58.950         7
58.960         0
58.970        13
58.980        13
58.990        13
59.000         7
59.010         7
59.020         0
59.030        20
59.040        20
59.050         0
59.060         7
59.070         7
59.080         7
59.090         7
59.100         7
59.110         7
59.120         7
59.130        13
59.140        20
59.150        40
59.160        27
59.170        13
59.180        20
59.190        20
59.200        27
59.210         7
59.220        13
59.230        20
59.240        27
59.250         7
59.260        13
59.270        13
59.280        20
59.290        13
59.300         7
59.310         0
59.320        27
59.330        27
59.340         0
59.350        13
59.360         0
59.370         7
59.380         7
59.390         0
59.400         7
59.410        33
59.420        33
59.430        27
59.440        13
59.450         7
59.460        13
59.470         0
59.480        13
59.490         0
59.500        13
59.510        13
59.520        20
59.530        20
59.540        27
59.550         0
59.560         7
59.570        13
59.580        33
59.590         0
59.600        13
59.610        13
59.620         7
59.630        20
59.640        27
59.650         0
59.660        40
59.670        27
59.680        13
59.690         7
59.700        27
59.710        27
59.720        20
59.730        13
59.740         0
59.750        13
59.760         7
59.770        20
59.780        13
59.790         0
59.800         7
59.810         7
59.820        27
59.830        13
59.840         0
59.850        13
59.860        20
59.870        13
59.880        27
59.890         0
59.900         0
59.910        20
59.920        20
59.930         0
59.940        20
59.950        20
59.960        13
59.970        13
59.980         0
59.990         7
60.000         7
