20.000        13
20.010        13
20.020        40
20.030        53
20.040         0
20.050        67
20.060        53
20.070        53
20.080        27
20.090        67
20.100        93
20.110        67
20.120        80
20.130        40
20.140         0
20.150        53
20.160        27
20.170        93
20.180        40
20.190        40
20.200        40
20.210        27
20.220        67
20.230        40
20.240        40
20.250        40
20.260        27
20.270        93
20.280        40
20.290        40
20.300        27
20.310        40
20.320        40
20.330        53
20.340        27
20.350        40
20.360         0
20.370        27
20.380        67
20.390        27
20.400        67
20.410        13
20.420        93
20.430        40
20.440        67
20.450        40
20.460        40
20.470        27
20.480        13
20.490        40
20.500        93
20.510        67
20.520        53
20.530        53
20.540        27
20.550        27
20.560        40
20.570        40
20.580        53
20.590        27
20.600        53
20.610        27
20.620        27
20.630        27
20.640        27
20.650        80
20.660        67
20.670        13
20.680        53
20.690        93
20.700        40
20.710        40
20.720        93
20.730        53
20.740        40
20.750        67
20.760        53
20.770        27
20.780        67
20.790        40
20.800        53
20.810        53
20.820        40
20.830        27
20.840        53
20.850        40
20.860        80
20.870        40
20.880        40
20.890        53
20.900        27
20.910        27
20.920        27
20.930        67
20.940        27
20.950        53
20.960        27
20.970        53
20.980        27
20.990        53
21.000        13
21.010        13
21.020        27
21.030        27
21.040        67
21.050        40
21.060        27
21.070        67
21.080        27
21.090        13
21.100       107
21.110        40
21.120        67
21.130        67
21.140        13
21.150        53
21.160        40
21.170        53
21.180        53
21.190        80
21.200        53
21.210        27
21.220        53
21.230        40
21.240        13
21.250        67
21.260        40
21.270        40
21.280        40
21.290        80
21.300        80
21.310        67
21.320        40
21.330        13
21.340        40
21.350        40
21.360         0
21.370        80
21.380        40
21.390        40
21.400        40
21.410        53
21.420        13
21.430        13
21.440        40
21.450        13
21.460        13
21.470         0
21.480        67
21.490        27
21.500        13
21.510        80
21.520        40
21.530        40
21.540        27
21.550        80
21.560        53
21.570         0
21.580        67
21.590        40
21.600        53
21.610        53
21.620        53
21.630        40
21.640        40
21.650        53
21.660        13
21.670        53
21.680       107
21.690        53
21.700        13
21.710        53
21.720        13
21.730        80
21.740        27
21.750        27
21.760        40
21.770        40
21.780        53
21.790        13
21.800        27
21.810        40
21.820        27
21.830        67
21.840        53
21.850        53
21.860         0
21.870        27
21.880        40
21.890        27
21.900        40
21.910        53
21.920        27
21.930        93
21.940        53
21.950         0
21.960        13
21.970        67
21.980        13
21.990        40
22.000        40
22.010        53
22.020        27
22.030        13
22.040        27
22.050        80
22.060        53
22.070        53
22.080        27
22.090        27
22.100        27
22.110        27
22.120        27
22.130        40
22.140        13
22.150        27
22.160        67
22.170        53
22.180        40
22.190        40
22.200        27
22.210         0
22.220        13
22.230        27
22.240        40
22.250        53
22.260        13
22.270        13
22.280        40
22.290        27
22.300        67
22.310        40
22.320        67
22.330        27
22.340        13
22.350        93
22.360        40
22.370        13
22.380        53
22.390        27
22.400        27
22.410        13
22.420        53
22.430        53
22.440        13
22.450       107
22.460        53
22.470        53
22.480        13
22.490        13
22.500        40
22.510        40
22.520        13
22.530        53
22.540        53
22.550        53
22.560        27
22.570        40
22.580        53
22.590        40
22.600        53
22.610        53
22.620        40
22.630        27
22.640        93
22.650        40
22.660        27
22.670        40
22.680        67
22.690        13
22.700        27
22.710        13
22.720        27
22.730        67
22.740        13
22.750        53
22.760        40
22.770        27
22.780        13
22.790        53
22.800        13
22.810        53
22.820        13
22.830        40
22.840        13
22.850        53
22.860        40
22.870        40
22.880        40
22.890        27
22.900        40
22.910        53
22.920        13
22.930        13
22.940        40
22.950        53
22.960        27
22.970        40
22.980        53
22.990        13
23.000        27
23.010        27
23.020        40
23.030        40
23.040        80
23.050        53
23.060        53
23.070        13
23.080        53
23.090        13
23.100        13
23.110        40
23.120        53
23.130        27
23.140        27
23.150        27
23.160        80
23.170        53
23.180        13
23.190        40
23.200        53
23.210        27
23.220        13
23.230        53
23.240        53
23.250         0
23.260        13
23.270        40
23.280        53
23.290        40
23.300        67
23.310        53
23.320        67
23.330        80
23.340        27
23.350         0
23.360        80
23.370        40
23.380        40
23.390        67
23.400        40
23.410        53
23.420        27
23.430        53
23.440        27
23.450        67
23.460        53
23.470        27
23.480        27
23.490        40
23.500        53
23.510        53
23.520        27
23.530        53
23.540        13
23.550        13
23.560        13
23.570        13
23.580        27
23.590        40
23.600        27
23.610         0
23.620        40
23.630        40
23.640        40
23.650        27
23.660         0
23.670        40
23.680         0
23.690        53
23.700        67
23.710        53
23.720        40
23.730        27
23.740        13
23.750        67
23.760        80
23.770        53
23.780        13
23.790        13
23.800        13
23.810        13
23.820         0
23.830        40
23.840        53
23.850        13
23.860        27
23.870        27
23.880        67
23.890        27
23.900        40
23.910        27
23.920        13
23.930        53
23.940         0
23.950        53
23.960        53
23.970        13
23.980        40
23.990        13
24.000        40
24.010        40
24.020        13
24.030        80
24.040        13
24.050         0
24.060        40
24.070        27
24.080        40
24.090        13
24.100        27
24.110        53
24.120        53
24.130        40
24.140        13
24.150        13
24.160        13
24.170         0
24.180        40
24.190        67
24.200        53
24.210        13
24.220         0
24.230        53
24.240        80
24.250        40
24.260        40
24.270        13
24.280        53
24.290        93
24.300        40
24.310        40
24.320        27
24.330        27
24.340         0
24.350        27
24.360        53
24.370        13
24.380        40
24.390        27
24.400        27
24.410        13
24.420        27
24.430       107
24.440         0
24.450        13
24.460         0
24.470        40
24.480        27
24.490        27
24.500        27
24.510        53
24.520        67
24.530        40
24.540         0
24.550        53
24.560        27
24.570        13
24.580        40
24.590        67
24.600        27
24.610        27
24.620        13
24.630         0
24.640        53
24.650        27
24.660        13
24.670         0
24.680        40
24.690        53
24.700        40
24.710        53
24.720         0
24.730        40
24.740        40
24.750        13
24.760        67
24.770        13
24.780        40
24.790        13
24.800        13
24.810        40
24.820        13
24.830        27
24.840        27
24.850        13
24.860        13
24.870        27
24.880        40
24.890        13
24.900        40
24.910        13
24.920        27
24.930        27
24.940        27
24.950        40
24.960        13
24.970        27
24.980        27
24.990        27
25.000        40
25.010        27
25.020        13
25.030        40
25.040        40
25.050        13
25.060        27
25.070         0
25.080         0
25.090        27
25.100        40
25.110        27
25.120        27
25.130        67
25.140        13
25.150        40
25.160         0
25.170        27
25.180        27
25.190        27
25.200        53
25.210         0
25.220        27
25.230        27
25.240        40
25.250        27
25.260        40
25.270        80
25.280         0
25.290        40
25.300        27
25.310        27
25.320        40
25.330        13
25.340        40
25.350        27
25.360        40
25.370        27
25.380        27
25.390        27
25.400        53
25.410        27
25.420        80
25.430        53
25.440         0
25.450        27
25.460        40
25.470        67
25.480        13
25.490         0
25.500       107
25.510        67
25.520        27
25.530        40
25.540        13
25.550        27
25.560        40
25.570        40
25.580        53
25.590        67
25.600        27
25.610        27
25.620         0
25.630        93
25.640        53
25.650        40
25.660        27
25.670         0
25.680        13
25.690        27
25.700        53
25.710        27
25.720        40
25.730        27
25.740        13
25.750        13
25.760        40
25.770        13
25.780         0
25.790        13
25.800        80
25.810        27
25.820         0
25.830        93
25.840        13
25.850        40
25.860        13
25.870         0
25.880         0
25.890        27
25.900        40
25.910        27
25.920        40
25.930        13
25.940        40
25.950        27
25.960        53
25.970        27
25.980        40
25.990        53
26.000        13
26.010        13
26.020        53
26.030         0
26.040        27
26.050        27
26.060        13
26.070        27
26.080         0
26.090        40
26.100        13
26.110        67
26.120        13
26.130        13
26.140        13
26.150        13
26.160        27
26.170        27
26.180        27
26.190        53
26.200        13
26.210        27
26.220        80
26.230        13
26.240        53
26.250        40
26.260        13
26.270        40
26.280        27
26.290        40
26.300         0
26.310        40
26.320        53
26.330        13
26.340        80
26.350        27
26.360        67
26.370        13
26.380        27
26.390        53
26.400        40
26.410        27
26.420        13
26.430        13
26.440         0
26.450        27
26.460        27
26.470        40
26.480        27
26.490        13
26.500        40
26.510        13
26.520        27
26.530        27
26.540        40
26.550        13
26.560        13
26.570        53
26.580        27
26.590        27
26.600        27
26.610        27
26.620        13
26.630        67
26.640        53
26.650        40
26.660         0
26.670        40
26.680        67
26.690        67
26.700        53
26.710        13
26.720        13
26.730        13
26.740        53
26.750        40
26.760        40
26.770        40
26.780        13
26.790        27
26.800        13
26.810        13
26.820        27
26.830        53
26.840        53
26.850        13
26.860        13
26.870        13
26.880        13
26.890        40
26.900        13
26.910        27
26.920        27
26.930        13
26.940         0
26.950        67
26.960         0
26.970        13
26.980        27
26.990        67
27.000         0
27.010        13
27.020        13
27.030        27
27.040        13
27.050        40
27.060        13
27.070        13
27.080         0
27.090        40
27.100        13
27.110        13
27.120        27
27.130        13
27.140        53
27.150        13
27.160        27
27.170        13
27.180        40
27.190         0
27.200        13
27.210        13
27.220        13
27.230        40
27.240         0
27.250        13
27.260        13
27.270        27
27.280        40
27.290        27
27.300        27
27.310        27
27.320        27
27.330        80
27.340        27
27.350        40
27.360        27
27.370        27
27.380        27
27.390        40
27.400        27
27.410        40
27.420        13
27.430        13
27.440         0
27.450        13
27.460        13
27.470        27
27.480        27
27.490        67
27.500        40
27.510        53
27.520        40
27.530        40
27.540         0
27.550        40
27.560         0
27.570        40
27.580        27
27.590         0
27.600        27
27.610        40
27.620        27
27.630        27
27.640        13
27.650         0
27.660        40
27.670        40
27.680        13
27.690        67
27.700        13
27.710        40
27.720        80
27.730        40
27.740        27
27.750        53
27.760        53
27.770        40
27.780        13
27.790        53
27.800        53
27.810        27
27.820        67
27.830        27
27.840        67
27.850        93
27.860       107
27.870        13
27.880        67
27.890        80
27.900        67
27.910        40
27.920        40
27.930        40
27.940         0
27.950        27
27.960        40
27.970        80
27.980        53
27.990        13
28.000        13
28.010        13
28.020         0
28.030         0
28.040        67
28.050        53
28.060        13
28.070        13
28.080        13
28.090        27
28.100        40
28.110        53
28.120        13
28.130         0
28.140        53
28.150        40
28.160        40
28.170        13
28.180        27
28.190        27
28.200        27
28.210        13
28.220        40
28.230        13
28.240        53
28.250        27
28.260        13
28.270        40
28.280        27
28.290        27
28.300        53
28.310        40
28.320        27
28.330         0
28.340        40
28.350        13
28.360        13
28.370        27
28.380        27
28.390         0
28.400        53
28.410        27
28.420        40
28.430        67
28.440        13
28.450        40
28.460        53
28.470        13
28.480        40
28.490        67
28.500        27
28.510        40
28.520        53
28.530        40
28.540        13
28.550        27
28.560        13
28.570        27
28.580        40
28.590        27
28.600         0
28.610         0
28.620        13
28.630        27
28.640        27
28.650        27
28.660         0
28.670        40
28.680        27
28.690        13
28.700        13
28.710        67
28.720        67
28.730        27
28.740        27
28.750        13
28.760        27
28.770         0
28.780        27
28.790        40
28.800        27
28.810        27
28.820         0
28.830        27
28.840        40
28.850         0
28.860        53
28.870        13
28.880        27
28.890        13
28.900        53
28.910        13
28.920        27
28.930        27
28.940        53
28.950        13
28.960         0
28.970        13
28.980        27
28.990        40
29.000        27
29.010        53
29.020        40
29.030        27
29.040        13
29.050        27
29.060         0
29.070        40
29.080        27
29.090        67
29.100        53
29.110        27
29.120        27
29.130        53
29.140        27
29.150         0
29.160        13
29.170         0
29.180        13
29.190        27
29.200        27
29.210        40
29.220         0
29.230        40
29.240        40
29.250        13
29.260         0
29.270        40
29.280        53
29.290        27
29.300        13
29.310         0
29.320        27
29.330        40
29.340        67
29.350        13
29.360        40
29.370        27
29.380        13
29.390        13
29.400        67
29.410        27
29.420        40
29.430        13
29.440        13
29.450        27
29.460        13
29.470        67
29.480        13
29.490        27
29.500       107
29.510        27
29.520        13
29.530        13
29.540        40
29.550        13
29.560        13
29.570        67
29.580        53
29.590        13
29.600        53
29.610        27
29.620        67
29.630        13
29.640        27
29.650        53
29.660        53
29.670        80
29.680        67
29.690        27
29.700        13
29.710        40
29.720        27
29.730        27
29.740        27
29.750        53
29.760         0
29.770        93
29.780        40
29.790        67
29.800        13
29.810        53
29.820        53
29.830        40
29.840        53
29.850        13
29.860        93
29.870        53
29.880        67
29.890        67
29.900        40
29.910        53
29.920        67
29.930        40
29.940        40
29.950        40
29.960        67
29.970        53
29.980        80
29.990        40
30.000        53
30.010        27
30.020        67
30.030        53
30.040        53
30.050        40
30.060       107
30.070        67
30.080        67
30.090        67
30.100        13
30.110        80
30.120       120
30.130        27
30.140        53
30.150        67
30.160       107
30.170        40
30.180       107
30.190        53
30.200        40
30.210        40
30.220       107
30.230        40
30.240        53
30.250        53
30.260        67
30.270       133
30.280        53
30.290       120
30.300        53
30.310        53
30.320        27
30.330        67
30.340        93
30.350        80
30.360        53
30.370       120
30.380        80
30.390       133
30.400        93
30.410       107
30.420       160
30.430       133
30.440        13
30.450        40
30.460        53
30.470        53
30.480        93
30.490        80
30.500       107
30.510       147
30.520        67
30.530        80
30.540       133
30.550       120
30.560       133
30.570       160
30.580       213
30.590       173
30.600       253
30.610       253
30.620       187
30.630       240
30.640       333
30.650       280
30.660       320
30.670       320
30.680       387
30.690       400
30.700       400
30.710       493
30.720       640
30.730       640
30.740       786
30.750       840
30.760       973
30.770      1519
30.780      1266
30.790      1506
30.800      1759
30.810      1986
30.820      2066
30.830      2546
30.840      2559
30.850      3052
30.860      3412
30.870      3479
30.880      4252
30.890      4372
30.900      4705
30.910      4585
30.920      4412
30.930      5158
30.940      5145
30.950      5131
30.960      4771
30.970      4225
30.980      3652
30.990      3572
31.000      3492
31.010      2945
31.020      2612
31.030      2239
31.040      1986
31.050      1639
31.060      1426
31.070      1053
31.080      1106
31.090       720
31.100       640
31.110       560
31.120       533
31.130       546
31.140       426
31.150       280
31.160       387
31.170       387
31.180       267
31.190       173
31.200       253
31.210       133
31.220        93
31.230       160
31.240       307
31.250       107
31.260       187
31.270       187
31.280       120
31.290       133
31.300       160
31.310       120
31.320       120
31.330        93
31.340       107
31.350       120
31.360       107
31.370       107
31.380       107
31.390       133
31.400       133
31.410       107
31.420        67
31.430        67
31.440       107
31.450        93
31.460        27
31.470       133
31.480        40
31.490        80
31.500       120
31.510        27
31.520        80
31.530        40
31.540        93
31.550        53
31.560        80
31.570       133
31.580        53
31.590        27
31.600        67
31.610        53
31.620        93
31.630        93
31.640       133
31.650        67
31.660        80
31.670        53
31.680        80
31.690        27
31.700        27
31.710        53
31.720        53
31.730        93
31.740        80
31.750        40
31.760        67
31.770        27
31.780        40
31.790        53
31.800        67
31.810        67
31.820        80
31.830        93
31.840        53
31.850        27
31.860        93
31.870        80
31.880        27
31.890        27
31.900        53
31.910        67
31.920        13
31.930        40
31.940        27
31.950        67
31.960        27
31.970        40
31.980        27
31.990        53
32.000        53
32.010         0
32.020        93
32.030        27
32.040        13
32.050        13
32.060        67
32.070        53
32.080        13
32.090        53
32.100        93
32.110       107
32.120        27
32.130        53
32.140        13
32.150        13
32.160        93
32.170        53
32.180        40
32.190        13
32.200        40
32.210        40
32.220       107
32.230        27
32.240        27
32.250        27
32.260        67
32.270        67
32.280        40
32.290        67
32.300        13
32.310        27
32.320        93
32.330        27
32.340        40
32.350        13
32.360        53
32.370        40
32.380        40
32.390        27
32.400        40
32.410        27
32.420        40
32.430        27
32.440        13
32.450        40
32.460        93
32.470        40
32.480        40
32.490        27
32.500        27
32.510        53
32.520        53
32.530        53
32.540        53
32.550        13
32.560        40
32.570        40
32.580        93
32.590        40
32.600        27
32.610        40
32.620        67
32.630        27
32.640        53
32.650        53
32.660        27
32.670        40
32.680        27
32.690        53
32.700        40
32.710        27
32.720        53
32.730        53
32.740         0
32.750        27
32.760        13
32.770        13
32.780        67
32.790         0
32.800        13
32.810        27
32.820        13
32.830        27
32.840        67
32.850        40
32.860        27
32.870        53
32.880        27
32.890        80
32.900        40
32.910        40
32.920        27
32.930        27
32.940        67
32.950        80
32.960        67
32.970        40
32.980        27
32.990        13
33.000        27
33.010        80
33.020        67
33.030        53
33.040        93
33.050        27
33.060        13
33.070        27
33.080        27
33.090        27
33.100        27
33.110        27
33.120        67
33.130        93
33.140        53
33.150        27
33.160        27
33.170        13
33.180        27
33.190        40
33.200        53
33.210        27
33.220        27
33.230        13
33.240        27
33.250        40
33.260        53
33.270        40
33.280         0
33.290        93
33.300        27
33.310        40
33.320        93
33.330        40
33.340        53
33.350        27
33.360        27
33.370        13
33.380        13
33.390         0
33.400        27
33.410        53
33.420        27
33.430        40
33.440        40
33.450        27
33.460        13
33.470        67
33.480        13
33.490        67
33.500         0
33.510        53
33.520        13
33.530        53
33.540        27
33.550        80
33.560        13
33.570        67
33.580        67
33.590        27
33.600        40
33.610        27
33.620        27
33.630        40
33.640        40
33.650        67
33.660        13
33.670        53
33.680        53
33.690        27
33.700        40
33.710        27
33.720        27
33.730        27
33.740        80
33.750       107
33.760        27
33.770        27
33.780        27
33.790        40
33.800        27
33.810        27
33.820        13
33.830        27
33.840         0
33.850        27
33.860        40
33.870        13
33.880         0
33.890        27
33.900        40
33.910        53
33.920        27
33.930        27
33.940        80
33.950        13
33.960        53
33.970        53
33.980        13
33.990        13
34.000        27
34.010        40
34.020        40
34.030        13
34.040        67
34.050        53
34.060        40
34.070        13
34.080        13
34.090        53
34.100         0
34.110        27
34.120        40
34.130        67
34.140        13
34.150        40
34.160        40
34.170        67
34.180        27
34.190         0
34.200        13
34.210        40
34.220        40
34.230        13
34.240        53
34.250        13
34.260        53
34.270        13
34.280        53
34.290        53
34.300        27
34.310        27
34.320        13
34.330        27
34.340        27
34.350        27
34.360        13
34.370        67
34.380        40
34.390        13
34.400        40
34.410       120
34.420        27
34.430        53
34.440         0
34.450        40
34.460        53
34.470        67
34.480        53
34.490        13
34.500        40
34.510         0
34.520        13
34.530        27
34.540        13
34.550         0
34.560        67
34.570        40
34.580        27
34.590        40
34.600         0
34.610        13
34.620         0
34.630        40
34.640        53
34.650        40
34.660        13
34.670         0
34.680        27
34.690        27
34.700        80
34.710        40
34.720        13
34.730        27
34.740        40
34.750         0
34.760         0
34.770        40
34.780        40
34.790        27
34.800         0
34.810        67
34.820        53
34.830        13
34.840        13
34.850        27
34.860        27
34.870        13
34.880        40
34.890         0
34.900        80
34.910        27
34.920        27
34.930        40
34.940        13
34.950        67
34.960        13
34.970        27
34.980        67
34.990        27
35.000        53
35.010        40
35.020        40
35.030        27
35.040        13
35.050        67
35.060        40
35.070         0
35.080        53
35.090        67
35.100        53
35.110        67
35.120        80
35.130        40
35.140        40
35.150        27
35.160        40
35.170        67
35.180        80
35.190       120
35.200        80
35.210       120
35.220       147
35.230        67
35.240        40
35.250        40
35.260        80
35.270        40
35.280        40
35.290        67
35.300       107
35.310        80
35.320        67
35.330        27
35.340        13
35.350        27
35.360        27
35.370        53
35.380        27
35.390        67
35.400         0
35.410        40
35.420        13
35.430        13
35.440        13
35.450        40
35.460        40
35.470        13
35.480        13
35.490        13
35.500        13
35.510         0
35.520        13
35.530        13
35.540        27
35.550        67
35.560        80
35.570         0
35.580        40
35.590        27
35.600        13
35.610        27
35.620        27
35.630        27
35.640        13
35.650        53
35.660        40
35.670        27
35.680        40
35.690        13
35.700        13
35.710        13
35.720        13
35.730        40
35.740        40
35.750        40
35.760        13
35.770        27
35.780         0
35.790        13
35.800        40
35.810        40
35.820        40
35.830        53
35.840         0
35.850        40
35.860        27
35.870        13
35.880        27
35.890        27
35.900        13
35.910        13
35.920        40
35.930        40
35.940        27
35.950        27
35.960        40
35.970         0
35.980        27
35.990        27
36.000        13
36.010        13
36.020        67
36.030        13
36.040        13
36.050        53
36.060        13
36.070        67
36.080        67
36.090         0
36.100        27
36.110        27
36.120         0
36.130        27
36.140        40
36.150        53
36.160        40
36.170        27
36.180        40
36.190        27
36.200        27
36.210        27
36.220         0
36.230        13
36.240        27
36.250        40
36.260         0
36.270        13
36.280         0
36.290         0
36.300        80
36.310        53
36.320        13
36.330        13
36.340         0
36.350        27
36.360        13
36.370        27
36.380         0
36.390        40
36.400         0
36.410        13
36.420        13
36.430        13
36.440        53
36.450        13
36.460        67
36.470        40
36.480        40
36.490        80
36.500        80
36.510        13
36.520        80
36.530        13
36.540        27
36.550        13
36.560        27
36.570        40
36.580        53
36.590         0
36.600        27
36.610        40
36.620        40
36.630        27
36.640         0
36.650        27
36.660         0
36.670        40
36.680        67
36.690        27
36.700        27
36.710        27
36.720        13
36.730        27
36.740        27
36.750        53
36.760        27
36.770        13
36.780         0
36.790        40
36.800         0
36.810        13
36.820        13
36.830        13
36.840        40
36.850        13
36.860        53
36.870         0
36.880        27
36.890        27
36.900        13
36.910        27
36.920        13
36.930        27
36.940        53
36.950        27
36.960         0
36.970        40
36.980        13
36.990        53
37.000         0
37.010        40
37.020        13
37.030        27
37.040        67
37.050        40
37.060        27
37.070        13
37.080         0
37.090        13
37.100        13
37.110        27
37.120        27
37.130        27
37.140        13
37.150        40
37.160        53
37.170         0
37.180        27
37.190        13
37.200        40
37.210        13
37.220        13
37.230        13
37.240        40
37.250        13
37.260        27
37.270        67
37.280        13
37.290        13
37.300        13
37.310        13
37.320        40
37.330        13
37.340         0
37.350         0
37.360         0
37.370         0
37.380         0
37.390        13
37.400        27
37.410         0
37.420        13
37.430         0
37.440        13
37.450         0
37.460        27
37.470        13
37.480        27
37.490        40
37.500         0
37.510        53
37.520        67
37.530        13
37.540         0
37.550        27
37.560        40
37.570        27
37.580        27
37.590         0
37.600        93
37.610        27
37.620        13
37.630        13
37.640        80
37.650         0
37.660         0
37.670        53
37.680        40
37.690        13
37.700        40
37.710        13
37.720        27
37.730        13
37.740        27
37.750        27
37.760        67
37.770        13
37.780        13
37.790        27
37.800        40
37.810         0
37.820        27
37.830        27
37.840        27
37.850        27
37.860        40
37.870        27
37.880        27
37.890        13
37.900        27
37.910        40
37.920        67
37.930        27
37.940        27
37.950        27
37.960        27
37.970        53
37.980        27
37.990         0
38.000        67
38.010        40
38.020        40
38.030       107
38.040        53
38.050        40
38.060        67
38.070        27
38.080        13
38.090         0
38.100        67
38.110        13
38.120        53
38.130        80
38.140        27
38.150        80
38.160        13
38.170        13
38.180        53
38.190        53
38.200         0
38.210        40
38.220        53
38.230        53
38.240        40
38.250        27
38.260        80
38.270        53
38.280        40
38.290        40
38.300        27
38.310        93
38.320        27
38.330        13
38.340        40
38.350        40
38.360        27
38.370        67
38.380        40
38.390         0
38.400        40
38.410        13
38.420        27
38.430        27
38.440        53
38.450        27
38.460        40
38.470        27
38.480        27
38.490        67
38.500        40
38.510        27
38.520        80
38.530        13
38.540        53
38.550        27
38.560        27
38.570        40
38.580        27
38.590        80
38.600        27
38.610        40
38.620         0
38.630        67
38.640         0
38.650        13
38.660        53
38.670         0
38.680        40
38.690        13
38.700         0
38.710        40
38.720         0
38.730        80
38.740        13
38.750        53
38.760        53
38.770        53
38.780        13
38.790        13
38.800        27
38.810        27
38.820         0
38.830        13
38.840        27
38.850         0
38.860        27
38.870        27
38.880        27
38.890        27
38.900         0
38.910        13
38.920        40
38.930        27
38.940        67
38.950        27
38.960        40
38.970        40
38.980        40
38.990        13
39.000         0
39.010        27
39.020        13
39.030        27
39.040         0
39.050        80
39.060         0
39.070        40
39.080        40
39.090        67
39.100        13
39.110         0
39.120        13
39.130         0
39.140        13
39.150        40
39.160        27
39.170         0
39.180         0
39.190        40
39.200        40
39.210        27
39.220        53
39.230        13
39.240         0
39.250        53
39.260         0
39.270         0
39.280        27
39.290        13
39.300        13
39.310        27
39.320        27
39.330         0
39.340        13
39.350        67
39.360         0
39.370        67
39.380        13
39.390        13
39.400         0
39.410        27
39.420         0
39.430        27
39.440        13
39.450        53
39.460        13
39.470         0
39.480         0
39.490        27
39.500        27
39.510        13
39.520        13
39.530        40
39.540         0
39.550        13
39.560         0
39.570        27
39.580        40
39.590        40
39.600        27
39.610        13
39.620        40
39.630         0
39.640        53
39.650        27
39.660        53
39.670        13
39.680        13
39.690        13
39.700        13
39.710        27
39.720        13
39.730        13
39.740         0
39.750        27
39.760        27
39.770        53
39.780        13
39.790        40
39.800        40
39.810         0
39.820        13
39.830        13
39.840        13
39.850        27
39.860         0
39.870        40
39.880        27
39.890        13
39.900        13
39.910        40
39.920        13
39.930        13
39.940        27
39.950        13
39.960        13
39.970        27
39.980        13
39.990        27
40.000        13
40.010         0
40.020        13
40.030        13
40.040        13
40.050        40
40.060         0
40.070        13
40.080        40
40.090        13
40.100         0
40.110        13
40.120        13
40.130         0
40.140        27
40.150        27
40.160         0
40.170        40
40.180         0
40.190        27
40.200        13
40.210        13
40.220         0
40.230        13
40.240        27
40.250         0
40.260        13
40.270        13
40.280         0
40.290        40
40.300        40
40.310        40
40.320         0
40.330        53
40.340        13
40.350        13
40.360         0
40.370        13
40.380         0
40.390        13
40.400        13
40.410        40
40.420        13
40.430         0
40.440        40
40.450         0
40.460         0
40.470        27
40.480        13
40.490        40
40.500        27
40.510         0
40.520        13
40.530        13
40.540        13
40.550        27
40.560        27
40.570        27
40.580        27
40.590        40
40.600         0
40.610        13
40.620        27
40.630        27
40.640        13
40.650        13
40.660        27
40.670        67
40.680        13
40.690        27
40.700        53
40.710        13
40.720        13
40.730         0
40.740        40
40.750        27
40.760        13
40.770        13
40.780        13
40.790        13
40.800         0
40.810        13
40.820        13
40.830        13
40.840        13
40.850        13
40.860        13
40.870        67
40.880        53
40.890         0
40.900        13
40.910         0
40.920         0
40.930        27
40.940         0
40.950         0
40.960        27
40.970        53
40.980        27
40.990        13
41.000        13
41.010        40
41.020        27
41.030        40
41.040        40
41.050        13
41.060        40
41.070        27
41.080        27
41.090        53
41.100        53
41.110        13
41.120        40
41.130         0
41.140        53
41.150        27
41.160        67
41.170        67
41.180        53
41.190         0
41.200        13
41.210        40
41.220        27
41.230         0
41.240         0
41.250         0
41.260        27
41.270        13
41.280        13
41.290        13
41.300        13
41.310        13
41.320        13
41.330         0
41.340        13
41.350        13
41.360        13
41.370        27
41.380         0
41.390        13
41.400        27
41.410        27
41.420        13
41.430        27
41.440        40
41.450        40
41.460         0
41.470        13
41.480        13
41.490        13
41.500        40
41.510        27
41.520        13
41.530        27
41.540        27
41.550        27
41.560        27
41.570        53
41.580        40
41.590        27
41.600        40
41.610        40
41.620        13
41.630        67
41.640        67
41.650        80
41.660        13
41.670        40
41.680        53
41.690        67
41.700        80
41.710        27
41.720        40
41.730        80
41.740        67
41.750        67
41.760        40
41.770        13
41.780        40
41.790        27
41.800        53
41.810        40
41.820        67
41.830        40
41.840        40
41.850        40
41.860        27
41.870        13
41.880        27
41.890        13
41.900        13
41.910        40
41.920        27
41.930        27
41.940        40
41.950        53
41.960        27
41.970        27
41.980         0
41.990         0
42.000        13
42.010        27
42.020        13
42.030        40
42.040        53
42.050        27
42.060        40
42.070        13
42.080        27
42.090        13
42.100        13
42.110         0
42.120        13
42.130        27
42.140        27
42.150        27
42.160        27
42.170        27
42.180        13
42.190        27
42.200        67
42.210        27
42.220        53
42.230        53
42.240         0
42.250        13
42.260        13
42.270        13
42.280        13
42.290        40
42.300        13
42.310        13
42.320        27
42.330         0
42.340         0
42.350         0
42.360        27
42.370        13
42.380        27
42.390        27
42.400        13
42.410        67
42.420        27
42.430         0
42.440        13
42.450        27
42.460        27
42.470        13
42.480         0
42.490        13
42.500         0
42.510        27
42.520        27
42.530        27
42.540        13
42.550        13
42.560        27
42.570        13
42.580         0
42.590        13
42.600        27
42.610        27
42.620        40
42.630        13
42.640        53
42.650        13
42.660        13
42.670        13
42.680        27
42.690        27
42.700        27
42.710        40
42.720        27
42.730        40
42.740        40
42.750        27
42.760        40
42.770        13
42.780        40
42.790        13
42.800        13
42.810         0
42.820         0
42.830         0
42.840        27
42.850        27
42.860        13
42.870        13
42.880         0
42.890         0
42.900        40
42.910        40
42.920        40
42.930        13
42.940        13
42.950        13
42.960        27
42.970        13
42.980         0
42.990        13
43.000        53
43.010         0
43.020        27
43.030        27
43.040         0
43.050        13
43.060        40
43.070        27
43.080        53
43.090        13
43.100        13
43.110        13
43.120        13
43.130        27
43.140        13
43.150        27
43.160        67
43.170        13
43.180        67
43.190        13
43.200        53
43.210        13
43.220        13
43.230        27
43.240        27
43.250        40
43.260        13
43.270        13
43.280        13
43.290        13
43.300        27
43.310        13
43.320        13
43.330        13
43.340         0
43.350        67
43.360        27
43.370        13
43.380        40
43.390        53
43.400        40
43.410        13
43.420        40
43.430        40
43.440         0
43.450        13
43.460        13
43.470        27
43.480        13
43.490        67
43.500        13
43.510        13
43.520         0
43.530        27
43.540        13
43.550        13
43.560        27
43.570        13
43.580        40
43.590        13
43.600         0
43.610        13
43.620        40
43.630        13
43.640         0
43.650        13
43.660         0
43.670        27
43.680        53
43.690        13
43.700        27
43.710        40
43.720         0
43.730        40
43.740         0
43.750        27
43.760         0
43.770         0
43.780        13
43.790        13
43.800        27
43.810        13
43.820        13
43.830        40
43.840         0
43.850         0
43.860        40
43.870        27
43.880        27
43.890         0
43.900        13
43.910        13
43.920        13
43.930        13
43.940        40
43.950        13
43.960         0
43.970        27
43.980        27
43.990         0
44.000        13
44.010         0
44.020        67
44.030        13
44.040        27
44.050        27
44.060         0
44.070        13
44.080        27
44.090         0
44.100        13
44.110        13
44.120        27
44.130         0
44.140         0
44.150        13
44.160         0
44.170         0
44.180        27
44.190        13
44.200         0
44.210         0
44.220        40
44.230         0
44.240        27
44.250        53
44.260        13
44.270        40
44.280        27
44.290        40
44.300        13
44.310        53
44.320        27
44.330         0
44.340        40
44.350        27
44.360        40
44.370        13
44.380        53
44.390        13
44.400        13
44.410        13
44.420        13
44.430        13
44.440        27
44.450         0
44.460        13
44.470        27
44.480        27
44.490         0
44.500        13
44.510         0
44.520        13
44.530        40
44.540        27
44.550        53
44.560        27
44.570        53
44.580        13
44.590        13
44.600        27
44.610        40
44.620        27
44.630        13
44.640        13
44.650        40
44.660         0
44.670        67
44.680        27
44.690        27
44.700        13
44.710        40
44.720        27
44.730        27
44.740        27
44.750         0
44.760        40
44.770         0
44.780        40
44.790        27
44.800         0
44.810        27
44.820        40
44.830         0
44.840        13
44.850        40
44.860        13
44.870        40
44.880        40
44.890         0
44.900        40
44.910        40
44.920        27
44.930         0
44.940        27
44.950        40
44.960         0
44.970        27
44.980        53
44.990        27
45.000        27
45.010         0
45.020        40
45.030        40
45.040        27
45.050        27
45.060        53
45.070        13
45.080        13
45.090        67
45.100        27
45.110        13
45.120        13
45.130        80
45.140        40
45.150        13
45.160         0
45.170        27
45.180        13
45.190        27
45.200        27
45.210        13
45.220        27
45.230        40
45.240        13
45.250        27
45.260         0
45.270         0
45.280        13
45.290        13
45.300        13
45.310        13
45.320         0
45.330        13
45.340        13
45.350        13
45.360         0
45.370        53
45.380        27
45.390        13
45.400        40
45.410        13
45.420        40
45.430        53
45.440        13
45.450        27
45.460         0
45.470        40
45.480        27
45.490        13
45.500        27
45.510        13
45.520         0
45.530        27
45.540         0
45.550        13
45.560         0
45.570        27
45.580        13
45.590        13
45.600         0
45.610        13
45.620        40
45.630        40
45.640        27
45.650         0
45.660         0
45.670         0
45.680        27
45.690        27
45.700         0
45.710        27
45.720         0
45.730        13
45.740        27
45.750        13
45.760        27
45.770        27
45.780        13
45.790        13
45.800        40
45.810        13
45.820         0
45.830        40
45.840         0
45.850        13
45.860        27
45.870        13
45.880        13
45.890        27
45.900        13
45.910        27
45.920        27
45.930         0
45.940        27
45.950         0
45.960        27
45.970        27
45.980         0
45.990        27
46.000        40
46.010        40
46.020        13
46.030        13
46.040        13
46.050        40
46.060        13
46.070        27
46.080        13
46.090        27
46.100        13
46.110         0
46.120         0
46.130        40
46.140         0
46.150        13
46.160        27
46.170        13
46.180        27
46.190        27
46.200        13
46.210        40
46.220         0
46.230        40
46.240         0
46.250        13
46.260        53
46.270         0
46.280         0
46.290         0
46.300        13
46.310        40
46.320        13
46.330        13
46.340        27
46.350        13
46.360        13
46.370        13
46.380        13
46.390        13
46.400        13
46.410        40
46.420        53
46.430        27
46.440         0
46.450        13
46.460        53
46.470        27
46.480        27
46.490         0
46.500         0
46.510        13
46.520        13
46.530        13
46.540        27
46.550        13
46.560        40
46.570        27
46.580        13
46.590        27
46.600        40
46.610        27
46.620        53
46.630        27
46.640         0
46.650        40
46.660        27
46.670        67
46.680        13
46.690        13
46.700        40
46.710        13
46.720        53
46.730        27
46.740        40
46.750         0
46.760        13
46.770        40
46.780        40
46.790        40
46.800        13
46.810         0
46.820         0
46.830        13
46.840        27
46.850        27
46.860        40
46.870        53
46.880        27
46.890         0
46.900        13
46.910         0
46.920        13
46.930        13
46.940        27
46.950         0
46.960        40
46.970        13
46.980        27
46.990        27
47.000         0
47.010        13
47.020        40
47.030        40
47.040         0
47.050        13
47.060         0
47.070         0
47.080        13
47.090        13
47.100        13
47.110         0
47.120        27
47.130         0
47.140        27
47.150         0
47.160         0
47.170        40
47.180        13
47.190        27
47.200        27
47.210         0
47.220         0
47.230        27
47.240        40
47.250        13
47.260        27
47.270         0
47.280         0
47.290        13
47.300        13
47.310        40
47.320        13
47.330        27
47.340        13
47.350        27
47.360        13
47.370        27
47.380        13
47.390        27
47.400        13
47.410         0
47.420        53
47.430         0
47.440         0
47.450         0
47.460        27
47.470        13
47.480        27
47.490        13
47.500         0
47.510        40
47.520        27
47.530        27
47.540        13
47.550         0
47.560         0
47.570        13
47.580        13
47.590         0
47.600        80
47.610        13
47.620        27
47.630         0
47.640        67
47.650         0
47.660        13
47.670         0
47.680         0
47.690        13
47.700         0
47.710         0
47.720        13
47.730        27
47.740        40
47.750         0
47.760        40
47.770         0
47.780        40
47.790        27
47.800        27
47.810        27
47.820        13
47.830        40
47.840         0
47.850        40
47.860        27
47.870        27
47.880        40
47.890        13
47.900        27
47.910        13
47.920        13
47.930        13
47.940        13
47.950        27
47.960         0
47.970        53
47.980        53
47.990        13
48.000        27
48.010        13
48.020        27
48.030        13
48.040        13
48.050        13
48.060        13
48.070        13
48.080        40
48.090        13
48.100        40
48.110        13
48.120        13
48.130         0
48.140        13
48.150        13
48.160        13
48.170         0
48.180        27
48.190        27
48.200        27
48.210         0
48.220        13
48.230         0
48.240        27
48.250        27
48.260        27
48.270         0
48.280        27
48.290        13
48.300        27
48.310         0
48.320        40
48.330        13
48.340         0
48.350        27
48.360        40
48.370        67
48.380        13
48.390        13
48.400        27
48.410        27
48.420        27
48.430        27
48.440        13
48.450        13
48.460        13
48.470        13
48.480         0
48.490        13
48.500        13
48.510        27
48.520        13
48.530        13
48.540         0
48.550        27
48.560         0
48.570        27
48.580        13
48.590        13
48.600         0
48.610        40
48.620        13
48.630         0
48.640        27
48.650        13
48.660        27
48.670        27
48.680        27
48.690        27
48.700        13
48.710        27
48.720         0
48.730        40
48.740         0
48.750        13
48.760        13
48.770        27
48.780        27
48.790        13
48.800        13
48.810        53
48.820        27
48.830         0
48.840        27
48.850        13
48.860         0
48.870        53
48.880        27
48.890        27
48.900        13
48.910        27
48.920        27
48.930         0
48.940        13
48.950        27
48.960        13
48.970        13
48.980         0
48.990        27
49.000        13
49.010        27
49.020        40
49.030         0
49.040        13
49.050        27
49.060        27
49.070        40
49.080         0
49.090        27
49.100         0
49.110        13
49.120        40
49.130         0
49.140         0
49.150        27
49.160        13
49.170        13
49.180        27
49.190        27
49.200        40
49.210        13
49.220        67
49.230         0
49.240         0
49.250        27
49.260         0
49.270        13
49.280        27
49.290        13
49.300         0
49.310         0
49.320        27
49.330        27
49.340        27
49.350        13
49.360         0
49.370        13
49.380        13
49.390        27
49.400        40
49.410         0
49.420        13
49.430         0
49.440        13
49.450        13
49.460        27
49.470        40
49.480        27
49.490        13
49.500         0
49.510        13
49.520        27
49.530        13
49.540         0
49.550        40
49.560        13
49.570        53
49.580        40
49.590        13
49.600        13
49.610         0
49.620         0
49.630        40
49.640        27
49.650        13
49.660        13
49.670         0
49.680         0
49.690        13
49.700        40
49.710        13
49.720         0
49.730         0
49.740        27
49.750        13
49.760         0
49.770        27
49.780        13
49.790        40
49.800        13
49.810         0
49.820         0
49.830        40
49.840        27
49.850        13
49.860        27
49.870        13
49.880         0
49.890        27
49.900        40
49.910         0
49.920        13
49.930        13
49.940        27
49.950        40
49.960        13
49.970        13
49.980         0
49.990        27
50.000         0
50.010         0
50.020         0
50.030        27
50.040        13
50.050         0
50.060        13
50.070        13
50.080        13
50.090        40
50.100         0
50.110        27
50.120        13
50.130         0
50.140         0
50.150         0
50.160        27
50.170         0
50.180         0
50.190        40
50.200         0
50.210         0
50.220        27
50.230        53
50.240        13
50.250         0
50.260         0
50.270         0
50.280         0
50.290        13
50.300         0
50.310        13
50.320         0
50.330        27
50.340         0
50.350        13
50.360        27
50.370        13
50.380         0
50.390        13
50.400        27
50.410        27
50.420        13
50.430        13
50.440         0
50.450        27
50.460        13
50.470        13
50.480        13
50.490        27
50.500         0
50.510        27
50.520        13
50.530         0
50.540        13
50.550        27
50.560        27
50.570        13
50.580        40
50.590        13
50.600         0
50.610         0
50.620         0
50.630        13
50.640        13
50.650        13
50.660        40
50.670         0
50.680        27
50.690         0
50.700        13
50.710         0
50.720        13
50.730        40
50.740        13
50.750         0
50.760         0
50.770         0
50.780         0
50.790        27
50.800        13
50.810        27
50.820         0
50.830         0
50.840         0
50.850        27
50.860         0
50.870         0
50.880        27
50.890         0
50.900         0
50.910         0
50.920        13
50.930        13
50.940        13
50.950        13
50.960         0
50.970        13
50.980        40
50.990        13
51.000        13
51.010        53
51.020         0
51.030        13
51.040         0
51.050         0
51.060         0
51.070         0
51.080        27
51.090        13
51.100        27
51.110        13
51.120         0
51.130         0
51.140        13
51.150         0
51.160        27
51.170         0
51.180        27
51.190        40
51.200        13
51.210        13
51.220        13
51.230        27
51.240        40
51.250         0
51.260         0
51.270         0
51.280        27
51.290        40
51.300         0
51.310        13
51.320        13
51.330         0
51.340        27
51.350        13
51.360        27
51.370         0
51.380         0
51.390        13
51.400         0
51.410         0
51.420        53
51.430         0
51.440        13
51.450         0
51.460        40
51.470        27
51.480         0
51.490        13
51.500        27
51.510         0
51.520        13
51.530        27
51.540        13
51.550        40
51.560        13
51.570        53
51.580        13
51.590        13
51.600         0
51.610         0
51.620        13
51.630        13
51.640        13
51.650         0
51.660        27
51.670         0
51.680        13
51.690        13
51.700         0
51.710         0
51.720        13
51.730        27
51.740         0
51.750        27
51.760        13
51.770         0
51.780        40
51.790         0
51.800        13
51.810        13
51.820         0
51.830         0
51.840        13
51.850        13
51.860         0
51.870        13
51.880        27
51.890        13
51.900        27
51.910         0
51.920        13
51.930        53
51.940        13
51.950        13
51.960        27
51.970         0
51.980        40
51.990         0
52.000        13
52.010        53
52.020        13
52.030        13
52.040        13
52.050        13
52.060         0
52.070         0
52.080         0
52.090         0
52.100         0
52.110        13
52.120         0
52.130        27
52.140        13
52.150        13
52.160        27
52.170        53
52.180         0
52.190         0
52.200        13
52.210        40
52.220         0
52.230        13
52.240        53
52.250        27
52.260        27
52.270         0
52.280        13
52.290         0
52.300        13
52.310        13
52.320         0
52.330        13
52.340         0
52.350        13
52.360        13
52.370        40
52.380         0
52.390         0
52.400         0
52.410        40
52.420        40
52.430        27
52.440         0
52.450        13
52.460        40
52.470         0
52.480        13
52.490        13
52.500        27
52.510         0
52.520        53
52.530        27
52.540        13
52.550        40
52.560        13
52.570        13
52.580        27
52.590        80
52.600        53
52.610       107
52.620       147
52.630       147
52.640       213
52.650       200
52.660       120
52.670       160
52.680       160
52.690       160
52.700        53
52.710       107
52.720        13
52.730        40
52.740         0
52.750        27
52.760         0
52.770        67
52.780        53
52.790        93
52.800       120
52.810        53
52.820       120
52.830        93
52.840       133
52.850        40
52.860        40
52.870        40
52.880        53
52.890        13
52.900        40
52.910        27
52.920        13
52.930        27
52.940         0
52.950         0
52.960        27
52.970        27
52.980         0
52.990        13
53.000        13
53.010        40
53.020        13
53.030         0
53.040        27
53.050        13
53.060        27
53.070         0
53.080        40
53.090        13
53.100         0
53.110        13
53.120        13
53.130        13
53.140         0
53.150         0
53.160        40
53.170        27
53.180        27
53.190         0
53.200         0
53.210         0
53.220        13
53.230        40
53.240        13
53.250        13
53.260        27
53.270         0
53.280         0
53.290         0
53.300         0
53.310        13
53.320        13
53.330         0
53.340        13
53.350        13
53.360        13
53.370         0
53.380        13
53.390        13
53.400        27
53.410        13
53.420        13
53.430        13
53.440        27
53.450        40
53.460        13
53.470        13
53.480        27
53.490         0
53.500        13
53.510        13
53.520         0
53.530        27
53.540        13
53.550        27
53.560        27
53.570        13
53.580        13
53.590        27
53.600        13
53.610        27
53.620        13
53.630        13
53.640        13
53.650        40
53.660         0
53.670        40
53.680         0
53.690         0
53.700        13
53.710        53
53.720        40
53.730        13
53.740        13
53.750        13
53.760        27
53.770        13
53.780        13
53.790        13
53.800         0
53.810        27
53.820        40
53.830        13
53.840         0
53.850        40
53.860        27
53.870        27
53.880        13
53.890        13
53.900         0
53.910        13
53.920         0
53.930        13
53.940        13
53.950        40
53.960        27
53.970        13
53.980        27
53.990        53
54.000        27
54.010         0
54.020        13
54.030        13
54.040        13
54.050         0
54.060         0
54.070         0
54.080        27
54.090        53
54.100        13
54.110        53
54.120        27
54.130        13
54.140         0
54.150        27
54.160        13
54.170        27
54.180        67
54.190         0
54.200         0
54.210         0
54.220        13
54.230        13
54.240        13
54.250        13
54.260         0
54.270        13
54.280        27
54.290        13
54.300        40
54.310         0
54.320        13
54.330        40
54.340         0
54.350        13
54.360         0
54.370        13
54.380         0
54.390        27
54.400        27
54.410        13
54.420        13
54.430         0
54.440         0
54.450        27
54.460         0
54.470        13
54.480        13
54.490        27
54.500        13
54.510        67
54.520        13
54.530        13
54.540        27
54.550        13
54.560        27
54.570         0
54.580        53
54.590         0
54.600         0
54.610        67
54.620        40
54.630        13
54.640        13
54.650        13
54.660        13
54.670        40
54.680        53
54.690        53
54.700        13
54.710         0
54.720        13
54.730         0
54.740        53
54.750        27
54.760         0
54.770        27
54.780        27
54.790        53
54.800        27
54.810        40
54.820        13
54.830        40
54.840        40
54.850        13
54.860        27
54.870        67
54.880        27
54.890        53
54.900        53
54.910        53
54.920        67
54.930        53
54.940        40
54.950        53
54.960       107
54.970        40
54.980        80
54.990       173
55.000        67
55.010        27
55.020        80
55.030       120
55.040       107
55.050        67
55.060        53
55.070        53
55.080       173
55.090        93
55.100       120
55.110       120
55.120        93
55.130       120
55.140        80
55.150       147
55.160        93
55.170        93
55.180        93
55.190        80
55.200        93
55.210       107
55.220        40
55.230        53
55.240        80
55.250        40
55.260        67
55.270        40
55.280        67
55.290        67
55.300        40
55.310        40
55.320        13
55.330        67
55.340        40
55.350        53
55.360        13
55.370        13
55.380        53
55.390        27
55.400        13
55.410        13
55.420        40
55.430        13
55.440        53
55.450        13
55.460        40
55.470        13
55.480        27
55.490        13
55.500        40
55.510        53
55.520        27
55.530        13
55.540        27
55.550        27
55.560         0
55.570         0
55.580         0
55.590        27
55.600        13
55.610        40
55.620        13
55.630         0
55.640         0
55.650        13
55.660         0
55.670        13
55.680        40
55.690        40
55.700        13
55.710        40
55.720        27
55.730         0
55.740        40
55.750        67
55.760         0
55.770        27
55.780        13
55.790        40
55.800        13
55.810        13
55.820         0
55.830         0
55.840        27
55.850         0
55.860        13
55.870        40
55.880        13
55.890         0
55.900        27
55.910        40
55.920        27
55.930         0
55.940         0
55.950        13
55.960        13
55.970        27
55.980        40
55.990         0
56.000        13
56.010        13
56.020        13
56.030        27
56.040        13
56.050        13
56.060        13
56.070        13
56.080        13
56.090        27
56.100        13
56.110        27
56.120        27
56.130        13
56.140        13
56.150        13
56.160         0
56.170         0
56.180        27
56.190         0
56.200        40
56.210        13
56.220        40
56.230        53
56.240        13
56.250        13
56.260        13
56.270        13
56.280        27
56.290         0
56.300         0
56.310        53
56.320         0
56.330         0
56.340         0
56.350        13
56.360        27
56.370        27
56.380         0
56.390         0
56.400        40
56.410         0
56.420        13
56.430        13
56.440         0
56.450        13
56.460         0
56.470        13
56.480        13
56.490         0
56.500         0
56.510        13
56.520        27
56.530        13
56.540        27
56.550        13
56.560        13
56.570        13
56.580        27
56.590        27
56.600        13
56.610         0
56.620        27
56.630        40
56.640        27
56.650        13
56.660        13
56.670        40
56.680        13
56.690        40
56.700        13
56.710        27
56.720        13
56.730        13
56.740        13
56.750        27
56.760        40
56.770        40
56.780         0
56.790        13
56.800         0
56.810         0
56.820         0
56.830        27
56.840        13
56.850        27
56.860        27
56.870         0
56.880         0
56.890        13
56.900        27
56.910        13
56.920        27
56.930        27
56.940        13
56.950        13
56.960         0
56.970        13
56.980        27
56.990        40
57.000        13
57.010         0
57.020        13
57.030        27
57.040         0
57.050        13
57.060        53
57.070        13
57.080         0
57.090        13
57.100        13
57.110        27
57.120         0
57.130        27
57.140        13
57.150        13
57.160         0
57.170        27
57.180        13
57.190         0
57.200        13
57.210        13
57.220        27
57.230         0
57.240        13
57.250         0
57.260        13
57.270        27
57.280        40
57.290        13
57.300         0
57.310        40
57.320        13
57.330         0
57.340        40
57.350        13
57.360         0
57.370        13
57.380        40
57.390         0
57.400        13
57.410         0
57.420         0
57.430        27
57.440        53
57.450        40
57.460        27
57.470        27
57.480        40
57.490        40
57.500        13
57.510        13
57.520        40
57.530        53
57.540       107
57.550        40
57.560        40
57.570       133
57.580        53
57.590        13
57.600        93
57.610       160
57.620        67
57.630        27
57.640        40
57.650        27
57.660        13
57.670        13
57.680        80
57.690         0
57.700        40
57.710        40
57.720        27
57.730        13
57.740        40
57.750        53
57.760        27
57.770        40
57.780        40
57.790        13
57.800        40
57.810         0
57.820         0
57.830        27
57.840         0
57.850         0
57.860        53
57.870         0
57.880        27
57.890        27
57.900         0
57.910        27
57.920        13
57.930        40
57.940        13
57.950        13
57.960        27
57.970         0
57.980        13
57.990        27
58.000        13
58.010         0
58.020        27
58.030         0
58.040        13
58.050         0
58.060        27
58.070         0
58.080         0
58.090        27
58.100         0
58.110        13
58.120         0
58.130        13
58.140        13
58.150        13
58.160        27
58.170        40
58.180         0
58.190         0
58.200        40
58.210        13
58.220         0
58.230         0
58.240        13
58.250        27
58.260         0
58.270        27
58.280        13
58.290        13
58.300        13
58.310        13
58.320        27
58.330         0
58.340         0
58.350        27
58.360         0
58.370        13
58.380        27
58.390        27
58.400        13
58.410        13
58.420        27
58.430        27
58.440        13
58.450        27
58.460        13
58.470         0
58.480         0
58.490        40
58.500         0
58.510        27
58.520        27
58.530        27
58.540         0
58.550         0
58.560        13
58.570         0
58.580         0
58.590        13
58.600        27
58.610        27
58.620        13
58.630        27
58.640        13
58.650        27
58.660        40
58.670        27
58.680        13
58.690        27
58.700        13
58.710         0
58.720        67
58.730         0
58.740         0
58.750        13
58.760         0
58.770        13
58.780        13
58.790        13
58.800        13
58.810        27
58.820        13
58.830        40
58.840        27
58.850         0
58.860         0
58.870         0
58.880         0
58.890         0
58.900        13
58.910        13
58.920        13
58.930        27
58.940        13
58.950         0
58.960         0
58.970        13
58.980         0
58.990        27
59.000        27
59.010        13
59.020        13
59.030        27
59.040         0
59.050        13
59.060        13
59.070         0
59.080         0
59.090        13
59.100        27
59.110        13
59.120        13
59.130         0
59.140        27
59.150        13
59.160         0
59.170        13
59.180         0
59.190        40
59.200        13
59.210        13
59.220        27
59.230        13
59.240        27
59.250        27
59.260        13
59.270        13
59.280        13
59.290        13
59.300         0
59.310         0
59.320         0
59.330        27
59.340        13
59.350         0
59.360        27
59.370         0
59.380         0
59.390        13
59.400        27
59.410        40
59.420        27
59.430         0
59.440        27
59.450        27
59.460         0
59.470        13
59.480        13
59.490         0
59.500        13
59.510         0
59.520         0
59.530         0
59.540        13
59.550        27
59.560        53
59.570        13
59.580        13
59.590         0
59.600        40
59.610        27
59.620        13
59.630        27
59.640        13
59.650        27
59.660        13
59.670         0
59.680         0
59.690         0
59.700         0
59.710        13
59.720        13
59.730        13
59.740         0
59.750        13
59.760        40
59.770         0
59.780         0
59.790        27
59.800         0
59.810        13
59.820         0
59.830        27
59.840        13
59.850         0
59.860        13
59.870        13
59.880         0
59.890        27
59.900        40
59.910        13
59.920         0
59.930        27
59.940         0
59.950        13
59.960        13
59.970        53
59.980        27
59.990        27
60.000        13
