20.000        40
20.010        60
20.020        87
20.030        60
20.040        33
20.050        53
20.060        53
20.070        67
20.080        27
20.090        47
20.100        47
20.110        60
20.120        33
20.130        53
20.140        67
20.150        80
20.160        67
20.170        47
20.180        27
20.190        20
20.200        47
20.210        47
20.220        53
20.230        60
20.240        13
20.250        47
20.260        67
20.270        53
20.280        40
20.290        40
20.300        47
20.310        67
20.320        60
20.330        53
20.340        67
20.350        60
20.360        20
20.370        47
20.380        47
20.390        60
20.400        47
20.410        60
20.420        87
20.430        33
20.440        47
20.450        40
20.460        40
20.470        53
20.480        53
20.490        27
20.500        73
20.510        53
20.520        27
20.530        40
20.540        47
20.550        53
20.560        27
20.570        33
20.580        53
20.590        27
20.600        33
20.610        33
20.620        27
20.630        53
20.640        33
20.650        33
20.660        67
20.670        27
20.680        73
20.690        20
20.700        40
20.710        33
20.720        47
20.730        60
20.740        27
20.750        40
20.760        60
20.770        60
20.780        13
20.790        33
20.800        67
20.810        47
20.820        87
20.830        13
20.840        53
20.850        33
20.860        27
20.870        20
20.880        53
20.890        53
20.900        80
20.910        33
20.920        33
20.930        40
20.940        47
20.950        40
20.960        40
20.970        20
20.980        60
20.990        47
21.000        40
21.010        40
21.020        60
21.030        40
21.040        60
21.050        33
21.060        27
21.070        67
21.080        47
21.090        27
21.100        33
21.110        40
21.120        47
21.130        47
21.140        27
21.150        53
21.160        53
21.170        33
21.180        27
21.190        40
21.200        20
21.210        80
21.220        27
21.230        60
21.240        20
21.250        20
21.260        87
21.270        33
21.280        20
21.290        33
21.300        33
21.310        87
21.320        53
21.330        47
21.340        60
21.350        27
21.360        47
21.370        53
21.380        67
21.390        27
21.400        40
21.410        47
21.420        40
21.430        40
21.440        47
21.450        40
21.460        33
21.470        53
21.480        47
21.490        53
21.500        40
21.510        20
21.520        47
21.530        53
21.540        13
21.550        27
21.560        33
21.570        27
21.580        47
21.590        47
21.600        67
21.610        33
21.620        47
21.630        33
21.640        53
21.650        53
21.660        60
21.670        47
21.680        53
21.690        67
21.700        20
21.710        40
21.720        60
21.730        67
21.740        47
21.750        87
21.760        80
21.770        40
21.780        87
21.790        53
21.800       100
21.810        87
21.820        93
21.830        73
21.840        73
21.850        53
21.860        27
21.870        73
21.880        80
21.890        33
21.900        53
21.910        53
21.920        40
21.930        53
21.940        60
21.950        67
21.960        93
21.970        20
21.980        47
21.990        40
22.000        27
22.010        47
22.020        40
22.030        73
22.040        53
22.050        20
22.060        40
22.070        67
22.080        20
22.090        47
22.100        47
22.110        60
22.120        13
22.130        27
22.140        60
22.150        73
22.160        33
22.170        53
22.180        33
22.190        93
22.200        47
22.210        40
22.220        47
22.230        20
22.240        27
22.250        33
22.260        20
22.270        60
22.280        53
22.290        47
22.300        47
22.310        40
22.320        60
22.330        33
22.340        27
22.350        27
22.360        40
22.370        27
22.380        33
22.390        47
22.400        13
22.410        33
22.420        40
22.430        33
22.440        20
22.450        20
22.460        20
22.470        60
22.480        20
22.490        27
22.500        33
22.510        47
22.520        47
22.530        40
22.540        60
22.550        47
22.560        20
22.570        40
22.580        40
22.590        27
22.600        27
22.610        27
22.620        13
22.630        33
22.640        27
22.650        27
22.660        33
22.670        33
22.680        53
22.690        27
22.700         7
22.710        40
22.720        20
22.730        67
22.740        33
22.750        33
22.760        40
22.770        27
22.780        73
22.790        27
22.800        13
22.810        60
22.820        47
22.830        60
22.840        33
22.850        53
22.860        13
22.870        33
22.880        67
22.890        20
22.900        53
22.910        20
22.920        27
22.930        20
22.940        40
22.950        33
22.960        20
22.970        40
22.980        40
22.990        20
23.000        27
23.010        40
23.020        33
23.030        27
23.040        67
23.050        53
23.060        27
23.070        33
23.080        47
23.090        53
23.100        20
23.110        13
23.120        13
23.130        47
23.140        47
23.150        47
23.160        53
23.170        73
23.180        53
23.190        27
23.200        33
23.210        53
23.220        60
23.230        27
23.240        73
23.250        60
23.260        33
23.270        13
23.280        27
23.290        73
23.300        20
23.310        53
23.320        20
23.330        33
23.340        20
23.350        53
23.360        27
23.370        60
23.380        27
23.390        20
23.400        40
23.410        60
23.420         0
23.430        33
23.440        53
23.450        20
23.460        27
23.470        33
23.480        40
23.490        20
23.500        47
23.510        47
23.520        27
23.530        20
23.540        13
23.550        20
23.560        33
23.570        40
23.580        27
23.590        20
23.600        40
23.610        47
23.620        53
23.630        60
23.640        27
23.650        40
23.660        33
23.670        27
23.680        33
23.690        20
23.700        27
23.710        20
23.720        33
23.730        60
23.740        20
23.750        40
23.760        40
23.770        60
23.780        40
23.790        40
23.800        47
23.810        40
23.820        33
23.830        40
23.840        40
23.850        27
23.860        40
23.870        20
23.880        20
23.890        33
23.900        27
23.910        40
23.920        20
23.930        13
23.940        33
23.950        27
23.960        40
23.970        33
23.980        20
23.990        27
24.000        27
24.010        20
24.020        20
24.030        33
24.040        53
24.050        47
24.060        33
24.070        27
24.080        40
24.090        13
24.100        47
24.110        13
24.120        47
24.130        33
24.140        40
24.150        47
24.160        13
24.170        40
24.180        33
24.190        53
24.200        73
24.210        40
24.220        33
24.230        40
24.240        33
24.250        27
24.260        33
24.270        40
24.280        33
24.290         7
24.300         7
24.310        47
24.320        20
24.330        40
24.340        27
24.350        60
24.360        47
24.370        47
24.380        20
24.390        20
24.400        27
24.410        20
24.420        33
24.430        40
24.440        27
24.450        40
24.460        53
24.470        40
24.480        13
24.490        13
24.500        40
24.510        73
24.520        27
24.530        27
24.540        53
24.550        40
24.560        40
24.570        13
24.580        27
24.590        33
24.600        27
24.610        67
24.620        13
24.630        27
24.640        27
24.650        33
24.660        47
24.670        60
24.680        40
24.690        53
24.700        40
24.710        73
24.720        13
24.730        40
24.740        27
24.750        73
24.760        60
24.770        60
24.780        53
24.790        53
24.800        27
24.810        60
24.820        27
24.830        27
24.840        33
24.850        27
24.860        27
24.870        40
24.880        33
24.890        20
24.900        13
24.910        33
24.920        27
24.930        40
24.940        33
24.950        27
24.960        33
24.970        33
24.980        33
24.990        47
25.000        20
25.010        47
25.020        33
25.030        40
25.040        27
25.050        27
25.060        20
25.070        13
25.080        20
25.090        33
25.100        20
25.110        33
25.120        33
25.130        20
25.140        40
25.150        40
25.160        13
25.170        27
25.180        33
25.190        53
25.200        20
25.210        47
25.220        20
25.230        20
25.240        20
25.250        33
25.260        27
25.270        40
25.280        67
25.290        47
25.300        40
25.310        27
25.320        53
25.330        40
25.340        67
25.350        47
25.360        40
25.370        27
25.380        27
25.390        47
25.400        20
25.410        53
25.420        20
25.430        53
25.440        27
25.450        20
25.460        60
25.470        27
25.480        53
25.490        40
25.500        27
25.510        40
25.520        80
25.530        73
25.540        13
25.550        40
25.560        67
25.570        20
25.580        47
25.590        33
25.600        60
25.610        40
25.620        27
25.630        27
25.640        33
25.650        33
25.660        20
25.670        13
25.680        67
25.690        33
25.700        53
25.710        13
25.720        33
25.730        27
25.740        20
25.750        33
25.760        33
25.770        47
25.780        53
25.790        27
25.800         7
25.810        20
25.820        47
25.830        27
25.840        33
25.850        40
25.860        27
25.870        33
25.880        47
25.890        33
25.900         7
25.910        27
25.920        40
25.930        47
25.940        33
25.950        40
25.960        47
25.970        73
25.980         0
25.990        27
26.000        40
26.010        40
26.020        53
26.030        33
26.040         7
26.050        13
26.060        40
26.070        27
26.080        53
26.090        20
26.100        47
26.110        47
26.120        33
26.130         7
26.140        40
26.150        13
26.160        27
26.170        33
26.180        33
26.190         7
26.200        40
26.210        20
26.220        20
26.230        20
26.240        40
26.250        47
26.260        40
26.270        40
26.280        20
26.290        27
26.300        27
26.310        13
26.320        20
26.330        20
26.340        47
26.350        13
26.360        40
26.370        20
26.380        33
26.390        47
26.400        33
26.410        47
26.420        33
26.430        27
26.440        60
26.450        40
26.460        40
26.470        13
26.480        27
26.490        13
26.500        33
26.510        27
26.520         7
26.530        60
26.540        47
26.550        67
26.560        60
26.570         7
26.580        27
26.590        27
26.600        33
26.610        27
26.620        40
26.630        53
26.640        53
26.650        47
26.660        27
26.670        20
26.680        27
26.690        47
26.700        20
26.710        13
26.720        27
26.730         7
26.740        40
26.750        60
26.760        13
26.770        47
26.780        27
26.790        33
26.800        40
26.810        20
26.820        13
26.830        27
26.840        33
26.850        27
26.860        20
26.870        20
26.880        33
26.890         7
26.900        20
26.910        60
26.920        20
26.930        13
26.940        60
26.950        53
26.960        20
26.970        47
26.980        27
26.990        60
27.000        27
27.010        40
27.020        47
27.030        33
27.040        33
27.050        27
27.060        27
27.070        60
27.080        40
27.090        13
27.100        20
27.110        20
27.120         7
27.130        20
27.140        33
27.150        47
27.160        13
27.170        33
27.180        27
27.190        27
27.200        40
27.210        47
27.220        13
27.230        20
27.240        13
27.250        20
27.260        33
27.270        53
27.280        27
27.290        27
27.300        27
27.310        47
27.320        20
27.330        27
27.340        47
27.350        13
27.360        40
27.370        27
27.380        47
27.390        20
27.400        47
27.410        13
27.420        33
27.430        20
27.440        27
27.450        67
27.460        27
27.470        13
27.480        47
27.490        40
27.500        13
27.510        27
27.520        33
27.530        33
27.540        20
27.550         0
27.560        20
27.570        47
27.580        33
27.590        40
27.600        33
27.610        40
27.620        40
27.630        33
27.640         7
27.650        67
27.660        27
27.670        13
27.680        33
27.690         7
27.700        20
27.710        40
27.720        27
27.730        20
27.740        53
27.750        47
27.760        47
27.770        20
27.780        20
27.790        47
27.800        87
27.810        73
27.820        33
27.830        20
27.840        53
27.850        87
27.860        53
27.870        60
27.880        93
27.890        73
27.900        80
27.910        87
27.920        80
27.930        67
27.940       100
27.950        27
27.960        40
27.970        27
27.980        67
27.990        67
28.000        27
28.010        40
28.020        40
28.030        20
28.040        53
28.050        47
28.060         7
28.070        40
28.080        33
28.090        40
28.100        40
28.110        33
28.120        27
28.130        20
28.140        20
28.150        20
28.160        27
28.170        33
28.180        47
28.190        33
28.200        40
28.210         7
28.220        27
28.230         7
28.240        33
28.250        33
28.260        20
28.270        20
28.280        13
28.290        20
28.300        53
28.310        20
28.320        33
28.330        13
28.340        33
28.350        27
28.360        27
28.370        20
28.380        27
28.390        13
28.400        33
28.410        40
28.420        40
28.430        47
28.440        27
28.450        13
28.460        33
28.470        40
28.480        53
28.490        20
28.500        27
28.510        27
28.520        80
28.530        33
28.540        73
28.550        47
28.560        60
28.570        33
28.580        27
28.590        47
28.600        20
28.610        20
28.620        60
28.630        13
28.640        33
28.650        27
28.660        27
28.670        27
28.680        27
28.690        33
28.700        53
28.710         7
28.720        40
28.730        13
28.740        53
28.750        47
28.760        27
28.770        40
28.780        33
28.790        47
28.800        40
28.810         7
28.820         7
28.830        27
28.840        40
28.850        53
28.860        40
28.870        40
28.880        20
28.890        47
28.900        27
28.910        27
28.920        60
28.930        53
28.940        13
28.950        20
28.960        27
28.970        40
28.980        27
28.990        53
29.000        13
29.010        47
29.020        13
29.030        20
29.040        27
29.050        13
29.060        40
29.070        33
29.080        20
29.090        13
29.100        40
29.110        47
29.120        40
29.130        33
29.140        13
29.150        27
29.160        33
29.170        33
29.180        27
29.190        13
29.200        27
29.210        20
29.220        47
29.230         7
29.240        47
29.250        47
29.260        33
29.270        40
29.280         0
29.290        40
29.300        13
29.310        27
29.320        47
29.330        27
29.340        47
29.350        20
29.360        73
29.370        53
29.380        20
29.390        53
29.400        20
29.410        20
29.420        33
29.430        33
29.440        40
29.450        40
29.460        40
29.470        20
29.480        27
29.490        20
29.500        47
29.510        20
29.520        47
29.530        33
29.540        40
29.550        33
29.560        20
29.570        53
29.580        33
29.590        27
29.600        47
29.610        40
29.620        33
29.630        27
29.640        33
29.650        27
29.660        40
29.670        27
29.680        27
29.690        40
29.700        33
29.710        33
29.720        33
29.730        33
29.740        20
29.750        40
29.760        73
29.770        33
29.780        33
29.790        53
29.800        40
29.810        27
29.820        33
29.830        40
29.840        60
29.850        60
29.860        27
29.870        53
29.880        53
29.890        40
29.900        47
29.910        87
29.920        60
29.930        87
29.940        73
29.950        67
29.960        67
29.970        53
29.980        73
29.990        53
30.000        87
30.010        73
30.020        87
30.030        93
30.040        93
30.050        67
30.060        80
30.070        40
30.080        87
30.090       127
30.100        53
30.110        47
30.120        80
30.130        53
30.140        53
30.150        80
30.160        73
30.170       113
30.180        40
30.190        93
30.200        93
30.210        87
30.220        73
30.230        67
30.240        40
30.250        47
30.260        87
30.270        80
30.280       127
30.290        47
30.300        47
30.310        47
30.320        60
30.330       107
30.340        73
30.350       113
30.360        93
30.370        87
30.380        73
30.390        80
30.400        40
30.410        67
30.420       100
30.430        87
30.440       107
30.450        87
30.460        93
30.470       133
30.480       120
30.490       127
30.500       153
30.510       113
30.520        80
30.530        87
30.540       100
30.550       153
30.560       100
30.570       127
30.580       153
30.590       147
30.600       133
30.610       147
30.620       133
30.630       147
30.640       200
30.650       207
30.660       233
30.670       360
30.680       347
30.690       360
30.700       466
30.710       420
30.720       500
30.730       653
30.740       740
30.750       906
30.760       886
30.770      1000
30.780      1133
30.790      1319
30.800      1379
30.810      1759
30.820      1879
30.830      2206
30.840      2506
30.850      2766
30.860      3145
30.870      3399
30.880      4072
30.890      4485
30.900      5285
30.910      5798
30.920      6831
30.930      6957
30.940      8010
30.950      8230
30.960      8517
30.970      8690
30.980      8603
30.990      8237
31.000      7330
31.010      7170
31.020      6744
31.030      6131
31.040      5078
31.050      4705
31.060      4512
31.070      3752
31.080      2919
31.090      2786
31.100      2186
31.110      1693
31.120      1493
31.130      1126
31.140       913
31.150       873
31.160       693
31.170       540
31.180       340
31.190       433
31.200       333
31.210       207
31.220       200
31.230       253
31.240       267
31.250       180
31.260       193
31.270       200
31.280       180
31.290       113
31.300       173
31.310       127
31.320       147
31.330       160
31.340       147
31.350        87
31.360       120
31.370       133
31.380       100
31.390       140
31.400        73
31.410        67
31.420        87
31.430       147
31.440        67
31.450       107
31.460       120
31.470        53
31.480       120
31.490       107
31.500        73
31.510       140
31.520        53
31.530        60
31.540        87
31.550        40
31.560       120
31.570        80
31.580        80
31.590       100
31.600        87
31.610        93
31.620       100
31.630       120
31.640        67
31.650        87
31.660        60
31.670        40
31.680        93
31.690        67
31.700        40
31.710        47
31.720        87
31.730        67
31.740        93
31.750        87
31.760        80
31.770        53
31.780        87
31.790       107
31.800        40
31.810        53
31.820        47
31.830        60
31.840        67
31.850        73
31.860        47
31.870        60
31.880        27
31.890        47
31.900        67
31.910       133
31.920        80
31.930        87
31.940        80
31.950        47
31.960        93
31.970        73
31.980        47
31.990        60
32.000        60
32.010        33
32.020        80
32.030        67
32.040        60
32.050        60
32.060        53
32.070        47
32.080        87
32.090        60
32.100        60
32.110        60
32.120       100
32.130        27
32.140        53
32.150        40
32.160        93
32.170        40
32.180        73
32.190        47
32.200        80
32.210        47
32.220        80
32.230        47
32.240        53
32.250        27
32.260        47
32.270        60
32.280        67
32.290        33
32.300        93
32.310        33
32.320        53
32.330        53
32.340        67
32.350        47
32.360        67
32.370        47
32.380        47
32.390        47
32.400        87
32.410        60
32.420        53
32.430        67
32.440        67
32.450        60
32.460        73
32.470        67
32.480        60
32.490        73
32.500        60
32.510        20
32.520        27
32.530        80
32.540        33
32.550        47
32.560        60
32.570        67
32.580        67
32.590        33
32.600        27
32.610        33
32.620        33
32.630        27
32.640        60
32.650        27
32.660        60
32.670        60
32.680        67
32.690         7
32.700        27
32.710        47
32.720        60
32.730        40
32.740        80
32.750        53
32.760        33
32.770        47
32.780        53
32.790        47
32.800        47
32.810        47
32.820        67
32.830        53
32.840        87
32.850        33
32.860        47
32.870        40
32.880        53
32.890        67
32.900        73
32.910        40
32.920        40
32.930        47
32.940        67
32.950        47
32.960        33
32.970        33
32.980        80
32.990        67
33.000        53
33.010        20
33.020        33
33.030        20
33.040        40
33.050        60
33.060        67
33.070        20
33.080        40
33.090        53
33.100        40
33.110        53
33.120        40
33.130        60
33.140        47
33.150        20
33.160        47
33.170        40
33.180        33
33.190        40
33.200        27
33.210        87
33.220        67
33.230        67
33.240        40
33.250        33
33.260        40
33.270        80
33.280        33
33.290        33
33.300        47
33.310        47
33.320        40
33.330        73
33.340        47
33.350        53
33.360        67
33.370        60
33.380        40
33.390        53
33.400        67
33.410        40
33.420        67
33.430        13
33.440        60
33.450        33
33.460        73
33.470         7
33.480        80
33.490        60
33.500        33
33.510        40
33.520        60
33.530        47
33.540        27
33.550        40
33.560        40
33.570        40
33.580        20
33.590        27
33.600        27
33.610        60
33.620        27
33.630        27
33.640        47
33.650        33
33.660        93
33.670        27
33.680        53
33.690        27
33.700        33
33.710        40
33.720        33
33.730        40
33.740        47
33.750        40
33.760        33
33.770        33
33.780        47
33.790        47
33.800        27
33.810        27
33.820        47
33.830        33
33.840        13
33.850        27
33.860        20
33.870        20
33.880        33
33.890        33
33.900        60
33.910        47
33.920        60
33.930        60
33.940        60
33.950        40
33.960        33
33.970        40
33.980        33
33.990        20
34.000        33
34.010        40
34.020        53
34.030        27
34.040        27
34.050        13
34.060        60
34.070        40
34.080        27
34.090        27
34.100        33
34.110        47
34.120        60
34.130        47
34.140        53
34.150        13
34.160        27
34.170        20
34.180        20
34.190        33
34.200        33
34.210        47
34.220        40
34.230        40
34.240        33
34.250        20
34.260        47
34.270        33
34.280        33
34.290        27
34.300        13
34.310        40
34.320        40
34.330        40
34.340        60
34.350        20
34.360        40
34.370        13
34.380        33
34.390        27
34.400        40
34.410        47
34.420        53
34.430        47
34.440        27
34.450        33
34.460        47
34.470        60
34.480        53
34.490        27
34.500        67
34.510        27
34.520        53
34.530        33
34.540        13
34.550        40
34.560        80
34.570        20
34.580        27
34.590        33
34.600        67
34.610        20
34.620        40
34.630        40
34.640        27
34.650        27
34.660        27
34.670        13
34.680        40
34.690        33
34.700        40
34.710        53
34.720        40
34.730        13
34.740        40
34.750        53
34.760         7
34.770        20
34.780        20
34.790        73
34.800        33
34.810        13
34.820        40
34.830         0
34.840        33
34.850        27
34.860         7
34.870        20
34.880        20
34.890        20
34.900        47
34.910        60
34.920        20
34.930        40
34.940        73
34.950         7
34.960        53
34.970        13
34.980        60
34.990        40
35.000        33
35.010        33
35.020        27
35.030        60
35.040        27
35.050        60
35.060        47
35.070        47
35.080        73
35.090        40
35.100        47
35.110        53
35.120        53
35.130        73
35.140        27
35.150        33
35.160        60
35.170        47
35.180        47
35.190        67
35.200        60
35.210        53
35.220        27
35.230        13
35.240        13
35.250        27
35.260        40
35.270        33
35.280        20
35.290        20
35.300        40
35.310        40
35.320        27
35.330        53
35.340        60
35.350        33
35.360        53
35.370        40
35.380        47
35.390        33
35.400        33
35.410        27
35.420        53
35.430        33
35.440        47
35.450        40
35.460        20
35.470        47
35.480        33
35.490        27
35.500        40
35.510        27
35.520        27
35.530        13
35.540        47
35.550        27
35.560        60
35.570        27
35.580        27
35.590        53
35.600        13
35.610        27
35.620        67
35.630        13
35.640        40
35.650        47
35.660         7
35.670        27
35.680        13
35.690        27
35.700        40
35.710        40
35.720        20
35.730        33
35.740        80
35.750        60
35.760        20
35.770        40
35.780        33
35.790        47
35.800        20
35.810        40
35.820        53
35.830        33
35.840         7
35.850        13
35.860        33
35.870        27
35.880        33
35.890        13
35.900        27
35.910        47
35.920        20
35.930        40
35.940        20
35.950        33
35.960        20
35.970        33
35.980        20
35.990        33
36.000        40
36.010        27
36.020        33
36.030        40
36.040        20
36.050        20
36.060        13
36.070        33
36.080        20
36.090        20
36.100        13
36.110        20
36.120        20
36.130        47
36.140        47
36.150        60
36.160        47
36.170        20
36.180        27
36.190        33
36.200        47
36.210         7
36.220        20
36.230        13
36.240         7
36.250         7
36.260        20
36.270         7
36.280        27
36.290        20
36.300        33
36.310        40
36.320        27
36.330        27
36.340        13
36.350         0
36.360        40
36.370        27
36.380        20
36.390        27
36.400        13
36.410        47
36.420        47
36.430        20
36.440        20
36.450        27
36.460         7
36.470         7
36.480        40
36.490        27
36.500        20
36.510        47
36.520        47
36.530        13
36.540        33
36.550        40
36.560        33
36.570        27
36.580        27
36.590        33
36.600        20
36.610        20
36.620        20
36.630        13
36.640         7
36.650        27
36.660        13
36.670        33
36.680        47
36.690        20
36.700        20
36.710        47
36.720        33
36.730        20
36.740        20
36.750        33
36.760        20
36.770        13
36.780        40
36.790        27
36.800        20
36.810        33
36.820        40
36.830        33
36.840        27
36.850        13
36.860        20
36.870        33
36.880        13
36.890         7
36.900        47
36.910        33
36.920        47
36.930        33
36.940        53
36.950        20
36.960        47
36.970        53
36.980        27
36.990        27
37.000        33
37.010        33
37.020        40
37.030         7
37.040        33
37.050        13
37.060        40
37.070        13
37.080        20
37.090        40
37.100        20
37.110        27
37.120        40
37.130        13
37.140        20
37.150        27
37.160        33
37.170        20
37.180        20
37.190        13
37.200        20
37.210        20
37.220        60
37.230        33
37.240        20
37.250        20
37.260        20
37.270        27
37.280        13
37.290        20
37.300        27
37.310        27
37.320        40
37.330        20
37.340        27
37.350        27
37.360        20
37.370         7
37.380        33
37.390        27
37.400        40
37.410         7
37.420        13
37.430        47
37.440        13
37.450        20
37.460        13
37.470        13
37.480        33
37.490        47
37.500        20
37.510        47
37.520         7
37.530        27
37.540        13
37.550        33
37.560        20
37.570        13
37.580        27
37.590        20
37.600         7
37.610        13
37.620        13
37.630        20
37.640        20
37.650        27
37.660        40
37.670        53
37.680        13
37.690        33
37.700        13
37.710        20
37.720        33
37.730        33
37.740        20
37.750        20
37.760        20
37.770        20
37.780        53
37.790        33
37.800        40
37.810        53
37.820        33
37.830        33
37.840        33
37.850        53
37.860        33
37.870        27
37.880        20
37.890        27
37.900         7
37.910        27
37.920        27
37.930        27
37.940        33
37.950        53
37.960        27
37.970        13
37.980        33
37.990        53
38.000        27
38.010        27
38.020        47
38.030        33
38.040        27
38.050        60
38.060        13
38.070        27
38.080        53
38.090        40
38.100        47
38.110        60
38.120        60
38.130        53
38.140        67
38.150        80
38.160        40
38.170        87
38.180        53
38.190        53
38.200        87
38.210        80
38.220        53
38.230        60
38.240        67
38.250        47
38.260        80
38.270        27
38.280        47
38.290        67
38.300        73
38.310        73
38.320        53
38.330        40
38.340        27
38.350        33
38.360        33
38.370        33
38.380        60
38.390        20
38.400        13
38.410        33
38.420        20
38.430        13
38.440        27
38.450        27
38.460        20
38.470        27
38.480        33
38.490        40
38.500         7
38.510        20
38.520        13
38.530        27
38.540        20
38.550        53
38.560        27
38.570        33
38.580        20
38.590        20
38.600        20
38.610        27
38.620        27
38.630        33
38.640        53
38.650        27
38.660        40
38.670        27
38.680        40
38.690         0
38.700        20
38.710        27
38.720        27
38.730        13
38.740         7
38.750        27
38.760        40
38.770        40
38.780        27
38.790        27
38.800        13
38.810        47
38.820        13
38.830        13
38.840        13
38.850        40
38.860        20
38.870        33
38.880         7
38.890        13
38.900        47
38.910        13
38.920        13
38.930         7
38.940         0
38.950         7
38.960        13
38.970        20
38.980        13
38.990        40
39.000        20
39.010         0
39.020        20
39.030         7
39.040         7
39.050        20
39.060        40
39.070        27
39.080         0
39.090        20
39.100        27
39.110        33
39.120         7
39.130        13
39.140        33
39.150        13
39.160        20
39.170        33
39.180        40
39.190        20
39.200         7
39.210        13
39.220         0
39.230        27
39.240        27
39.250        27
39.260        13
39.270        47
39.280        20
39.290        20
39.300        20
39.310        27
39.320        33
39.330        53
39.340        27
39.350        20
39.360         7
39.370         0
39.380        27
39.390        27
39.400        33
39.410         7
39.420        13
39.430        27
39.440        13
39.450        33
39.460        20
39.470        33
39.480        47
39.490        33
39.500        40
39.510         7
39.520         7
39.530        13
39.540        27
39.550        27
39.560        20
39.570        27
39.580        33
39.590        20
39.600        20
39.610        13
39.620        53
39.630        33
39.640        33
39.650        33
39.660        20
39.670        13
39.680        40
39.690         7
39.700        33
39.710         7
39.720        40
39.730         7
39.740         0
39.750        13
39.760        33
39.770        13
39.780        27
39.790        13
39.800        13
39.810        20
39.820        27
39.830        13
39.840        27
39.850        40
39.860        60
39.870        27
39.880        53
39.890        20
39.900         7
39.910        20
39.920        13
39.930         0
39.940         0
39.950         7
39.960        20
39.970         7
39.980        20
39.990        40
40.000        20
40.010        20
40.020        20
40.030        20
40.040         0
40.050        13
40.060        27
40.070         7
40.080        20
40.090        20
40.100        40
40.110        13
40.120        27
40.130        47
40.140        27
40.150        40
40.160        33
40.170        13
40.180        20
40.190        20
40.200        20
40.210        27
40.220        20
40.230         7
40.240        20
40.250        13
40.260         7
40.270         7
40.280        33
40.290        27
40.300         7
40.310         7
40.320        13
40.330        27
40.340        20
40.350        40
40.360         0
40.370        20
40.380        13
40.390        27
40.400        20
40.410         7
40.420        13
40.430        33
40.440        27
40.450        13
40.460        40
40.470        27
40.480        33
40.490        13
40.500        20
40.510         0
40.520        20
40.530        33
40.540        27
40.550        27
40.560        20
40.570        27
40.580        13
40.590        33
40.600        27
40.610        13
40.620        27
40.630        20
40.640        13
40.650         7
40.660        20
40.670        20
40.680         7
40.690        27
40.700        27
40.710        27
40.720        13
40.730        20
40.740         0
40.750        27
40.760        20
40.770        27
40.780        20
40.790        13
40.800         0
40.810        27
40.820        27
40.830        13
40.840        13
40.850        20
40.860        13
40.870        33
40.880        40
40.890        27
40.900         7
40.910         7
40.920        27
40.930         7
40.940        20
40.950        27
40.960        27
40.970        13
40.980         7
40.990        27
41.000        20
41.010         7
41.020        20
41.030        13
41.040        40
41.050        33
41.060        27
41.070        47
41.080        27
41.090        27
41.100        27
41.110        13
41.120         7
41.130        13
41.140        40
41.150        27
41.160        20
41.170        40
41.180         0
41.190         7
41.200         7
41.210        47
41.220        13
41.230        20
41.240         7
41.250        40
41.260        33
41.270        47
41.280        13
41.290        20
41.300        27
41.310        13
41.320        20
41.330         7
41.340        40
41.350        27
41.360        20
41.370         0
41.380         7
41.390        40
41.400        20
41.410        60
41.420        13
41.430        13
41.440         7
41.450        40
41.460        20
41.470        20
41.480        20
41.490         7
41.500         0
41.510        40
41.520        13
41.530        20
41.540        33
41.550        33
41.560        40
41.570        13
41.580        33
41.590        27
41.600        33
41.610        27
41.620        40
41.630        40
41.640        60
41.650        47
41.660        27
41.670        73
41.680       120
41.690       113
41.700        80
41.710        67
41.720        93
41.730        80
41.740        87
41.750        47
41.760        20
41.770        33
41.780        27
41.790        53
41.800        27
41.810        67
41.820        40
41.830        40
41.840        87
41.850        40
41.860        47
41.870        13
41.880        53
41.890        13
41.900        33
41.910         7
41.920         7
41.930        53
41.940        20
41.950        13
41.960        13
41.970        40
41.980        33
41.990        27
42.000        13
42.010        40
42.020        20
42.030        13
42.040        20
42.050        27
42.060        13
42.070        13
42.080        40
42.090        40
42.100        27
42.110        20
42.120         0
42.130        20
42.140        20
42.150        13
42.160        13
42.170        27
42.180        13
42.190        13
42.200        13
42.210         7
42.220        27
42.230        13
42.240         7
42.250        27
42.260        13
42.270        40
42.280        27
42.290        33
42.300        33
42.310        47
42.320        33
42.330        13
42.340        13
42.350        13
42.360        33
42.370        13
42.380         7
42.390        13
42.400        20
42.410        27
42.420        27
42.430        13
42.440        40
42.450        27
42.460         7
42.470        13
42.480        20
42.490        27
42.500        20
42.510        20
42.520        20
42.530         7
42.540        53
42.550        33
42.560         0
42.570        13
42.580        20
42.590        20
42.600         7
42.610         7
42.620        13
42.630         7
42.640        20
42.650        20
42.660        33
42.670        27
42.680        20
42.690        20
42.700        13
42.710        40
42.720        20
42.730         0
42.740         7
42.750         7
42.760        20
42.770         7
42.780        20
42.790        13
42.800        13
42.810         7
42.820        13
42.830        13
42.840        27
42.850        40
42.860         0
42.870        20
42.880        13
42.890        47
42.900        53
42.910        20
42.920        27
42.930         7
42.940        13
42.950        33
42.960         7
42.970        20
42.980         7
42.990        20
43.000        20
43.010         7
43.020        13
43.030        40
43.040        33
43.050        20
43.060         7
43.070        13
43.080        27
43.090        13
43.100        13
43.110         7
43.120        27
43.130        20
43.140        20
43.150        20
43.160         7
43.170        27
43.180        33
43.190        33
43.200        33
43.210        13
43.220        33
43.230        13
43.240        47
43.250         7
43.260        40
43.270        27
43.280        33
43.290        33
43.300         7
43.310        47
43.320        47
43.330        47
43.340        20
43.350        20
43.360        33
43.370        27
43.380        40
43.390        27
43.400        27
43.410        53
43.420        13
43.430        27
43.440        27
43.450        33
43.460         0
43.470        33
43.480        53
43.490        33
43.500        27
43.510        47
43.520        13
43.530        33
43.540        33
43.550        40
43.560        20
43.570         7
43.580         0
43.590         0
43.600        13
43.610        27
43.620        33
43.630        33
43.640        27
43.650        20
43.660        33
43.670        33
43.680        20
43.690        20
43.700        20
43.710        27
43.720        33
43.730        47
43.740        13
43.750        27
43.760        40
43.770        27
43.780        20
43.790         7
43.800        13
43.810        27
43.820        27
43.830        27
43.840        13
43.850        33
43.860        40
43.870        27
43.880        20
43.890        20
43.900        13
43.910        13
43.920        53
43.930        27
43.940        13
43.950        47
43.960        33
43.970         7
43.980        20
43.990        20
44.000         7
44.010        27
44.020        20
44.030        40
44.040        27
44.050        33
44.060        40
44.070        47
44.080       107
44.090        40
44.100        67
44.110        40
44.120        40
44.130        40
44.140        40
44.150        40
44.160        47
44.170        80
44.180        40
44.190        53
44.200        53
44.210        40
44.220        87
44.230        67
44.240       127
44.250        73
44.260       100
44.270       140
44.280       100
44.290        93
44.300        80
44.310       153
44.320       200
44.330       160
44.340       160
44.350       180
44.360       140
44.370       233
44.380       273
44.390       187
44.400       180
44.410       213
44.420       207
44.430       173
44.440       167
44.450       180
44.460       193
44.470       200
44.480       147
44.490       187
44.500       133
44.510       100
44.520       113
44.530       140
44.540       113
44.550       113
44.560       127
44.570        80
44.580        80
44.590        87
44.600       113
44.610        73
44.620        67
44.630        53
44.640        73
44.650        40
44.660        13
44.670        40
44.680        40
44.690        53
44.700        80
44.710        67
44.720        53
44.730        27
44.740         0
44.750        20
44.760        53
44.770        53
44.780        53
44.790        47
44.800        40
44.810        27
44.820         7
44.830        13
44.840        27
44.850        20
44.860        27
44.870        27
44.880        20
44.890        40
44.900        33
44.910         7
44.920        53
44.930        13
44.940        20
44.950        47
44.960        40
44.970        20
44.980        20
44.990        20
45.000        13
45.010        40
45.020        27
45.030        33
45.040        13
45.050        20
45.060        13
45.070        33
45.080        47
45.090         7
45.100        20
45.110        53
45.120        40
45.130        33
45.140         7
45.150        13
45.160        20
45.170        13
45.180         7
45.190        27
45.200        20
45.210        13
45.220         0
45.230        13
45.240        27
45.250        27
45.260        20
45.270        27
45.280        20
45.290        27
45.300        20
45.310        20
45.320        27
45.330        20
45.340        20
45.350        13
45.360        20
45.370        27
45.380         7
45.390        13
45.400        40
45.410        27
45.420        47
45.430        20
45.440        13
45.450        27
45.460        20
45.470        20
45.480        33
45.490         7
45.500        13
45.510         7
45.520        33
45.530         0
45.540        20
45.550        27
45.560        20
45.570        13
45.580        13
45.590        40
45.600        13
45.610        13
45.620        20
45.630        20
45.640        33
45.650        20
45.660        27
45.670        40
45.680        20
45.690        20
45.700        27
45.710        33
45.720        33
45.730        40
45.740        33
45.750         7
45.760        20
45.770        47
45.780        27
45.790        27
45.800        13
45.810         7
45.820        13
45.830         0
45.840        27
45.850         7
45.860        20
45.870        33
45.880         7
45.890        13
45.900        13
45.910         7
45.920        20
45.930         7
45.940         7
45.950        20
45.960         0
45.970        13
45.980         7
45.990         7
46.000        20
46.010        47
46.020        13
46.030        13
46.040        20
46.050        13
46.060         7
46.070        20
46.080         7
46.090         7
46.100         7
46.110        13
46.120        13
46.130        20
46.140        20
46.150        13
46.160         7
46.170         0
46.180         7
46.190        13
46.200        20
46.210        20
46.220         7
46.230        20
46.240        27
46.250        20
46.260         0
46.270        27
46.280         7
46.290        27
46.300        20
46.310         7
46.320        20
46.330        13
46.340        20
46.350         7
46.360        27
46.370        13
46.380        20
46.390         7
46.400        13
46.410        53
46.420        27
46.430         7
46.440        33
46.450         7
46.460         7
46.470         7
46.480        20
46.490        40
46.500        13
46.510         7
46.520         7
46.530        13
46.540        27
46.550        33
46.560        33
46.570        40
46.580         7
46.590        47
46.600        20
46.610        13
46.620         7
46.630        13
46.640        33
46.650        13
46.660        53
46.670         0
46.680        27
46.690         7
46.700        33
46.710         0
46.720        13
46.730        13
46.740        13
46.750        20
46.760         7
46.770        20
46.780        13
46.790        33
46.800        53
46.810        33
46.820        27
46.830         0
46.840         0
46.850         7
46.860         0
46.870        20
46.880         7
46.890        20
46.900        20
46.910        27
46.920        20
46.930         7
46.940        20
46.950         7
46.960         7
46.970        27
46.980        20
46.990        13
47.000         0
47.010        33
47.020         7
47.030         7
47.040        20
47.050        13
47.060        20
47.070         7
47.080        20
47.090        27
47.100         0
47.110        13
47.120        13
47.130         0
47.140        33
47.150        13
47.160         7
47.170        20
47.180         7
47.190        20
47.200        20
47.210        13
47.220        20
47.230        20
47.240        13
47.250        20
47.260        13
47.270        13
47.280        20
47.290        27
47.300        13
47.310         7
47.320        27
47.330        13
47.340        20
47.350        20
47.360         7
47.370         7
47.380        27
47.390        20
47.400         7
47.410        13
47.420        13
47.430        20
47.440         7
47.450         0
47.460        13
47.470        20
47.480        13
47.490        20
47.500         0
47.510         7
47.520        20
47.530        13
47.540        13
47.550        27
47.560         7
47.570        27
47.580        20
47.590         7
47.600         7
47.610         7
47.620         7
47.630        27
47.640        40
47.650         7
47.660         7
47.670        13
47.680        40
47.690         7
47.700        20
47.710        20
47.720         7
47.730        20
47.740        27
47.750        20
47.760         7
47.770        27
47.780        20
47.790        13
47.800         7
47.810        20
47.820         7
47.830        20
47.840         0
47.850        20
47.860        20
47.870        20
47.880        33
47.890        20
47.900        40
47.910        47
47.920         0
47.930         0
47.940        13
47.950        20
47.960         7
47.970        13
47.980        13
47.990        13
48.000         7
48.010        13
48.020        13
48.030         7
48.040         7
48.050        13
48.060         7
48.070         7
48.080        33
48.090        20
48.100        33
48.110        20
48.120         7
48.130        40
48.140         7
48.150         7
48.160        20
48.170         0
48.180         7
48.190         0
48.200         0
48.210        27
48.220        33
48.230         0
48.240         7
48.250        13
48.260        27
48.270        27
48.280        33
48.290        13
48.300        13
48.310        13
48.320        13
48.330        13
48.340        13
48.350         7
48.360        20
48.370         7
48.380        27
48.390        20
48.400        13
48.410        20
48.420        27
48.430        47
48.440         7
48.450        20
48.460        20
48.470         7
48.480        27
48.490        20
48.500         7
48.510        40
48.520        13
48.530        20
48.540         0
48.550        13
48.560        13
48.570        27
48.580        13
48.590         7
48.600        27
48.610         0
48.620        20
48.630        20
48.640        20
48.650        27
48.660        40
48.670        27
48.680        20
48.690        13
48.700        13
48.710        20
48.720        13
48.730        27
48.740        27
48.750         7
48.760         7
48.770        20
48.780         0
48.790        27
48.800        20
48.810         7
48.820        13
48.830        13
48.840        13
48.850        13
48.860        33
48.870         0
48.880         7
48.890        20
48.900        13
48.910        13
48.920        33
48.930        33
48.940         7
48.950        20
48.960        27
48.970         7
48.980        13
48.990        13
49.000         7
49.010        13
49.020        20
49.030        27
49.040         7
49.050         0
49.060        20
49.070        13
49.080        20
49.090         7
49.100         7
49.110        27
49.120        13
49.130        20
49.140        13
49.150         0
49.160         0
49.170         0
49.180        13
49.190        27
49.200        20
49.210        20
49.220        20
49.230        13
49.240        13
49.250        13
49.260         7
49.270         7
49.280        13
49.290        27
49.300         0
49.310         7
49.320        13
49.330        33
49.340         0
49.350        20
49.360        40
49.370        33
49.380        20
49.390        20
49.400         7
49.410         7
49.420        20
49.430        13
49.440        40
49.450         7
49.460         0
49.470        13
49.480        20
49.490        13
49.500        13
49.510        13
49.520        13
49.530        20
49.540        33
49.550        13
49.560         7
49.570        20
49.580        13
49.590         7
49.600         7
49.610        20
49.620        20
49.630        27
49.640        13
49.650        13
49.660         0
49.670        27
49.680        13
49.690         7
49.700        13
49.710        13
49.720         7
49.730         0
49.740         7
49.750        20
49.760        13
49.770        27
49.780        27
49.790         0
49.800        13
49.810        13
49.820         7
49.830        20
49.840        13
49.850        13
49.860         7
49.870        27
49.880        13
49.890        13
49.900        33
49.910        13
49.920        33
49.930        27
49.940        27
49.950        13
49.960        13
49.970        27
49.980         0
49.990        13
50.000         7
50.010         0
50.020        13
50.030        33
50.040        13
50.050        20
50.060        13
50.070        20
50.080        27
50.090        13
50.100        13
50.110        27
50.120        27
50.130         7
50.140        20
50.150        27
50.160         0
50.170        13
50.180        13
50.190        13
50.200         7
50.210        20
50.220        13
50.230        27
50.240         7
50.250        20
50.260        13
50.270        13
50.280        13
50.290        13
50.300        33
50.310         0
50.320        27
50.330        13
50.340         7
50.350         0
50.360        27
50.370        27
50.380        20
50.390        27
50.400         0
50.410        33
50.420        20
50.430         7
50.440        13
50.450        33
50.460        20
50.470        33
50.480        13
50.490        13
50.500        13
50.510        20
50.520        13
50.530        13
50.540        33
50.550        27
50.560         0
50.570        27
50.580        20
50.590        20
50.600        13
50.610         0
50.620        20
50.630        27
50.640        13
50.650        33
50.660        13
50.670         7
50.680        13
50.690        20
50.700        27
50.710        20
50.720        20
50.730        33
50.740        13
50.750         7
50.760        13
50.770        20
50.780         0
50.790        20
50.800         0
50.810        13
50.820        20
50.830        20
50.840        13
50.850        20
50.860         7
50.870         7
50.880         7
50.890        13
50.900         0
50.910         7
50.920        20
50.930        20
50.940         7
50.950        13
50.960         7
50.970         7
50.980         7
50.990         7
51.000        13
51.010        27
51.020        13
51.030        13
51.040         7
51.050        20
51.060         7
51.070         7
51.080         7
51.090        27
51.100         0
51.110        20
51.120        27
51.130        27
51.140        27
51.150        13
51.160         0
51.170         7
51.180         7
51.190        33
51.200         7
51.210        20
51.220         0
51.230         0
51.240         7
51.250        13
51.260        27
51.270        27
51.280         7
51.290        27
51.300         7
51.310        33
51.320        20
51.330        33
51.340        13
51.350        20
51.360         7
51.370        20
51.380        13
51.390         7
51.400        20
51.410         0
51.420         7
51.430        13
51.440        13
51.450        27
51.460        27
51.470        13
51.480         7
51.490        20
51.500        20
51.510        33
51.520         0
51.530        20
51.540        20
51.550         0
51.560        20
51.570        33
51.580         0
51.590        20
51.600         7
51.610         7
51.620         7
51.630         7
51.640        13
51.650        20
51.660         0
51.670        27
51.680         7
51.690        13
51.700        13
51.710        20
51.720        20
51.730         0
51.740        13
51.750        13
51.760        20
51.770        13
51.780        13
51.790        13
51.800        13
51.810        13
51.820         0
51.830         0
51.840        13
51.850         0
51.860        27
51.870        13
51.880        13
51.890        13
51.900        13
51.910        13
51.920         0
51.930         0
51.940        13
51.950         7
51.960        27
51.970        20
51.980        13
51.990        13
52.000        13
52.010         0
52.020         0
52.030         7
52.040         0
52.050         7
52.060        13
52.070        27
52.080        33
52.090        13
52.100        13
52.110         7
52.120        13
52.130        27
52.140         7
52.150        13
52.160        13
52.170        13
52.180        20
52.190        13
52.200        13
52.210        13
52.220        13
52.230         7
52.240        13
52.250         7
52.260         7
52.270        20
52.280        13
52.290        27
52.300         7
52.310         0
52.320        40
52.330         7
52.340        13
52.350        20
52.360        20
52.370        13
52.380        13
52.390        27
52.400        13
52.410         0
52.420        40
52.430        27
52.440        33
52.450        13
52.460        27
52.470        20
52.480         7
52.490        33
52.500        13
52.510        13
52.520        20
52.530         0
52.540        20
52.550        20
52.560         7
52.570        13
52.580        13
52.590        33
52.600        13
52.610         0
52.620         7
52.630        20
52.640        13
52.650        13
52.660         7
52.670        13
52.680        13
52.690        20
52.700        13
52.710        13
52.720        13
52.730        27
52.740        20
52.750        13
52.760        33
52.770        33
52.780         7
52.790        20
52.800        40
52.810         7
52.820         7
52.830         7
52.840        13
52.850        27
52.860         7
52.870        20
52.880        33
52.890        13
52.900         7
52.910        13
52.920         7
52.930        27
52.940        13
52.950         7
52.960        33
52.970        13
52.980         7
52.990        20
53.000        20
53.010        20
53.020        13
53.030        13
53.040         7
53.050         7
53.060        13
53.070        13
53.080        13
53.090         0
53.100        13
53.110        13
53.120         0
53.130        13
53.140         7
53.150        27
53.160        13
53.170         7
53.180         7
53.190         7
53.200        20
53.210         7
53.220         7
53.230         7
53.240         7
53.250        13
53.260         7
53.270        13
53.280         7
53.290         0
53.300        13
53.310         7
53.320         0
53.330        13
53.340         7
53.350         7
53.360        13
53.370        33
53.380        13
53.390         0
53.400         7
53.410        20
53.420        40
53.430        13
53.440        13
53.450        27
53.460        20
53.470        13
53.480        47
53.490        27
53.500        33
53.510        27
53.520        20
53.530        33
53.540        20
53.550        20
53.560         7
53.570        13
53.580        20
53.590        13
53.600         0
53.610        40
53.620        13
53.630         7
53.640        13
53.650        27
53.660         7
53.670         7
53.680        20
53.690        13
53.700         7
53.710        13
53.720        13
53.730        13
53.740        33
53.750        13
53.760        13
53.770        13
53.780         7
53.790         7
53.800        27
53.810        13
53.820         7
53.830         0
53.840        27
53.850         0
53.860        33
53.870         0
53.880        20
53.890        20
53.900        13
53.910        33
53.920         7
53.930         0
53.940         0
53.950        27
53.960         7
53.970        20
53.980         7
53.990        27
54.000         7
54.010        13
54.020        27
54.030        13
54.040        27
54.050         0
54.060        13
54.070         0
54.080        47
54.090        47
54.100         7
54.110        20
54.120        13
54.130        20
54.140        13
54.150        13
54.160         7
54.170        20
54.180        13
54.190        27
54.200         0
54.210        33
54.220        27
54.230        27
54.240         7
54.250        40
54.260         7
54.270        27
54.280        33
54.290        13
54.300         7
54.310         0
54.320        33
54.330        13
54.340        13
54.350        27
54.360        13
54.370         7
54.380        20
54.390        27
54.400        20
54.410         7
54.420        20
54.430        33
54.440         7
54.450         0
54.460         7
54.470        13
54.480        13
54.490        27
54.500        33
54.510        13
54.520        20
54.530         7
54.540         0
54.550        27
54.560        20
54.570        13
54.580        20
54.590         7
54.600        13
54.610         7
54.620        13
54.630        27
54.640         0
54.650         7
54.660        13
54.670        20
54.680         0
54.690        20
54.700         7
54.710        33
54.720        20
54.730        27
54.740         7
54.750        27
54.760        20
54.770         0
54.780         7
54.790        27
54.800        27
54.810         7
54.820        13
54.830        53
54.840         7
54.850        27
54.860        40
54.870        33
54.880        40
54.890        53
54.900        33
54.910        40
54.920        40
54.930        13
54.940        53
54.950        67
54.960        47
54.970        73
54.980        53
54.990        73
55.000        87
55.010        67
55.020        80
55.030       100
55.040       113
55.050       113
55.060        87
55.070       107
55.080       173
55.090       113
55.100        87
55.110       100
55.120       133
55.130       107
55.140       120
55.150        93
55.160       120
55.170       100
55.180       120
55.190        93
55.200        47
55.210       113
55.220        80
55.230       100
55.240        87
55.250        93
55.260        53
55.270        47
55.280        33
55.290        60
55.300        40
55.310        60
55.320        67
55.330        73
55.340        60
55.350        20
55.360        20
55.370        27
55.380        27
55.390        47
55.400        33
55.410        20
55.420        13
55.430        13
55.440        20
55.450        40
55.460        33
55.470         7
55.480         0
55.490        13
55.500        33
55.510        40
55.520        13
55.530        20
55.540        27
55.550         7
55.560        20
55.570         0
55.580        13
55.590         0
55.600        20
55.610        27
55.620        13
55.630        13
55.640        20
55.650        33
55.660         7
55.670        33
55.680        20
55.690        40
55.700         7
55.710        13
55.720         7
55.730        13
55.740        33
55.750        20
55.760        13
55.770        20
55.780        20
55.790         7
55.800        47
55.810        27
55.820        13
55.830        27
55.840        27
55.850         0
55.860        13
55.870        33
55.880        33
55.890         0
55.900        40
55.910        20
55.920         0
55.930         7
55.940        13
55.950        40
55.960        47
55.970        13
55.980         7
55.990        13
56.000         0
56.010        20
56.020        20
56.030        27
56.040        20
56.050         0
56.060         7
56.070        20
56.080        13
56.090        20
56.100        13
56.110         7
56.120        13
56.130        27
56.140        20
56.150        20
56.160        13
56.170        27
56.180        27
56.190         0
56.200         7
56.210        33
56.220         7
56.230        13
56.240        27
56.250        20
56.260         7
56.270        27
56.280        13
56.290        13
56.300         7
56.310        13
56.320         0
56.330        13
56.340         7
56.350         7
56.360        20
56.370        20
56.380        13
56.390        27
56.400         7
56.410         0
56.420         0
56.430        13
56.440         7
56.450         7
56.460        13
56.470         7
56.480        20
56.490        20
56.500         7
56.510        13
56.520        13
56.530        33
56.540        20
56.550         0
56.560        20
56.570        13
56.580         0
56.590        20
56.600         7
56.610         7
56.620        20
56.630        20
56.640         7
56.650         0
56.660        13
56.670        13
56.680         7
56.690        20
56.700         7
56.710         7
56.720        13
56.730        13
56.740         7
56.750        20
56.760        27
56.770         0
56.780         7
56.790        20
56.800        20
56.810        27
56.820         7
56.830        20
56.840        13
56.850        13
56.860        20
56.870         7
56.880        40
56.890        13
56.900        27
56.910         7
56.920        13
56.930        13
56.940        13
56.950        20
56.960        13
56.970        13
56.980         7
56.990         0
57.000         7
57.010        20
57.020         7
57.030         0
57.040         0
57.050        13
57.060         0
57.070        13
57.080         7
57.090         7
57.100        20
57.110        20
57.120         7
57.130        13
57.140        27
57.150        20
57.160        20
57.170        20
57.180         7
57.190         7
57.200        20
57.210         7
57.220         7
57.230        13
57.240        27
57.250        27
57.260         7
57.270        20
57.280        33
57.290         7
57.300        27
57.310         7
57.320        33
57.330        27
57.340        33
57.350        27
57.360        33
57.370        40
57.380        33
57.390        20
57.400        13
57.410         7
57.420        20
57.430        20
57.440        20
57.450        20
57.460        47
57.470        53
57.480        60
57.490        73
57.500        27
57.510        60
57.520        60
57.530        47
57.540        73
57.550        73
57.560        40
57.570        33
57.580        13
57.590        53
57.600        27
57.610        33
57.620        53
57.630        33
57.640        13
57.650        67
57.660        47
57.670        47
57.680        33
57.690        20
57.700        40
57.710        40
57.720        27
57.730         7
57.740        13
57.750        20
57.760        13
57.770        20
57.780        33
57.790        13
57.800        20
57.810        20
57.820        33
57.830        27
57.840         7
57.850        20
57.860         7
57.870        13
57.880         7
57.890         0
57.900         7
57.910        27
57.920         7
57.930         7
57.940        20
57.950        33
57.960        20
57.970         7
57.980        13
57.990        13
58.000        13
58.010        13
58.020        20
58.030         7
58.040         0
58.050        33
58.060         0
58.070         7
58.080        20
58.090        13
58.100        13
58.110        20
58.120         0
58.130         7
58.140        13
58.150        27
58.160        13
58.170         7
58.180        13
58.190         0
58.200         7
58.210         7
58.220         0
58.230        13
58.240         7
58.250        47
58.260        20
58.270        27
58.280        27
58.290        33
58.300        20
58.310         7
58.320        20
58.330         7
58.340        20
58.350        27
58.360         7
58.370        13
58.380         0
58.390         7
58.400        20
58.410         0
58.420         7
58.430        20
58.440        13
58.450         0
58.460        27
58.470         0
58.480        13
58.490         7
58.500        20
58.510        13
58.520        13
58.530        13
58.540         7
58.550        13
58.560        27
58.570         0
58.580        20
58.590         7
58.600        20
58.610        13
58.620         7
58.630         7
58.640        13
58.650         0
58.660         7
58.670         7
58.680        13
58.690        13
58.700        20
58.710         0
58.720        33
58.730        20
58.740         7
58.750        20
58.760        20
58.770         7
58.780        27
58.790        13
58.800        13
58.810        20
58.820        13
58.830        20
58.840         7
58.850        20
58.860         7
58.870         0
58.880        13
58.890         0
58.900         0
58.910        27
58.920         7
58.930        13
58.940        13
58.950         7
58.960        27
58.970        27
58.980        20
58.990        13
59.000        20
59.010         7
59.020        20
59.030        47
59.040         7
59.050        13
59.060        13
59.070        13
59.080         7
59.090        20
59.100         7
59.110        13
59.120        13
59.130        13
59.140         0
59.150        13
59.160        13
59.170        13
59.180         0
59.190         7
59.200        13
59.210        13
59.220        13
59.230        27
59.240         0
59.250         0
59.260         0
59.270         7
59.280        27
59.290        13
59.300        27
59.310         7
59.320        13
59.330        27
59.340         7
59.350         7
59.360        20
59.370        13
59.380        13
59.390         0
59.400        20
59.410         0
59.420        27
59.430        13
59.440        13
59.450        13
59.460        27
59.470        20
59.480        13
59.490        20
59.500        13
59.510        27
59.520         7
59.530         0
59.540        27
59.550         0
59.560         7
59.570         7
59.580        20
59.590        40
59.600         7
59.610         7
59.620        27
59.630        33
59.640         7
59.650        13
59.660         7
59.670         7
59.680         0
59.690        20
59.700        40
59.710        33
59.720         7
59.730         7
59.740         7
59.750         7
59.760         7
59.770         7
59.780         7
59.790         7
59.800        13
59.810         0
59.820         7
59.830        20
59.840         0
59.850        13
59.860        20
59.870         7
59.880         7
59.890        13
59.900        27
59.910        13
59.920         7
59.930        13
59.940         7
59.950        13
59.960         7
59.970        13
59.980         7
59.990        13
60.000        13
