20.000         0
20.010         0
20.020        27
20.030        53
20.040        67
20.050         0
20.060        27
20.070        93
20.080        40
20.090        13
20.100        93
20.110        53
20.120        27
20.130         0
20.140        53
20.150        27
20.160        67
20.170        53
20.180        67
20.190        67
20.200        40
20.210         0
20.220        13
20.230        27
20.240        80
20.250        53
20.260        13
20.270        40
20.280        27
20.290        80
20.300        13
20.310        27
20.320        27
20.330         0
20.340        80
20.350        40
20.360        40
20.370        80
20.380        53
20.390        67
20.400        27
20.410        27
20.420        53
20.430        67
20.440        53
20.450        80
20.460        27
20.470        40
20.480        80
20.490        53
20.500        40
20.510        67
20.520        67
20.530        40
20.540        40
20.550        40
20.560       120
20.570        80
20.580        80
20.590        40
20.600        40
20.610        13
20.620       107
20.630        53
20.640        93
20.650        13
20.660        13
20.670        40
20.680        80
20.690        53
20.700        13
20.710        13
20.720        80
20.730        13
20.740        67
20.750        13
20.760        40
20.770        13
20.780        40
20.790        27
20.800        53
20.810         0
20.820        53
20.830        53
20.840        67
20.850        27
20.860        40
20.870        13
20.880        53
20.890        27
20.900        53
20.910         0
20.920        40
20.930        27
20.940        40
20.950        40
20.960        53
20.970        67
20.980        27
20.990        53
21.000        67
21.010        40
21.020        40
21.030        40
21.040         0
21.050        40
21.060        53
21.070        40
21.080        27
21.090         0
21.100        67
21.110        27
21.120        13
21.130        40
21.140        40
21.150        67
21.160        27
21.170        40
21.180        13
21.190        13
21.200        80
21.210        53
21.220        27
21.230        40
21.240        40
21.250        53
21.260        67
21.270       107
21.280        40
21.290        53
21.300        80
21.310        13
21.320        27
21.330        27
21.340        80
21.350        40
21.360        53
21.370        67
21.380        27
21.390        40
21.400        27
21.410        67
21.420        40
21.430        80
21.440        13
21.450        40
21.460        67
21.470        27
21.480        40
21.490        27
21.500        13
21.510        40
21.520        40
21.530        53
21.540        40
21.550        13
21.560        40
21.570        27
21.580        93
21.590        40
21.600        13
21.610        40
21.620        40
21.630        53
21.640        53
21.650        27
21.660        40
21.670        80
21.680        67
21.690        40
21.700        27
21.710        67
21.720        40
21.730        53
21.740        53
21.750        40
21.760         0
21.770        67
21.780        40
21.790        40
21.800        67
21.810        40
21.820        93
21.830        13
21.840        27
21.850        13
21.860        40
21.870        27
21.880        53
21.890        27
21.900        53
21.910        67
21.920        13
21.930        80
21.940        40
21.950        93
21.960        53
21.970        67
21.980        13
21.990        27
22.000        40
22.010        40
22.020        13
22.030        40
22.040        13
22.050        53
22.060        40
22.070        27
22.080        27
22.090        13
22.100        67
22.110        13
22.120        40
22.130        53
22.140        80
22.150        40
22.160        13
22.170        53
22.180        53
22.190         0
22.200        80
22.210         0
22.220        53
22.230        40
22.240        27
22.250        13
22.260        53
22.270        13
22.280        27
22.290        13
22.300        40
22.310        27
22.320        67
22.330        27
22.340        27
22.350        67
22.360        40
22.370        67
22.380        40
22.390        13
22.400         0
22.410        40
22.420        40
22.430        53
22.440        13
22.450        27
22.460        27
22.470        67
22.480        53
22.490        67
22.500        67
22.510        27
22.520        40
22.530        67
22.540        13
22.550        53
22.560        40
22.570        80
22.580        27
22.590        53
22.600        27
22.610        13
22.620        13
22.630        93
22.640        13
22.650        93
22.660        67
22.670         0
22.680        53
22.690        13
22.700        53
22.710        40
22.720        67
22.730         0
22.740        27
22.750       120
22.760        53
22.770        13
22.780        27
22.790        53
22.800        13
22.810        27
22.820        27
22.830        53
22.840        40
22.850        40
22.860        80
22.870        27
22.880        27
22.890        13
22.900        53
22.910        27
22.920        27
22.930        13
22.940        13
22.950        53
22.960        13
22.970        13
22.980         0
22.990        53
23.000         0
23.010        27
23.020        13
23.030        40
23.040        80
23.050        40
23.060        13
23.070        13
23.080        80
23.090        27
23.100         0
23.110        27
23.120        53
23.130        27
23.140        27
23.150        40
23.160        40
23.170        27
23.180        53
23.190        13
23.200        27
23.210        27
23.220        13
23.230        40
23.240        13
23.250        13
23.260        27
23.270        40
23.280        27
23.290        27
23.300        13
23.310        40
23.320        40
23.330        80
23.340         0
23.350        53
23.360        13
23.370        53
23.380        40
23.390        27
23.400        27
23.410        27
23.420        40
23.430        27
23.440        53
23.450        13
23.460        40
23.470        13
23.480         0
23.490        27
23.500        53
23.510        27
23.520        27
23.530        13
23.540        27
23.550        27
23.560        27
23.570        27
23.580        93
23.590        53
23.600        13
23.610        67
23.620         0
23.630        40
23.640        53
23.650        40
23.660        40
23.670        27
23.680        40
23.690        13
23.700        40
23.710        13
23.720        13
23.730        27
23.740        40
23.750        13
23.760        27
23.770        40
23.780         0
23.790        13
23.800        40
23.810        13
23.820        40
23.830        40
23.840        13
23.850        40
23.860        53
23.870        27
23.880        13
23.890        40
23.900        80
23.910         0
23.920        13
23.930        67
23.940        53
23.950        13
23.960        27
23.970        27
23.980        13
23.990        27
24.000        53
24.010        40
24.020         0
24.030        67
24.040        40
24.050        80
24.060        40
24.070        40
24.080        13
24.090         0
24.100        40
24.110        80
24.120        53
24.130        13
24.140        53
24.150        40
24.160        27
24.170        40
24.180        53
24.190        13
24.200        27
24.210        13
24.220        80
24.230        40
24.240        13
24.250        40
24.260         0
24.270        13
24.280        53
24.290        13
24.300        27
24.310        40
24.320        27
24.330        40
24.340        27
24.350        53
24.360        13
24.370        27
24.380        27
24.390         0
24.400        53
24.410        40
24.420        13
24.430        13
24.440        27
24.450        53
24.460        27
24.470        27
24.480         0
24.490        13
24.500        13
24.510        53
24.520        80
24.530        67
24.540        40
24.550        40
24.560        40
24.570        27
24.580        53
24.590        27
24.600        13
24.610         0
24.620        13
24.630        53
24.640         0
24.650        27
24.660        53
24.670        27
24.680        40
24.690        40
24.700         0
24.710        13
24.720         0
24.730        13
24.740        13
24.750        27
24.760        13
24.770        53
24.780        67
24.790         0
24.800        13
24.810        13
24.820        40
24.830        40
24.840        13
24.850        40
24.860        40
24.870        27
24.880        53
24.890        27
24.900        27
24.910        13
24.920        53
24.930        93
24.940        67
24.950        27
24.960        13
24.970         0
24.980        40
24.990        27
25.000        53
25.010        40
25.020        27
25.030        27
25.040        27
25.050        53
25.060         0
25.070        13
25.080        27
25.090        27
25.100        40
25.110        27
25.120        13
25.130        13
25.140        27
25.150        13
25.160        27
25.170        67
25.180         0
25.190        53
25.200        40
25.210        67
25.220        27
25.230        13
25.240        53
25.250        13
25.260        13
25.270         0
25.280        13
25.290        13
25.300        53
25.310        27
25.320        27
25.330        40
25.340        13
25.350        40
25.360        13
25.370         0
25.380        27
25.390        27
25.400        13
25.410        27
25.420        67
25.430        27
25.440        40
25.450        13
25.460        27
25.470        67
25.480        27
25.490        13
25.500        67
25.510        53
25.520        27
25.530        40
25.540        40
25.550        27
25.560        27
25.570        27
25.580        40
25.590        53
25.600        27
25.610        53
25.620        40
25.630       120
25.640        13
25.650        27
25.660        13
25.670        67
25.680        40
25.690         0
25.700        40
25.710        67
25.720        13
25.730        27
25.740        67
25.750        13
25.760        53
25.770        67
25.780        27
25.790        13
25.800         0
25.810        40
25.820        13
25.830        27
25.840        40
25.850        27
25.860        13
25.870        13
25.880        40
25.890        13
25.900        27
25.910        13
25.920        27
25.930        27
25.940        40
25.950        40
25.960        40
25.970        27
25.980         0
25.990        93
26.000        27
26.010        27
26.020        27
26.030        40
26.040        40
26.050        40
26.060        53
26.070        27
26.080        40
26.090        40
26.100         0
26.110        13
26.120        27
26.130        40
26.140         0
26.150        93
26.160        27
26.170        27
26.180        40
26.190        40
26.200        27
26.210        93
26.220        53
26.230        27
26.240        13
26.250        27
26.260        13
26.270        40
26.280        27
26.290        27
26.300        40
26.310         0
26.320        13
26.330        53
26.340        27
26.350        27
26.360         0
26.370        40
26.380        13
26.390         0
26.400        67
26.410        27
26.420         0
26.430        67
26.440        53
26.450         0
26.460        27
26.470        67
26.480        27
26.490        40
26.500        13
26.510        53
26.520        13
26.530        27
26.540        40
26.550        13
26.560        13
26.570        13
26.580        13
26.590        13
26.600        27
26.610         0
26.620        80
26.630        27
26.640        27
26.650        53
26.660        27
26.670        13
26.680        40
26.690        13
26.700        53
26.710        53
26.720        53
26.730         0
26.740        40
26.750         0
26.760        40
26.770        27
26.780        67
26.790        27
26.800        40
26.810        40
26.820        27
26.830        13
26.840        13
26.850        13
26.860        40
26.870        27
26.880        40
26.890        40
26.900        27
26.910        40
26.920        53
26.930        53
26.940        40
26.950        27
26.960        67
26.970         0
26.980        67
26.990        13
27.000        40
27.010        53
27.020        40
27.030        40
27.040        13
27.050        13
27.060         0
27.070        13
27.080        13
27.090        40
27.100        40
27.110        40
27.120         0
27.130        27
27.140         0
27.150         0
27.160        40
27.170        80
27.180        13
27.190        40
27.200        27
27.210        27
27.220        13
27.230        40
27.240        53
27.250        13
27.260         0
27.270        13
27.280        27
27.290        27
27.300        27
27.310        13
27.320        40
27.330        27
27.340        53
27.350        40
27.360        67
27.370        40
27.380        13
27.390        53
27.400        27
27.410        40
27.420         0
27.430        27
27.440        13
27.450        53
27.460        27
27.470        40
27.480        27
27.490        13
27.500        67
27.510        27
27.520        13
27.530        40
27.540         0
27.550        27
27.560        27
27.570        53
27.580        40
27.590        40
27.600        13
27.610         0
27.620        40
27.630        27
27.640        27
27.650        40
27.660        13
27.670       107
27.680        27
27.690        27
27.700        67
27.710        13
27.720        53
27.730        53
27.740        13
27.750        67
27.760        27
27.770       120
27.780        27
27.790        80
27.800        40
27.810        27
27.820        27
27.830        13
27.840       147
27.850        27
27.860        53
27.870        40
27.880        40
27.890        80
27.900        27
27.910        27
27.920        67
27.930        67
27.940         0
27.950        27
27.960        40
27.970        53
27.980        40
27.990        40
28.000        53
28.010        27
28.020        13
28.030        27
28.040         0
28.050        27
28.060         0
28.070        27
28.080         0
28.090        27
28.100        40
28.110        13
28.120        53
28.130        13
28.140        53
28.150        13
28.160         0
28.170        27
28.180         0
28.190         0
28.200        53
28.210        13
28.220        27
28.230        40
28.240        40
28.250        27
28.260        27
28.270        27
28.280        13
28.290        53
28.300        40
28.310        53
28.320        40
28.330        53
28.340        53
28.350        27
28.360        13
28.370        40
28.380        27
28.390        13
28.400        13
28.410        40
28.420        27
28.430        27
28.440        53
28.450         0
28.460        80
28.470        13
28.480        13
28.490        13
28.500        53
28.510         0
28.520        27
28.530        13
28.540        27
28.550        40
28.560        13
28.570        80
28.580        40
28.590        13
28.600        40
28.610        13
28.620        27
28.630        13
28.640         0
28.650        80
28.660        53
28.670        53
28.680        13
28.690         0
28.700         0
28.710        40
28.720        27
28.730        27
28.740        53
28.750        27
28.760        40
28.770        67
28.780         0
28.790        40
28.800        40
28.810        27
28.820        13
28.830        27
28.840        27
28.850        13
28.860        27
28.870        53
28.880        40
28.890        13
28.900        27
28.910        40
28.920        40
28.930        40
28.940        40
28.950        27
28.960        13
28.970        27
28.980         0
28.990        80
29.000        13
29.010        13
29.020        40
29.030        27
29.040        27
29.050        27
29.060        27
29.070        27
29.080        40
29.090        67
29.100        13
29.110         0
29.120         0
29.130        53
29.140        27
29.150        13
29.160        27
29.170        13
29.180        40
29.190        13
29.200        27
29.210        13
29.220        27
29.230        53
29.240         0
29.250        27
29.260        13
29.270        67
29.280         0
29.290         0
29.300         0
29.310        27
29.320        27
29.330        53
29.340        13
29.350        40
29.360        27
29.370        13
29.380        13
29.390        40
29.400         0
29.410        40
29.420        53
29.430        40
29.440        40
29.450        27
29.460        27
29.470        27
29.480        40
29.490         0
29.500        53
29.510        40
29.520        53
29.530        53
29.540        53
29.550        27
29.560        40
29.570        13
29.580        13
29.590         0
29.600        53
29.610        27
29.620        40
29.630        27
29.640        53
29.650        13
29.660        27
29.670        53
29.680        40
29.690         0
29.700        40
29.710        67
29.720        27
29.730        67
29.740        53
29.750        67
29.760        40
29.770        40
29.780        40
29.790        27
29.800        27
29.810        13
29.820        13
29.830        13
29.840        53
29.850        40
29.860        67
29.870        40
29.880        27
29.890        13
29.900        53
29.910        80
29.920        53
29.930        67
29.940        13
29.950        67
29.960        53
29.970        53
29.980        53
29.990       107
30.000        40
30.010        40
30.020        67
30.030        67
30.040        40
30.050        93
30.060        80
30.070        93
30.080        93
30.090        80
30.100        53
30.110        53
30.120        80
30.130        53
30.140        80
30.150       120
30.160        27
30.170        80
30.180        27
30.190        27
30.200       107
30.210        40
30.220        67
30.230        80
30.240       133
30.250       107
30.260       147
30.270        93
30.280        67
30.290       147
30.300       107
30.310       133
30.320        93
30.330       147
30.340       107
30.350       133
30.360       147
30.370       173
30.380        80
30.390       147
30.400       147
30.410       107
30.420       160
30.430       147
30.440       240
30.450       120
30.460       187
30.470       227
30.480       227
30.490       133
30.500       213
30.510       280
30.520       227
30.530       347
30.540       347
30.550       333
30.560       333
30.570       200
30.580       520
30.590       347
30.600       400
30.610       426
30.620       546
30.630       533
30.640       600
30.650       733
30.660       680
30.670       786
30.680       786
30.690       960
30.700       866
30.710      1040
30.720      1306
30.730      1346
30.740      1213
30.750      1466
30.760      1786
30.770      1693
30.780      2132
30.790      1866
30.800      1986
30.810      2612
30.820      2985
30.830      2932
30.840      2892
30.850      3212
30.860      3425
30.870      3599
30.880      3758
30.890      3332
30.900      3639
30.910      3972
30.920      3545
30.930      3372
30.940      3332
30.950      3079
30.960      3065
30.970      2759
30.980      2346
30.990      2679
31.000      2212
31.010      1826
31.020      1733
31.030      1346
31.040      1240
31.050       866
31.060      1026
31.070       760
31.080       613
31.090       666
31.100       466
31.110       600
31.120       453
31.130       400
31.140       440
31.150       360
31.160       253
31.170       213
31.180       267
31.190       293
31.200       200
31.210       240
31.220       160
31.230       173
31.240       147
31.250       173
31.260       213
31.270       120
31.280       120
31.290       173
31.300       173
31.310       160
31.320       120
31.330        80
31.340       107
31.350        67
31.360       173
31.370       173
31.380        27
31.390       120
31.400       147
31.410       200
31.420       120
31.430        93
31.440       107
31.450       107
31.460        53
31.470       120
31.480       147
31.490        80
31.500        80
31.510       173
31.520       120
31.530        93
31.540        53
31.550        93
31.560        80
31.570        80
31.580        40
31.590        67
31.600        40
31.610        40
31.620        40
31.630        93
31.640       107
31.650        53
31.660        93
31.670        67
31.680        67
31.690        67
31.700        40
31.710        40
31.720        80
31.730        40
31.740        53
31.750        40
31.760        53
31.770        93
31.780        93
31.790        40
31.800        80
31.810        53
31.820        40
31.830        53
31.840        40
31.850        80
31.860        67
31.870        93
31.880        67
31.890        27
31.900       120
31.910        13
31.920        40
31.930        67
31.940        93
31.950        53
31.960        13
31.970        53
31.980        40
31.990        27
32.000        80
32.010        67
32.020        53
32.030        67
32.040        27
32.050       107
32.060        80
32.070        40
32.080        53
32.090        27
32.100        13
32.110        27
32.120        53
32.130        53
32.140       133
32.150        27
32.160        53
32.170        80
32.180        53
32.190        13
32.200        53
32.210        13
32.220        67
32.230        40
32.240        27
32.250        53
32.260        40
32.270        53
32.280        80
32.290        40
32.300        67
32.310        67
32.320       120
32.330        53
32.340        67
32.350       107
32.360        53
32.370        27
32.380        13
32.390        40
32.400        27
32.410        80
32.420       107
32.430        67
32.440        67
32.450         0
32.460        40
32.470        67
32.480        67
32.490        67
32.500         0
32.510        40
32.520        67
32.530        40
32.540        40
32.550        40
32.560        27
32.570        27
32.580        80
32.590        13
32.600        13
32.610        27
32.620        53
32.630        93
32.640        93
32.650        40
32.660        53
32.670        53
32.680       107
32.690        40
32.700        27
32.710        27
32.720        40
32.730        67
32.740        27
32.750        13
32.760        40
32.770        67
32.780        53
32.790        27
32.800        13
32.810        40
32.820        13
32.830        40
32.840        27
32.850        27
32.860        27
32.870         0
32.880        13
32.890        93
32.900        27
32.910        13
32.920        27
32.930        13
32.940        53
32.950        53
32.960         0
32.970        67
32.980        27
32.990        40
33.000        93
33.010        27
33.020        40
33.030        53
33.040        67
33.050        40
33.060        40
33.070        13
33.080        53
33.090        27
33.100        80
33.110        53
33.120        27
33.130        27
33.140        40
33.150        40
33.160        53
33.170        40
33.180        27
33.190        40
33.200        67
33.210        40
33.220        13
33.230        27
33.240        13
33.250        27
33.260        13
33.270        40
33.280        27
33.290        13
33.300         0
33.310        67
33.320        53
33.330        53
33.340        40
33.350        40
33.360        13
33.370        27
33.380        67
33.390        27
33.400        40
33.410        40
33.420       107
33.430        40
33.440        40
33.450        27
33.460        80
33.470        40
33.480        40
33.490        13
33.500        27
33.510        53
33.520        27
33.530        27
33.540        13
33.550        27
33.560        40
33.570        13
33.580        40
33.590        13
33.600        40
33.610         0
33.620        13
33.630        13
33.640        27
33.650        13
33.660        40
33.670        40
33.680        40
33.690        53
33.700        53
33.710        13
33.720        13
33.730        40
33.740        27
33.750        53
33.760        40
33.770        53
33.780        13
33.790        40
33.800        40
33.810        53
33.820        40
33.830        40
33.840        40
33.850        40
33.860        40
33.870        40
33.880        40
33.890        53
33.900        53
33.910        67
33.920        27
33.930        67
33.940         0
33.950        40
33.960        13
33.970        40
33.980        67
33.990        67
34.000        40
34.010        27
34.020        13
34.030        13
34.040         0
34.050        13
34.060        53
34.070        40
34.080        13
34.090        13
34.100         0
34.110        53
34.120        13
34.130        27
34.140        53
34.150        53
34.160        13
34.170        40
34.180        13
34.190        40
34.200        13
34.210        53
34.220        13
34.230        13
34.240        27
34.250        13
34.260        67
34.270        27
34.280        40
34.290        27
34.300        27
34.310        13
34.320        40
34.330         0
34.340        27
34.350         0
34.360        27
34.370        67
34.380        13
34.390        40
34.400        13
34.410        53
34.420        67
34.430         0
34.440        27
34.450        40
34.460        13
34.470         0
34.480        13
34.490        53
34.500        40
34.510        93
34.520        27
34.530        27
34.540         0
34.550        27
34.560        27
34.570        67
34.580        27
34.590        40
34.600        40
34.610         0
34.620        13
34.630        27
34.640        27
34.650        27
34.660        27
34.670        27
34.680        40
34.690        27
34.700        13
34.710        53
34.720        13
34.730        27
34.740        27
34.750        27
34.760        40
34.770        27
34.780        13
34.790        13
34.800        40
34.810        40
34.820        27
34.830        27
34.840         0
34.850        40
34.860        53
34.870        27
34.880        27
34.890        27
34.900        27
34.910        40
34.920         0
34.930        27
34.940         0
34.950        27
34.960        53
34.970        13
34.980        40
34.990        67
35.000        13
35.010         0
35.020        67
35.030        27
35.040        13
35.050         0
35.060        40
35.070        27
35.080        40
35.090        27
35.100        40
35.110        27
35.120        13
35.130        93
35.140        53
35.150        27
35.160        67
35.170        93
35.180       120
35.190        67
35.200        27
35.210        80
35.220        53
35.230        53
35.240        13
35.250        40
35.260        27
35.270        53
35.280        27
35.290        67
35.300        27
35.310        40
35.320        40
35.330        27
35.340        13
35.350        13
35.360        67
35.370        53
35.380         0
35.390        27
35.400        40
35.410        13
35.420        13
35.430        27
35.440        27
35.450        27
35.460        40
35.470        27
35.480        13
35.490        13
35.500        53
35.510        40
35.520        27
35.530        13
35.540         0
35.550        53
35.560        53
35.570        13
35.580        27
35.590         0
35.600        53
35.610        40
35.620        27
35.630        27
35.640        27
35.650        67
35.660         0
35.670        53
35.680        53
35.690         0
35.700        13
35.710        27
35.720        40
35.730        13
35.740        67
35.750        13
35.760        40
35.770         0
35.780        13
35.790        27
35.800        67
35.810        53
35.820        40
35.830         0
35.840        67
35.850         0
35.860        53
35.870         0
35.880        27
35.890        40
35.900        53
35.910        40
35.920        27
35.930        27
35.940        40
35.950         0
35.960        40
35.970        67
35.980        80
35.990        27
36.000        53
36.010        67
36.020        40
36.030        13
36.040        13
36.050        53
36.060        13
36.070        67
36.080        27
36.090        53
36.100        40
36.110        27
36.120        13
36.130        13
36.140        13
36.150        40
36.160        27
36.170        40
36.180        13
36.190        13
36.200        53
36.210        27
36.220        13
36.230        27
36.240        40
36.250        40
36.260        13
36.270        27
36.280        27
36.290        53
36.300        13
36.310         0
36.320        27
36.330        80
36.340         0
36.350        40
36.360        40
36.370        27
36.380        13
36.390        67
36.400        13
36.410        27
36.420        40
36.430        53
36.440        40
36.450        27
36.460        53
36.470         0
36.480         0
36.490        13
36.500        80
36.510        27
36.520        40
36.530        13
36.540        13
36.550        27
36.560         0
36.570        27
36.580        13
36.590        27
36.600        27
36.610        27
36.620        13
36.630         0
36.640         0
36.650         0
36.660        40
36.670        40
36.680        27
36.690         0
36.700        27
36.710        13
36.720        40
36.730        27
36.740        40
36.750        13
36.760        13
36.770        40
36.780        53
36.790        53
36.800        27
36.810        13
36.820        53
36.830        13
36.840        13
36.850         0
36.860        27
36.870        27
36.880        40
36.890        13
36.900        13
36.910        40
36.920        40
36.930         0
36.940        53
36.950        40
36.960        13
36.970        53
36.980        40
36.990        13
37.000        53
37.010        13
37.020        27
37.030        27
37.040        80
37.050        40
37.060        27
37.070        40
37.080        27
37.090        40
37.100        27
37.110        13
37.120        13
37.130        40
37.140        67
37.150        40
37.160        13
37.170        53
37.180        40
37.190        27
37.200        40
37.210         0
37.220        27
37.230        13
37.240        40
37.250        40
37.260        27
37.270        53
37.280        40
37.290        40
37.300        13
37.310        27
37.320        13
37.330         0
37.340        27
37.350        40
37.360        27
37.370         0
37.380        13
37.390         0
37.400         0
37.410        13
37.420        40
37.430        40
37.440        13
37.450        40
37.460        27
37.470        13
37.480        27
37.490        13
37.500        27
37.510        13
37.520        40
37.530        27
37.540        27
37.550        13
37.560        67
37.570         0
37.580        53
37.590        27
37.600        40
37.610        53
37.620        27
37.630         0
37.640        13
37.650        40
37.660         0
37.670        40
37.680         0
37.690        13
37.700        53
37.710        13
37.720         0
37.730        27
37.740        27
37.750        53
37.760        67
37.770         0
37.780        40
37.790        53
37.800        27
37.810        13
37.820        27
37.830        40
37.840        40
37.850        13
37.860        53
37.870        67
37.880        53
37.890        13
37.900        53
37.910        27
37.920        27
37.930        53
37.940        27
37.950        27
37.960        40
37.970        93
37.980        53
37.990        80
38.000        27
38.010        93
38.020        67
38.030        80
38.040        53
38.050       120
38.060        40
38.070        80
38.080       107
38.090        93
38.100       120
38.110       120
38.120       133
38.130        93
38.140        53
38.150       107
38.160       133
38.170       133
38.180        93
38.190       107
38.200       133
38.210       147
38.220       147
38.230       120
38.240       107
38.250        80
38.260        93
38.270       187
38.280        67
38.290       133
38.300        40
38.310       107
38.320        80
38.330        40
38.340        40
38.350        40
38.360        27
38.370        27
38.380        53
38.390        80
38.400        53
38.410        40
38.420        13
38.430        27
38.440        13
38.450        93
38.460        40
38.470        67
38.480        27
38.490        27
38.500        40
38.510        13
38.520        27
38.530        53
38.540        27
38.550        13
38.560        40
38.570        40
38.580        13
38.590        53
38.600        67
38.610        40
38.620        40
38.630        27
38.640        40
38.650        27
38.660        27
38.670        27
38.680        27
38.690         0
38.700         0
38.710         0
38.720        53
38.730        13
38.740        27
38.750        13
38.760        40
38.770        13
38.780        40
38.790        27
38.800         0
38.810        13
38.820         0
38.830        27
38.840        40
38.850        13
38.860        27
38.870        40
38.880        13
38.890        13
38.900        13
38.910        80
38.920        13
38.930        27
38.940        40
38.950        13
38.960        27
38.970        40
38.980        13
38.990        40
39.000        27
39.010        27
39.020        40
39.030        27
39.040        27
39.050        27
39.060        13
39.070         0
39.080        27
39.090         0
39.100        40
39.110        13
39.120        27
39.130        27
39.140        27
39.150        40
39.160        13
39.170        27
39.180        40
39.190        27
39.200        13
39.210        13
39.220        40
39.230        27
39.240        27
39.250        13
39.260        80
39.270        13
39.280         0
39.290        27
39.300        40
39.310        13
39.320        40
39.330         0
39.340         0
39.350        40
39.360         0
39.370        40
39.380         0
39.390        40
39.400        13
39.410        13
39.420        13
39.430        67
39.440        27
39.450        13
39.460        40
39.470        53
39.480        27
39.490        13
39.500         0
39.510        40
39.520        27
39.530        53
39.540        27
39.550        27
39.560        13
39.570        13
39.580        40
39.590        40
39.600        13
39.610        27
39.620        53
39.630        27
39.640        40
39.650        27
39.660        53
39.670        13
39.680        40
39.690        27
39.700         0
39.710        53
39.720        13
39.730        40
39.740        53
39.750        13
39.760        27
39.770        27
39.780        13
39.790        40
39.800         0
39.810        13
39.820        40
39.830         0
39.840        40
39.850        13
39.860        13
39.870        13
39.880        40
39.890        13
39.900        13
39.910        27
39.920        13
39.930        27
39.940        27
39.950        40
39.960        40
39.970        13
39.980        13
39.990        27
40.000        40
40.010        27
40.020        27
40.030        27
40.040        40
40.050         0
40.060        40
40.070        67
40.080        27
40.090        53
40.100         0
40.110        40
40.120        27
40.130         0
40.140        40
40.150        13
40.160        13
40.170        27
40.180        40
40.190        27
40.200         0
40.210        40
40.220         0
40.230         0
40.240        27
40.250        27
40.260         0
40.270        13
40.280         0
40.290        13
40.300        40
40.310         0
40.320        13
40.330         0
40.340        13
40.350        27
40.360        27
40.370        27
40.380        27
40.390        13
40.400        27
40.410        67
40.420         0
40.430         0
40.440        13
40.450        13
40.460        40
40.470        13
40.480        13
40.490         0
40.500        67
40.510        27
40.520         0
40.530         0
40.540        13
40.550        13
40.560        13
40.570         0
40.580        40
40.590         0
40.600        13
40.610         0
40.620        53
40.630        13
40.640        53
40.650        13
40.660        40
40.670        27
40.680        27
40.690         0
40.700        13
40.710        13
40.720        40
40.730        27
40.740        27
40.750        40
40.760        27
40.770        13
40.780        13
40.790        40
40.800        27
40.810        13
40.820        13
40.830        13
40.840         0
40.850        13
40.860        27
40.870        27
40.880        13
40.890        53
40.900        27
40.910         0
40.920        40
40.930        27
40.940         0
40.950        13
40.960        27
40.970         0
40.980        53
40.990        53
41.000        40
41.010         0
41.020         0
41.030        27
41.040         0
41.050        27
41.060        27
41.070         0
41.080        40
41.090        27
41.100         0
41.110        13
41.120        13
41.130         0
41.140        67
41.150        13
41.160         0
41.170         0
41.180        13
41.190        13
41.200        27
41.210         0
41.220         0
41.230         0
41.240        13
41.250         0
41.260         0
41.270        27
41.280         0
41.290         0
41.300        40
41.310         0
41.320         0
41.330        53
41.340         0
41.350         0
41.360        27
41.370        13
41.380        13
41.390        13
41.400         0
41.410        27
41.420        27
41.430        13
41.440        27
41.450        53
41.460         0
41.470        13
41.480        40
41.490         0
41.500        13
41.510        13
41.520        40
41.530        13
41.540        13
41.550        27
41.560        13
41.570        13
41.580        27
41.590        40
41.600        40
41.610        53
41.620        40
41.630        27
41.640        40
41.650        40
41.660        67
41.670        53
41.680       107
41.690        53
41.700       200
41.710       107
41.720       120
41.730        53
41.740        67
41.750       200
41.760       187
41.770        67
41.780        53
41.790        67
41.800        40
41.810        53
41.820        80
41.830        27
41.840        80
41.850        53
41.860        40
41.870        40
41.880        27
41.890        13
41.900        40
41.910         0
41.920        40
41.930         0
41.940        13
41.950        13
41.960        13
41.970        13
41.980        27
41.990        27
42.000        40
42.010        13
42.020        27
42.030        40
42.040        13
42.050         0
42.060         0
42.070         0
42.080        13
42.090        13
42.100        53
42.110         0
42.120         0
42.130        13
42.140        40
42.150         0
42.160        53
42.170        13
42.180        13
42.190         0
42.200        13
42.210        13
42.220        27
42.230        13
42.240        27
42.250        13
42.260         0
42.270        13
42.280        13
42.290         0
42.300        13
42.310        13
42.320        40
42.330         0
42.340        13
42.350        13
42.360        27
42.370         0
42.380         0
42.390        13
42.400        40
42.410         0
42.420        13
42.430        40
42.440        40
42.450        40
42.460         0
42.470        13
42.480        13
42.490        53
42.500        67
42.510        13
42.520        27
42.530        27
42.540        13
42.550        13
42.560         0
42.570         0
42.580        13
42.590        13
42.600        27
42.610        27
42.620         0
42.630        53
42.640        40
42.650         0
42.660        40
42.670         0
42.680        13
42.690        27
42.700        27
42.710        13
42.720        27
42.730        40
42.740        27
42.750        27
42.760        27
42.770        13
42.780         0
42.790         0
42.800        67
42.810        13
42.820        27
42.830        27
42.840         0
42.850        13
42.860         0
42.870        13
42.880        13
42.890         0
42.900        40
42.910         0
42.920         0
42.930        40
42.940        13
42.950        13
42.960        13
42.970        40
42.980        27
42.990         0
43.000        40
43.010        13
43.020        13
43.030         0
43.040        27
43.050        40
43.060         0
43.070         0
43.080        13
43.090        13
43.100        13
43.110         0
43.120        13
43.130        27
43.140         0
43.150        13
43.160        13
43.170        40
43.180         0
43.190        27
43.200        13
43.210        67
43.220        40
43.230         0
43.240        27
43.250        13
43.260        27
43.270        27
43.280         0
43.290        40
43.300        40
43.310        13
43.320        27
43.330         0
43.340        13
43.350        53
43.360        13
43.370        80
43.380        27
43.390        27
43.400        13
43.410        53
43.420        80
43.430        40
43.440        67
43.450        13
43.460        40
43.470        80
43.480        27
43.490        40
43.500        13
43.510        27
43.520        40
43.530        53
43.540        13
43.550        67
43.560        40
43.570        40
43.580        27
43.590        27
43.600        13
43.610        27
43.620         0
43.630        13
43.640        13
43.650        13
43.660        13
43.670        27
43.680        53
43.690         0
43.700        40
43.710        27
43.720        27
43.730        53
43.740        53
43.750        27
43.760        13
43.770         0
43.780        13
43.790        67
43.800         0
43.810         0
43.820        13
43.830        13
43.840         0
43.850        27
43.860         0
43.870        13
43.880        27
43.890         0
43.900        53
43.910        13
43.920        27
43.930        27
43.940        53
43.950        80
43.960        27
43.970        13
43.980        53
43.990        27
44.000        13
44.010        27
44.020        40
44.030        27
44.040        13
44.050        27
44.060        13
44.070        27
44.080        27
44.090        13
44.100         0
44.110        27
44.120        13
44.130        53
44.140        40
44.150        80
44.160        13
44.170        27
44.180        40
44.190        27
44.200        40
44.210        67
44.220        40
44.230        13
44.240        40
44.250        67
44.260        80
44.270        27
44.280        53
44.290        13
44.300        53
44.310        53
44.320        53
44.330        27
44.340        27
44.350         0
44.360        67
44.370        80
44.380        40
44.390        27
44.400        40
44.410        13
44.420        40
44.430        40
44.440        13
44.450        27
44.460        27
44.470         0
44.480        40
44.490        67
44.500        27
44.510        67
44.520        13
44.530        27
44.540        53
44.550        40
44.560        80
44.570        27
44.580         0
44.590        40
44.600        53
44.610        40
44.620        40
44.630         0
44.640         0
44.650         0
44.660        13
44.670        13
44.680        27
44.690        13
44.700        13
44.710        13
44.720        13
44.730        27
44.740        40
44.750        13
44.760         0
44.770        40
44.780        80
44.790        40
44.800        40
44.810        27
44.820        13
44.830        13
44.840        27
44.850        13
44.860        40
44.870        40
44.880        67
44.890        13
44.900        13
44.910        27
44.920        40
44.930        13
44.940        27
44.950        13
44.960         0
44.970        40
44.980        13
44.990        27
45.000        27
45.010         0
45.020        13
45.030         0
45.040        40
45.050        53
45.060         0
45.070        27
45.080        13
45.090        13
45.100         0
45.110         0
45.120        13
45.130        13
45.140         0
45.150        13
45.160        13
45.170        27
45.180        13
45.190        27
45.200        53
45.210        27
45.220         0
45.230        27
45.240         0
45.250        13
45.260        40
45.270        27
45.280        40
45.290         0
45.300        13
45.310        13
45.320        13
45.330        13
45.340         0
45.350        40
45.360        13
45.370        27
45.380         0
45.390        13
45.400        13
45.410         0
45.420        53
45.430         0
45.440         0
45.450        27
45.460         0
45.470         0
45.480        13
45.490        27
45.500        27
45.510         0
45.520        13
45.530        13
45.540        53
45.550        27
45.560         0
45.570        13
45.580         0
45.590        67
45.600        40
45.610        27
45.620        13
45.630        40
45.640        27
45.650        40
45.660        27
45.670        27
45.680        27
45.690         0
45.700        13
45.710        40
45.720        13
45.730        67
45.740         0
45.750         0
45.760        27
45.770        27
45.780         0
45.790         0
45.800        40
45.810        27
45.820         0
45.830        40
45.840        27
45.850        27
45.860         0
45.870        13
45.880        27
45.890         0
45.900        67
45.910        13
45.920         0
45.930        27
45.940        27
45.950         0
45.960        53
45.970         0
45.980        13
45.990         0
46.000         0
46.010        13
46.020        13
46.030        67
46.040         0
46.050        27
46.060        27
46.070        13
46.080         0
46.090        13
46.100        27
46.110         0
46.120         0
46.130        27
46.140        27
46.150        13
46.160         0
46.170        67
46.180        13
46.190         0
46.200         0
46.210        40
46.220        13
46.230         0
46.240         0
46.250         0
46.260        27
46.270        13
46.280        40
46.290        13
46.300        13
46.310         0
46.320         0
46.330        13
46.340        67
46.350        40
46.360         0
46.370         0
46.380        27
46.390        13
46.400        13
46.410        13
46.420        13
46.430        13
46.440         0
46.450        27
46.460        13
46.470        40
46.480        27
46.490        13
46.500         0
46.510        13
46.520        13
46.530        13
46.540         0
46.550        40
46.560         0
46.570        13
46.580        40
46.590         0
46.600         0
46.610        27
46.620        27
46.630        13
46.640        40
46.650        40
46.660        13
46.670        27
46.680         0
46.690        27
46.700         0
46.710        13
46.720        27
46.730         0
46.740        27
46.750        27
46.760         0
46.770        13
46.780        13
46.790        13
46.800         0
46.810         0
46.820        13
46.830        40
46.840        27
46.850        13
46.860        27
46.870        27
46.880        13
46.890        13
46.900        27
46.910        27
46.920        13
46.930         0
46.940        27
46.950         0
46.960        40
46.970        13
46.980        40
46.990        13
47.000        13
47.010         0
47.020        13
47.030         0
47.040         0
47.050        13
47.060        27
47.070         0
47.080        13
47.090         0
47.100        40
47.110        27
47.120         0
47.130        27
47.140        13
47.150        13
47.160        53
47.170        40
47.180         0
47.190        13
47.200         0
47.210        27
47.220        27
47.230        13
47.240         0
47.250        40
47.260         0
47.270         0
47.280        13
47.290        13
47.300        40
47.310         0
47.320        53
47.330        13
47.340         0
47.350        13
47.360        13
47.370        27
47.380         0
47.390        13
47.400        27
47.410         0
47.420        13
47.430         0
47.440        13
47.450        13
47.460        13
47.470        27
47.480         0
47.490         0
47.500        27
47.510         0
47.520        27
47.530        27
47.540        13
47.550        27
47.560        13
47.570         0
47.580        27
47.590        27
47.600        67
47.610        13
47.620         0
47.630         0
47.640        27
47.650        13
47.660        13
47.670         0
47.680        13
47.690        13
47.700        27
47.710        53
47.720         0
47.730        27
47.740        13
47.750        40
47.760        27
47.770         0
47.780         0
47.790        13
47.800         0
47.810        13
47.820        13
47.830        13
47.840        27
47.850        13
47.860        27
47.870        13
47.880        13
47.890        13
47.900        27
47.910         0
47.920         0
47.930        27
47.940         0
47.950        13
47.960        13
47.970        13
47.980        27
47.990         0
48.000        13
48.010        13
48.020         0
48.030        13
48.040         0
48.050        13
48.060         0
48.070        40
48.080        27
48.090        27
48.100        13
48.110        53
48.120         0
48.130        27
48.140        27
48.150        40
48.160        40
48.170         0
48.180        13
48.190        13
48.200        40
48.210        13
48.220        13
48.230         0
48.240         0
48.250        13
48.260        13
48.270        13
48.280         0
48.290         0
48.300        67
48.310         0
48.320         0
48.330        40
48.340        53
48.350        13
48.360        27
48.370        13
48.380         0
48.390         0
48.400         0
48.410         0
48.420         0
48.430        27
48.440        27
48.450         0
48.460        13
48.470         0
48.480         0
48.490        40
48.500        40
48.510         0
48.520        13
48.530        27
48.540        40
48.550        27
48.560        13
48.570        27
48.580        13
48.590        67
48.600         0
48.610        27
48.620        27
48.630         0
48.640        13
48.650        13
48.660        13
48.670        27
48.680         0
48.690         0
48.700        13
48.710         0
48.720        13
48.730        27
48.740        27
48.750        27
48.760         0
48.770        27
48.780        13
48.790         0
48.800         0
48.810        13
48.820        13
48.830        40
48.840        13
48.850        13
48.860        27
48.870        27
48.880        13
48.890         0
48.900        27
48.910        27
48.920        13
48.930        13
48.940        27
48.950        13
48.960         0
48.970        13
48.980        27
48.990        27
49.000        27
49.010        40
49.020         0
49.030        40
49.040        13
49.050         0
49.060         0
49.070         0
49.080         0
49.090         0
49.100         0
49.110         0
49.120        27
49.130        13
49.140        40
49.150        13
49.160         0
49.170         0
49.180        27
49.190        13
49.200         0
49.210        13
49.220         0
49.230         0
49.240         0
49.250        27
49.260        13
49.270         0
49.280        13
49.290        40
49.300        13
49.310        27
49.320        13
49.330        40
49.340         0
49.350        13
49.360        27
49.370        13
49.380         0
49.390        13
49.400        13
49.410        27
49.420        13
49.430        13
49.440        40
49.450        13
49.460        27
49.470         0
49.480        13
49.490         0
49.500        13
49.510         0
49.520        13
49.530        27
49.540        13
49.550         0
49.560         0
49.570        13
49.580        13
49.590         0
49.600         0
49.610         0
49.620        13
49.630        13
49.640        27
49.650        13
49.660        13
49.670         0
49.680        27
49.690        40
49.700        53
49.710        27
49.720         0
49.730        27
49.740         0
49.750        13
49.760         0
49.770        13
49.780        13
49.790         0
49.800        27
49.810        13
49.820        27
49.830         0
49.840        13
49.850        13
49.860         0
49.870        13
49.880        13
49.890        13
49.900         0
49.910        67
49.920        27
49.930        40
49.940        27
49.950         0
49.960        27
49.970        13
49.980        40
49.990        40
50.000        53
50.010         0
50.020        40
50.030        27
50.040        13
50.050        40
50.060         0
50.070        13
50.080         0
50.090        13
50.100         0
50.110        27
50.120        27
50.130        13
50.140        27
50.150        27
50.160        13
50.170         0
50.180        27
50.190         0
50.200        27
50.210         0
50.220        27
50.230        27
50.240        13
50.250         0
50.260        27
50.270        13
50.280        27
50.290        13
50.300         0
50.310        27
50.320        13
50.330        27
50.340         0
50.350        13
50.360         0
50.370        13
50.380         0
50.390         0
50.400        13
50.410         0
50.420         0
50.430         0
50.440         0
50.450        13
50.460         0
50.470         0
50.480        27
50.490        13
50.500        13
50.510        40
50.520        40
50.530        13
50.540        27
50.550         0
50.560        40
50.570        27
50.580        13
50.590        13
50.600        27
50.610         0
50.620        13
50.630        13
50.640        13
50.650        27
50.660        40
50.670         0
50.680         0
50.690         0
50.700        13
50.710        27
50.720        13
50.730        13
50.740         0
50.750         0
50.760        40
50.770        40
50.780        13
50.790        13
50.800        27
50.810        13
50.820         0
50.830         0
50.840        27
50.850        13
50.860        27
50.870        13
50.880        13
50.890         0
50.900        27
50.910        13
50.920         0
50.930        27
50.940        13
50.950        13
50.960         0
50.970        27
50.980        13
50.990        27
51.000         0
51.010        13
51.020        13
51.030         0
51.040        13
51.050        27
51.060        27
51.070        27
51.080         0
51.090         0
51.100        13
51.110         0
51.120         0
51.130        13
51.140        13
51.150         0
51.160        27
51.170        27
51.180         0
51.190         0
51.200        13
51.210        27
51.220        13
51.230         0
51.240        27
51.250        13
51.260         0
51.270        13
51.280         0
51.290         0
51.300         0
51.310         0
51.320        13
51.330        13
51.340         0
51.350        27
51.360        27
51.370         0
51.380        13
51.390        13
51.400         0
51.410         0
51.420        13
51.430        13
51.440        13
51.450        27
51.460         0
51.470         0
51.480         0
51.490        13
51.500        27
51.510         0
51.520         0
51.530         0
51.540        27
51.550         0
51.560        13
51.570        27
51.580        13
51.590        13
51.600        13
51.610        13
51.620        13
51.630         0
51.640         0
51.650        27
51.660        13
51.670        67
51.680         0
51.690        27
51.700         0
51.710         0
51.720         0
51.730         0
51.740        13
51.750        13
51.760         0
51.770        53
51.780        27
51.790        13
51.800        13
51.810        13
51.820         0
51.830        13
51.840         0
51.850        13
51.860         0
51.870        13
51.880        13
51.890        13
51.900        13
51.910        27
51.920        13
51.930         0
51.940        40
51.950         0
51.960        27
51.970        40
51.980        27
51.990        13
52.000        27
52.010        13
52.020         0
52.030        13
52.040         0
52.050        13
52.060         0
52.070        40
52.080        27
52.090        13
52.100        13
52.110         0
52.120        13
52.130         0
52.140        13
52.150         0
52.160         0
52.170         0
52.180         0
52.190         0
52.200         0
52.210        13
52.220        13
52.230         0
52.240         0
52.250        27
52.260        27
52.270        27
52.280        13
52.290         0
52.300         0
52.310        13
52.320        13
52.330         0
52.340         0
52.350        13
52.360        27
52.370        13
52.380        27
52.390        13
52.400        13
52.410        13
52.420        27
52.430        13
52.440         0
52.450        27
52.460        13
52.470        40
52.480        53
52.490        27
52.500        27
52.510        27
52.520        13
52.530         0
52.540        40
52.550        13
52.560         0
52.570        27
52.580        27
52.590        13
52.600        27
52.610        40
52.620        27
52.630        80
52.640        67
52.650        67
52.660       107
52.670        67
52.680        80
52.690        27
52.700        93
52.710         0
52.720        27
52.730        27
52.740        53
52.750         0
52.760        40
52.770        40
52.780        27
52.790        80
52.800        67
52.810        53
52.820        67
52.830        80
52.840        40
52.850        53
52.860        13
52.870        13
52.880        40
52.890         0
52.900        27
52.910        13
52.920        40
52.930        13
52.940        27
52.950        13
52.960         0
52.970         0
52.980         0
52.990        13
53.000        13
53.010         0
53.020        67
53.030        13
53.040        13
53.050        27
53.060        13
53.070        27
53.080         0
53.090        13
53.100        27
53.110        27
53.120         0
53.130         0
53.140        13
53.150        27
53.160        13
53.170         0
53.180        27
53.190        40
53.200        13
53.210        13
53.220        27
53.230         0
53.240        13
53.250         0
53.260         0
53.270         0
53.280         0
53.290        13
53.300        13
53.310         0
53.320         0
53.330        13
53.340        27
53.350         0
53.360        13
53.370        27
53.380         0
53.390        40
53.400         0
53.410         0
53.420        13
53.430        40
53.440         0
53.450         0
53.460        13
53.470         0
53.480        13
53.490        27
53.500        13
53.510         0
53.520         0
53.530        13
53.540        27
53.550        40
53.560         0
53.570        13
53.580         0
53.590        13
53.600        27
53.610        13
53.620         0
53.630        13
53.640        13
53.650         0
53.660        27
53.670        13
53.680        40
53.690        27
53.700        13
53.710        13
53.720        13
53.730        27
53.740         0
53.750         0
53.760         0
53.770        13
53.780         0
53.790        13
53.800        13
53.810         0
53.820        13
53.830         0
53.840        40
53.850        27
53.860        27
53.870        13
53.880        27
53.890        13
53.900         0
53.910        27
53.920        27
53.930        13
53.940        27
53.950        40
53.960        13
53.970        13
53.980         0
53.990        13
54.000         0
54.010        27
54.020        13
54.030        13
54.040         0
54.050        27
54.060        13
54.070         0
54.080        13
54.090        27
54.100         0
54.110        27
54.120        13
54.130        13
54.140        13
54.150        13
54.160        40
54.170        27
54.180         0
54.190        13
54.200        13
54.210        13
54.220        40
54.230         0
54.240        13
54.250         0
54.260        13
54.270        27
54.280        13
54.290        27
54.300        13
54.310         0
54.320        27
54.330        40
54.340         0
54.350        40
54.360        13
54.370         0
54.380         0
54.390        27
54.400         0
54.410         0
54.420        27
54.430         0
54.440         0
54.450        40
54.460         0
54.470        27
54.480         0
54.490         0
54.500        27
54.510        13
54.520        13
54.530         0
54.540        27
54.550        13
54.560        67
54.570         0
54.580        27
54.590        27
54.600        27
54.610        13
54.620         0
54.630        13
54.640         0
54.650        13
54.660         0
54.670        13
54.680        40
54.690        13
54.700        13
54.710        27
54.720        93
54.730        13
54.740        80
54.750        13
54.760        40
54.770        27
54.780        27
54.790        40
54.800        67
54.810        40
54.820         0
54.830        53
54.840        27
54.850         0
54.860        67
54.870        67
54.880        67
54.890        80
54.900       107
54.910       107
54.920       120
54.930        80
54.940        40
54.950        67
54.960        67
54.970       107
54.980       147
54.990        40
55.000       147
55.010        67
55.020       107
55.030       200
55.040        80
55.050        53
55.060        53
55.070       213
55.080        93
55.090        93
55.100       120
55.110        93
55.120        67
55.130        93
55.140       133
55.150       133
55.160        80
55.170        80
55.180        67
55.190       107
55.200        40
55.210        67
55.220        27
55.230        40
55.240        67
55.250       107
55.260        93
55.270        13
55.280        40
55.290        67
55.300        13
55.310        40
55.320        40
55.330        53
55.340         0
55.350        40
55.360        13
55.370        53
55.380        40
55.390        27
55.400         0
55.410        27
55.420        27
55.430        27
55.440        13
55.450         0
55.460        27
55.470        40
55.480        13
55.490        27
55.500         0
55.510        27
55.520        13
55.530        13
55.540        40
55.550        27
55.560         0
55.570        13
55.580        27
55.590         0
55.600        13
55.610        40
55.620        13
55.630         0
55.640        13
55.650        27
55.660        13
55.670         0
55.680        13
55.690        13
55.700        13
55.710         0
55.720        13
55.730         0
55.740        13
55.750        27
55.760         0
55.770        40
55.780        13
55.790         0
55.800         0
55.810         0
55.820         0
55.830         0
55.840        13
55.850         0
55.860        40
55.870        40
55.880        13
55.890        27
55.900        27
55.910         0
55.920         0
55.930         0
55.940        13
55.950        13
55.960         0
55.970        53
55.980         0
55.990        27
56.000         0
56.010        40
56.020         0
56.030        53
56.040        27
56.050        13
56.060        13
56.070         0
56.080        13
56.090         0
56.100        27
56.110         0
56.120        27
56.130        13
56.140        27
56.150        27
56.160        40
56.170        13
56.180         0
56.190         0
56.200         0
56.210        27
56.220        13
56.230         0
56.240         0
56.250        13
56.260        13
56.270        13
56.280         0
56.290         0
56.300        27
56.310         0
56.320         0
56.330         0
56.340        13
56.350         0
56.360        40
56.370         0
56.380        40
56.390         0
56.400        13
56.410         0
56.420         0
56.430        27
56.440         0
56.450        13
56.460        13
56.470         0
56.480        27
56.490         0
56.500        27
56.510         0
56.520        27
56.530        13
56.540         0
56.550        27
56.560         0
56.570         0
56.580        13
56.590        13
56.600        27
56.610        13
56.620        27
56.630        13
56.640         0
56.650        13
56.660         0
56.670        40
56.680         0
56.690         0
56.700        27
56.710        27
56.720         0
56.730        13
56.740        13
56.750         0
56.760         0
56.770         0
56.780        27
56.790        27
56.800         0
56.810        13
56.820        13
56.830        13
56.840         0
56.850        40
56.860        13
56.870         0
56.880        27
56.890        13
56.900         0
56.910         0
56.920         0
56.930         0
56.940         0
56.950        27
56.960        13
56.970        27
56.980         0
56.990        13
57.000         0
57.010        13
57.020         0
57.030         0
57.040        27
57.050        27
57.060        13
57.070        27
57.080        27
57.090         0
57.100        40
57.110        13
57.120        40
57.130        27
57.140         0
57.150         0
57.160         0
57.170        13
57.180        40
57.190         0
57.200         0
57.210         0
57.220         0
57.230        13
57.240         0
57.250        13
57.260        13
57.270        13
57.280        13
57.290         0
57.300        53
57.310         0
57.320         0
57.330        13
57.340         0
57.350        13
57.360        27
57.370         0
57.380        13
57.390         0
57.400        80
57.410        13
57.420        13
57.430         0
57.440        27
57.450         0
57.460         0
57.470         0
57.480         0
57.490        40
57.500        13
57.510        27
57.520        53
57.530        27
57.540        13
57.550        13
57.560        27
57.570        80
57.580        80
57.590        13
57.600        67
57.610        93
57.620         0
57.630        67
57.640        27
57.650        67
57.660        80
57.670        40
57.680        53
57.690         0
57.700        27
57.710        13
57.720        27
57.730        13
57.740        40
57.750        67
57.760        40
57.770        13
57.780        53
57.790        80
57.800        80
57.810        13
57.820        13
57.830        13
57.840        13
57.850        27
57.860         0
57.870         0
57.880         0
57.890         0
57.900        27
57.910        13
57.920        13
57.930         0
57.940        27
57.950        13
57.960        13
57.970        53
57.980        13
57.990        13
58.000         0
58.010        13
58.020        13
58.030        13
58.040        13
58.050        13
58.060        13
58.070        27
58.080        27
58.090        13
58.100         0
58.110        27
58.120        27
58.130        13
58.140        13
58.150         0
58.160        13
58.170         0
58.180        13
58.190         0
58.200        13
58.210        27
58.220        13
58.230        27
58.240        13
58.250        27
58.260        13
58.270        13
58.280         0
58.290        13
58.300        13
58.310        13
58.320        40
58.330        13
58.340        27
58.350        27
58.360        13
58.370         0
58.380        40
58.390        27
58.400         0
58.410         0
58.420        13
58.430         0
58.440         0
58.450        13
58.460        13
58.470        13
58.480        13
58.490        13
58.500        13
58.510        27
58.520        13
58.530        40
58.540         0
58.550         0
58.560        13
58.570        13
58.580        13
58.590        13
58.600         0
58.610         0
58.620         0
58.630        13
58.640         0
58.650        13
58.660        13
58.670        40
58.680        13
58.690         0
58.700        27
58.710        27
58.720         0
58.730        27
58.740         0
58.750         0
58.760         0
58.770         0
58.780         0
58.790         0
58.800         0
58.810        13
58.820         0
58.830         0
58.840        13
58.850        27
58.860         0
58.870        27
58.880        40
58.890         0
58.900        27
58.910        27
58.920         0
58.930         0
58.940        13
58.950         0
58.960        27
58.970        40
58.980        27
58.990        13
59.000         0
59.010         0
59.020         0
59.030        13
59.040        13
59.050        13
59.060         0
59.070        40
59.080         0
59.090        13
59.100        13
59.110        27
59.120         0
59.130        40
59.140        27
59.150        27
59.160        13
59.170        40
59.180        40
59.190        13
59.200        13
59.210        27
59.220         0
59.230         0
59.240        13
59.250        53
59.260         0
59.270        13
59.280        13
59.290        27
59.300        13
59.310        27
59.320         0
59.330         0
59.340        13
59.350         0
59.360        13
59.370         0
59.380        13
59.390        13
59.400         0
59.410         0
59.420        40
59.430        13
59.440        13
59.450        13
59.460         0
59.470        40
59.480        53
59.490         0
59.500        27
59.510         0
59.520        13
59.530         0
59.540        13
59.550         0
59.560         0
59.570        13
59.580         0
59.590         0
59.600        27
59.610        13
59.620        13
59.630        13
59.640         0
59.650        13
59.660        40
59.670        13
59.680        13
59.690        40
59.700         0
59.710        27
59.720         0
59.730        13
59.740        27
59.750        13
59.760         0
59.770        27
59.780        13
59.790        13
59.800        27
59.810         0
59.820         0
59.830        13
59.840        27
59.850        27
59.860         0
59.870         0
59.880         0
59.890         0
59.900        27
59.910        27
59.920        13
59.930         0
59.940        27
59.950         0
59.960        13
59.970         0
59.980        40
59.990        40
60.000        40
