20.000        13
20.010        93
20.020        40
20.030        93
20.040        53
20.050        27
20.060        27
20.070        53
20.080        13
20.090        40
20.100        13
20.110        93
20.120        53
20.130        27
20.140        40
20.150        13
20.160        67
20.170        13
20.180        80
20.190        93
20.200        80
20.210        27
20.220        67
20.230        13
20.240        53
20.250        40
20.260        67
20.270        40
20.280        13
20.290        40
20.300        27
20.310        53
20.320         0
20.330        27
20.340        67
20.350        67
20.360        13
20.370        40
20.380        27
20.390        13
20.400        40
20.410        53
20.420        40
20.430        40
20.440        40
20.450        80
20.460        40
20.470        67
20.480        67
20.490         0
20.500        27
20.510        53
20.520        53
20.530        53
20.540        40
20.550        53
20.560        53
20.570        40
20.580        40
20.590        67
20.600        13
20.610        40
20.620        93
20.630        40
20.640        67
20.650        53
20.660        13
20.670        27
20.680        53
20.690        53
20.700        67
20.710        53
20.720        67
20.730        40
20.740        27
20.750        40
20.760        53
20.770        40
20.780        27
20.790         0
20.800        40
20.810        27
20.820        53
20.830        13
20.840        67
20.850       107
20.860        27
20.870        93
20.880        27
20.890        40
20.900        53
20.910        27
20.920        40
20.930        53
20.940         0
20.950        53
20.960        13
20.970        53
20.980        27
20.990        67
21.000        53
21.010        80
21.020        53
21.030        40
21.040       133
21.050        27
21.060        27
21.070         0
21.080         0
21.090        13
21.100        40
21.110        27
21.120        53
21.130        27
21.140        40
21.150        80
21.160        13
21.170        40
21.180        13
21.190        40
21.200        27
21.210        27
21.220        27
21.230        13
21.240        27
21.250        13
21.260         0
21.270        53
21.280        27
21.290        40
21.300        13
21.310        27
21.320        27
21.330        27
21.340        80
21.350        53
21.360        13
21.370        27
21.380        53
21.390        53
21.400        40
21.410        53
21.420        80
21.430        13
21.440        40
21.450         0
21.460        53
21.470        40
21.480        40
21.490        40
21.500        27
21.510        40
21.520        40
21.530        27
21.540        53
21.550        80
21.560        27
21.570        13
21.580        93
21.590        27
21.600        40
21.610        53
21.620        53
21.630        27
21.640        67
21.650        40
21.660        27
21.670        27
21.680        13
21.690        27
21.700        67
21.710        13
21.720        13
21.730        27
21.740        80
21.750        40
21.760        40
21.770        53
21.780        80
21.790        53
21.800        67
21.810        40
21.820        27
21.830        67
21.840        80
21.850        13
21.860        53
21.870        13
21.880        27
21.890        53
21.900        40
21.910        53
21.920        80
21.930        93
21.940        27
21.950        53
21.960        53
21.970        40
21.980        40
21.990        13
22.000         0
22.010        53
22.020        40
22.030        80
22.040        27
22.050        93
22.060        27
22.070        40
22.080        40
22.090        40
22.100        40
22.110        40
22.120        40
22.130        93
22.140        40
22.150         0
22.160        40
22.170        40
22.180        40
22.190        13
22.200        67
22.210        40
22.220        13
22.230        27
22.240        53
22.250       120
22.260        27
22.270        13
22.280        27
22.290        53
22.300        40
22.310        40
22.320        13
22.330        40
22.340        27
22.350        13
22.360        40
22.370        40
22.380        40
22.390        53
22.400        40
22.410        40
22.420        80
22.430        80
22.440        53
22.450        13
22.460       120
22.470        53
22.480        27
22.490        27
22.500        40
22.510        27
22.520        27
22.530        53
22.540        27
22.550        13
22.560        40
22.570        67
22.580        67
22.590        40
22.600        27
22.610        80
22.620        53
22.630        27
22.640        67
22.650        27
22.660        27
22.670        93
22.680        27
22.690        40
22.700        40
22.710        13
22.720        27
22.730        27
22.740        40
22.750        80
22.760        13
22.770        67
22.780        27
22.790        13
22.800        13
22.810        13
22.820        13
22.830        40
22.840        40
22.850        40
22.860        40
22.870         0
22.880        13
22.890        13
22.900        13
22.910        13
22.920        67
22.930        27
22.940        13
22.950        53
22.960         0
22.970        40
22.980        27
22.990        13
23.000        67
23.010        13
23.020        40
23.030        13
23.040        40
23.050         0
23.060        40
23.070        53
23.080        13
23.090        40
23.100        93
23.110        67
23.120        27
23.130        27
23.140        27
23.150        13
23.160        13
23.170        27
23.180        40
23.190        27
23.200        27
23.210        67
23.220        27
23.230        53
23.240        27
23.250        67
23.260        13
23.270        13
23.280        53
23.290        27
23.300        27
23.310         0
23.320        27
23.330        40
23.340        27
23.350        67
23.360        27
23.370         0
23.380        53
23.390        13
23.400        80
23.410        27
23.420        53
23.430        27
23.440        13
23.450        40
23.460        93
23.470        13
23.480        27
23.490        53
23.500        67
23.510        13
23.520        27
23.530        53
23.540        40
23.550        40
23.560         0
23.570        27
23.580        27
23.590        13
23.600        13
23.610        40
23.620        40
23.630        27
23.640        40
23.650        67
23.660        40
23.670        80
23.680        27
23.690        13
23.700        80
23.710        13
23.720        13
23.730        27
23.740        67
23.750        67
23.760        40
23.770        40
23.780        53
23.790        67
23.800        27
23.810        13
23.820        13
23.830        53
23.840        40
23.850        80
23.860        67
23.870        13
23.880        13
23.890        13
23.900        40
23.910        40
23.920        40
23.930        13
23.940        13
23.950        53
23.960        27
23.970        40
23.980        13
23.990        80
24.000        13
24.010        13
24.020        27
24.030        53
24.040        27
24.050        67
24.060        13
24.070        67
24.080         0
24.090        27
24.100        27
24.110        40
24.120        27
24.130        13
24.140        27
24.150        53
24.160        13
24.170        13
24.180        40
24.190        53
24.200        13
24.210        27
24.220        13
24.230        27
24.240        53
24.250         0
24.260        13
24.270        27
24.280        40
24.290        53
24.300        13
24.310        13
24.320        27
24.330        40
24.340        13
24.350        53
24.360        40
24.370        27
24.380        27
24.390        13
24.400        40
24.410        13
24.420        27
24.430        13
24.440         0
24.450        53
24.460        27
24.470         0
24.480        13
24.490        13
24.500         0
24.510        13
24.520        67
24.530        13
24.540        80
24.550         0
24.560        40
24.570        40
24.580        40
24.590        27
24.600        40
24.610        27
24.620        13
24.630        67
24.640        40
24.650        53
24.660        13
24.670        53
24.680        27
24.690        13
24.700        27
24.710        67
24.720        13
24.730        27
24.740         0
24.750        13
24.760         0
24.770         0
24.780         0
24.790         0
24.800        13
24.810         0
24.820        27
24.830        13
24.840        27
24.850        27
24.860        40
24.870        13
24.880        40
24.890        27
24.900        27
24.910         0
24.920        53
24.930        27
24.940        40
24.950        27
24.960        40
24.970        27
24.980        40
24.990        80
25.000        13
25.010        40
25.020        13
25.030        27
25.040        27
25.050        53
25.060        53
25.070        53
25.080        13
25.090        67
25.100        67
25.110        40
25.120        13
25.130        27
25.140        27
25.150         0
25.160        13
25.170        27
25.180         0
25.190        13
25.200        40
25.210        27
25.220        40
25.230        27
25.240        27
25.250         0
25.260        40
25.270        40
25.280         0
25.290        27
25.300         0
25.310        93
25.320        67
25.330        27
25.340        40
25.350        27
25.360        27
25.370        40
25.380        27
25.390        27
25.400        13
25.410        40
25.420        13
25.430        13
25.440        80
25.450         0
25.460        53
25.470        53
25.480        40
25.490        27
25.500        13
25.510        13
25.520        13
25.530        40
25.540       107
25.550        53
25.560        40
25.570        40
25.580        27
25.590         0
25.600        53
25.610        53
25.620        27
25.630        67
25.640        13
25.650        53
25.660        40
25.670        27
25.680        13
25.690        13
25.700        27
25.710        40
25.720        27
25.730        40
25.740        40
25.750        40
25.760        67
25.770        27
25.780        27
25.790        27
25.800        13
25.810        13
25.820        27
25.830        13
25.840        53
25.850        40
25.860         0
25.870        13
25.880        27
25.890        40
25.900        40
25.910        53
25.920        13
25.930        27
25.940        40
25.950        27
25.960        40
25.970        40
25.980        13
25.990        40
26.000         0
26.010        40
26.020        27
26.030        40
26.040        67
26.050        27
26.060        27
26.070        27
26.080        40
26.090        13
26.100        27
26.110        27
26.120        40
26.130         0
26.140        13
26.150        40
26.160        53
26.170        27
26.180        40
26.190        53
26.200        13
26.210        27
26.220       107
26.230        13
26.240        40
26.250        27
26.260        53
26.270        40
26.280        13
26.290        40
26.300        27
26.310        13
26.320        40
26.330        27
26.340        27
26.350        13
26.360        27
26.370         0
26.380        27
26.390        27
26.400        80
26.410        13
26.420        27
26.430        27
26.440        53
26.450        40
26.460         0
26.470         0
26.480        13
26.490        13
26.500        67
26.510        27
26.520        40
26.530        27
26.540        27
26.550        27
26.560         0
26.570        27
26.580        13
26.590        40
26.600        67
26.610        27
26.620         0
26.630        13
26.640        40
26.650        40
26.660        13
26.670        27
26.680         0
26.690        40
26.700        13
26.710         0
26.720        27
26.730        13
26.740        53
26.750        27
26.760        67
26.770        67
26.780        13
26.790        40
26.800        53
26.810        53
26.820        40
26.830        27
26.840        40
26.850        13
26.860        40
26.870         0
26.880        27
26.890        13
26.900        40
26.910        40
26.920        40
26.930         0
26.940        80
26.950        13
26.960        27
26.970        27
26.980        40
26.990        27
27.000        40
27.010        13
27.020        13
27.030        40
27.040        40
27.050        27
27.060        13
27.070        13
27.080        27
27.090        13
27.100        13
27.110        53
27.120        13
27.130        27
27.140        53
27.150        27
27.160        67
27.170        13
27.180        27
27.190        40
27.200        27
27.210        13
27.220        13
27.230        27
27.240         0
27.250        13
27.260        13
27.270        67
27.280        53
27.290         0
27.300        40
27.310        40
27.320        53
27.330        27
27.340        40
27.350        27
27.360        27
27.370        13
27.380        53
27.390        27
27.400        27
27.410        13
27.420        40
27.430        27
27.440        13
27.450        40
27.460        67
27.470        40
27.480        40
27.490        27
27.500        13
27.510        27
27.520        40
27.530        13
27.540        40
27.550        13
27.560        13
27.570        27
27.580        13
27.590        40
27.600        40
27.610         0
27.620        27
27.630         0
27.640        13
27.650        67
27.660        27
27.670        53
27.680        27
27.690        40
27.700        40
27.710        93
27.720        40
27.730        53
27.740        53
27.750        13
27.760        53
27.770        27
27.780        27
27.790        27
27.800        40
27.810        27
27.820        67
27.830        27
27.840        27
27.850        67
27.860        53
27.870        40
27.880        40
27.890        67
27.900        13
27.910        80
27.920        27
27.930        53
27.940        27
27.950        27
27.960        67
27.970        13
27.980        27
27.990        13
28.000        53
28.010         0
28.020         0
28.030         0
28.040        13
28.050         0
28.060        27
28.070        80
28.080        27
28.090        27
28.100        27
28.110        13
28.120        13
28.130        40
28.140        53
28.150        27
28.160         0
28.170         0
28.180        27
28.190        53
28.200        27
28.210        53
28.220        27
28.230        40
28.240        53
28.250         0
28.260        53
28.270         0
28.280        27
28.290        40
28.300        27
28.310        27
28.320        53
28.330        27
28.340        13
28.350        53
28.360        27
28.370        67
28.380        13
28.390        27
28.400        40
28.410        40
28.420        13
28.430        40
28.440        27
28.450        13
28.460        40
28.470        13
28.480        27
28.490        27
28.500        27
28.510        40
28.520        13
28.530        13
28.540        13
28.550        27
28.560        40
28.570        13
28.580        13
28.590        40
28.600        27
28.610        27
28.620        13
28.630        13
28.640        13
28.650        40
28.660         0
28.670        40
28.680        27
28.690        27
28.700        27
28.710        67
28.720        27
28.730        40
28.740        53
28.750        13
28.760        53
28.770        27
28.780        13
28.790        27
28.800        13
28.810         0
28.820         0
28.830         0
28.840        67
28.850        13
28.860        27
28.870        40
28.880        27
28.890        40
28.900         0
28.910        27
28.920         0
28.930        13
28.940        40
28.950        27
28.960        27
28.970        13
28.980        40
28.990         0
29.000        13
29.010        27
29.020        13
29.030        13
29.040        40
29.050        40
29.060        27
29.070        53
29.080        27
29.090        13
29.100        40
29.110        13
29.120        53
29.130        67
29.140        53
29.150        13
29.160        13
29.170        40
29.180        13
29.190        27
29.200         0
29.210        40
29.220         0
29.230        40
29.240         0
29.250        27
29.260        53
29.270        67
29.280        13
29.290        40
29.300        13
29.310        27
29.320        13
29.330        40
29.340        53
29.350         0
29.360        13
29.370        40
29.380        53
29.390        53
29.400        27
29.410        27
29.420        40
29.430        27
29.440        40
29.450        13
29.460        40
29.470        27
29.480        40
29.490        40
29.500        13
29.510        53
29.520        27
29.530        13
29.540        53
29.550        40
29.560        53
29.570        40
29.580        53
29.590        27
29.600        53
29.610        27
29.620        27
29.630        40
29.640        80
29.650        53
29.660        40
29.670        53
29.680        40
29.690        40
29.700        67
29.710        13
29.720        13
29.730        40
29.740        67
29.750        40
29.760        27
29.770        53
29.780        13
29.790        13
29.800        40
29.810        27
29.820        40
29.830        40
29.840        67
29.850        13
29.860        27
29.870        13
29.880        53
29.890        13
29.900        13
29.910        80
29.920        40
29.930       133
29.940        27
29.950         0
29.960        80
29.970        13
29.980        53
29.990       107
30.000        53
30.010        53
30.020        40
30.030        27
30.040        67
30.050        67
30.060        80
30.070        53
30.080        53
30.090        80
30.100        93
30.110        53
30.120        67
30.130        80
30.140        27
30.150        40
30.160        53
30.170        67
30.180       107
30.190       107
30.200        67
30.210        67
30.220        93
30.230        13
30.240        67
30.250        13
30.260        80
30.270       120
30.280       107
30.290       107
30.300        80
30.310        40
30.320        80
30.330        67
30.340       107
30.350        80
30.360        93
30.370       120
30.380       213
30.390        93
30.400       200
30.410       107
30.420       147
30.430        93
30.440       147
30.450       133
30.460       280
30.470       240
30.480       173
30.490       253
30.500       307
30.510       453
30.520       200
30.530       333
30.540       453
30.550       387
30.560       426
30.570       480
30.580       466
30.590       533
30.600       413
30.610       573
30.620       733
30.630       640
30.640       573
30.650       746
30.660       720
30.670      1106
30.680       906
30.690       840
30.700      1200
30.710      1146
30.720      1106
30.730      1399
30.740      1293
30.750      1546
30.760      1666
30.770      1853
30.780      1733
30.790      1786
30.800      2053
30.810      2066
30.820      2306
30.830      2119
30.840      2239
30.850      2439
30.860      2679
30.870      2932
30.880      2706
30.890      2719
30.900      2506
30.910      2706
30.920      2612
30.930      2839
30.940      2479
30.950      2252
30.960      1946
30.970      2119
30.980      1813
30.990      1693
31.000      1799
31.010      1746
31.020      1386
31.030      1146
31.040      1080
31.050       906
31.060       946
31.070       600
31.080       413
31.090       533
31.100       480
31.110       400
31.120       347
31.130       333
31.140       307
31.150       347
31.160       200
31.170       227
31.180       373
31.190       173
31.200       320
31.210       120
31.220       160
31.230       187
31.240        93
31.250       267
31.260       133
31.270       200
31.280       120
31.290        93
31.300       147
31.310       133
31.320       133
31.330       120
31.340        53
31.350        67
31.360        67
31.370       160
31.380        53
31.390        40
31.400       147
31.410       107
31.420       107
31.430        67
31.440        40
31.450        93
31.460       160
31.470        80
31.480        40
31.490        40
31.500        53
31.510        93
31.520        53
31.530        53
31.540        93
31.550        67
31.560        13
31.570        93
31.580        40
31.590        67
31.600        67
31.610        27
31.620        67
31.630        67
31.640        40
31.650        53
31.660        13
31.670        40
31.680        40
31.690        93
31.700       107
31.710        80
31.720        53
31.730        27
31.740        67
31.750        53
31.760        67
31.770        80
31.780        80
31.790        13
31.800        67
31.810        93
31.820        27
31.830        40
31.840        13
31.850       133
31.860        40
31.870        27
31.880        67
31.890        93
31.900        53
31.910        53
31.920        80
31.930        67
31.940        53
31.950        27
31.960        67
31.970        80
31.980        40
31.990        27
32.000        53
32.010        93
32.020        27
32.030        27
32.040        53
32.050        93
32.060        40
32.070        27
32.080        40
32.090        40
32.100        40
32.110        13
32.120        40
32.130        67
32.140        67
32.150        53
32.160        27
32.170        67
32.180        40
32.190        93
32.200        13
32.210        40
32.220        80
32.230        27
32.240        40
32.250        67
32.260        27
32.270        40
32.280        40
32.290        67
32.300        13
32.310        67
32.320        53
32.330        27
32.340        67
32.350        53
32.360        67
32.370        13
32.380        93
32.390        27
32.400        67
32.410        80
32.420        27
32.430        13
32.440        27
32.450        27
32.460        40
32.470        53
32.480        40
32.490        40
32.500         0
32.510        40
32.520         0
32.530        67
32.540        40
32.550        53
32.560        53
32.570        40
32.580        53
32.590        53
32.600        27
32.610        53
32.620        40
32.630        40
32.640        40
32.650        67
32.660        53
32.670        53
32.680        40
32.690        27
32.700        40
32.710        13
32.720        40
32.730        13
32.740        53
32.750        27
32.760        27
32.770        53
32.780         0
32.790        40
32.800        40
32.810        13
32.820        53
32.830        93
32.840        40
32.850        67
32.860         0
32.870        67
32.880        27
32.890        53
32.900        13
32.910        80
32.920        27
32.930        53
32.940        53
32.950        53
32.960        27
32.970        40
32.980        27
32.990        67
33.000        53
33.010        27
33.020         0
33.030         0
33.040        27
33.050        27
33.060        67
33.070         0
33.080        40
33.090        40
33.100        53
33.110        53
33.120        13
33.130        27
33.140        27
33.150        40
33.160         0
33.170        40
33.180        53
33.190        40
33.200        53
33.210        27
33.220        80
33.230        53
33.240        27
33.250        67
33.260         0
33.270        80
33.280        27
33.290        13
33.300         0
33.310        53
33.320        13
33.330        13
33.340        13
33.350        13
33.360        40
33.370        40
33.380        40
33.390        67
33.400        13
33.410        27
33.420        13
33.430        80
33.440         0
33.450         0
33.460         0
33.470        13
33.480         0
33.490        80
33.500        40
33.510        13
33.520         0
33.530        27
33.540        40
33.550        13
33.560        27
33.570        40
33.580        53
33.590        40
33.600        27
33.610        53
33.620        53
33.630        40
33.640        40
33.650        27
33.660        13
33.670        40
33.680        27
33.690        27
33.700        40
33.710        13
33.720        27
33.730        27
33.740        80
33.750        13
33.760        27
33.770        53
33.780        40
33.790        27
33.800        40
33.810        13
33.820        27
33.830        27
33.840        40
33.850        40
33.860        13
33.870         0
33.880        27
33.890        27
33.900        53
33.910        53
33.920         0
33.930        53
33.940        40
33.950        53
33.960        13
33.970        13
33.980        40
33.990        13
34.000        40
34.010        40
34.020        53
34.030         0
34.040        13
34.050        27
34.060         0
34.070        40
34.080        27
34.090        13
34.100        40
34.110        53
34.120        40
34.130        27
34.140        13
34.150        40
34.160        27
34.170        53
34.180        13
34.190        40
34.200        40
34.210        13
34.220        27
34.230        40
34.240        40
34.250        80
34.260        53
34.270        27
34.280        80
34.290        13
34.300        53
34.310        27
34.320        13
34.330        13
34.340        40
34.350        13
34.360        53
34.370         0
34.380        13
34.390         0
34.400        27
34.410        13
34.420        13
34.430        27
34.440        27
34.450        53
34.460         0
34.470        40
34.480        27
34.490        13
34.500        27
34.510        13
34.520        13
34.530         0
34.540        13
34.550        27
34.560         0
34.570        27
34.580        40
34.590        13
34.600         0
34.610        53
34.620        13
34.630         0
34.640        13
34.650         0
34.660        27
34.670         0
34.680        27
34.690        27
34.700        40
34.710        27
34.720         0
34.730        67
34.740        40
34.750         0
34.760        27
34.770        40
34.780        40
34.790        27
34.800        53
34.810        67
34.820        53
34.830        40
34.840        27
34.850        40
34.860        40
34.870        13
34.880        27
34.890        40
34.900        40
34.910        13
34.920        13
34.930        53
34.940        27
34.950        40
34.960        67
34.970        27
34.980        93
34.990        13
35.000        27
35.010        27
35.020        27
35.030        40
35.040        40
35.050        40
35.060        67
35.070        80
35.080        13
35.090         0
35.100        40
35.110        27
35.120        53
35.130        53
35.140        53
35.150        13
35.160        67
35.170        53
35.180        80
35.190        53
35.200        67
35.210        53
35.220        53
35.230        53
35.240        40
35.250        40
35.260        67
35.270        80
35.280        27
35.290        53
35.300        40
35.310        27
35.320        27
35.330        40
35.340        40
35.350        13
35.360         0
35.370        40
35.380        13
35.390        13
35.400        53
35.410        13
35.420        53
35.430        40
35.440        27
35.450         0
35.460        13
35.470        13
35.480        40
35.490         0
35.500        13
35.510        27
35.520         0
35.530        27
35.540         0
35.550        53
35.560        27
35.570        27
35.580        40
35.590         0
35.600        27
35.610        40
35.620        27
35.630        27
35.640        13
35.650        80
35.660        13
35.670        67
35.680         0
35.690        67
35.700        40
35.710        13
35.720        13
35.730        13
35.740        67
35.750        13
35.760         0
35.770        53
35.780        40
35.790        40
35.800        27
35.810        13
35.820        13
35.830        40
35.840        27
35.850        53
35.860        13
35.870        67
35.880        13
35.890        40
35.900        53
35.910        53
35.920        13
35.930         0
35.940         0
35.950        13
35.960         0
35.970         0
35.980        53
35.990        13
36.000        13
36.010        27
36.020         0
36.030        13
36.040        27
36.050        13
36.060         0
36.070        27
36.080        40
36.090        27
36.100        53
36.110         0
36.120        40
36.130        40
36.140        27
36.150        13
36.160        13
36.170        13
36.180        40
36.190         0
36.200        27
36.210        27
36.220        67
36.230        53
36.240        53
36.250        80
36.260        27
36.270        13
36.280        27
36.290        80
36.300        13
36.310        53
36.320        13
36.330         0
36.340        27
36.350        53
36.360        40
36.370        13
36.380         0
36.390         0
36.400        27
36.410        40
36.420        27
36.430        53
36.440         0
36.450        40
36.460        27
36.470        13
36.480        53
36.490        27
36.500        27
36.510        53
36.520         0
36.530        13
36.540         0
36.550        13
36.560        27
36.570        53
36.580        13
36.590        27
36.600        27
36.610         0
36.620        40
36.630        27
36.640         0
36.650        40
36.660        67
36.670        13
36.680        13
36.690        27
36.700         0
36.710        40
36.720        13
36.730        13
36.740        13
36.750        67
36.760        53
36.770         0
36.780        27
36.790        27
36.800         0
36.810        13
36.820        13
36.830         0
36.840        13
36.850        13
36.860       107
36.870        13
36.880         0
36.890        27
36.900        27
36.910        27
36.920        27
36.930        40
36.940        40
36.950        53
36.960        13
36.970        27
36.980        13
36.990        40
37.000        27
37.010        27
37.020        40
37.030        40
37.040        27
37.050         0
37.060         0
37.070        40
37.080        27
37.090         0
37.100        40
37.110        27
37.120        27
37.130        53
37.140        13
37.150         0
37.160        40
37.170         0
37.180        40
37.190        27
37.200        13
37.210        53
37.220        27
37.230        13
37.240        80
37.250        27
37.260         0
37.270        40
37.280        27
37.290         0
37.300         0
37.310        13
37.320        27
37.330         0
37.340        27
37.350        53
37.360        27
37.370         0
37.380        13
37.390        40
37.400        27
37.410        40
37.420         0
37.430        67
37.440        13
37.450        40
37.460        27
37.470        27
37.480        13
37.490        13
37.500        13
37.510        27
37.520         0
37.530        40
37.540        27
37.550         0
37.560         0
37.570        40
37.580        40
37.590        40
37.600        13
37.610        13
37.620        27
37.630        27
37.640         0
37.650        27
37.660         0
37.670        27
37.680        27
37.690        67
37.700        27
37.710        53
37.720        53
37.730        40
37.740        53
37.750        27
37.760        27
37.770        80
37.780        27
37.790        27
37.800        40
37.810        40
37.820        67
37.830       133
37.840        40
37.850        40
37.860       107
37.870        40
37.880        67
37.890        27
37.900        27
37.910         0
37.920       107
37.930       107
37.940        93
37.950        27
37.960        80
37.970        67
37.980        67
37.990        53
38.000        80
38.010       120
38.020        27
38.030        27
38.040        67
38.050       107
38.060       160
38.070       107
38.080        53
38.090       213
38.100        93
38.110       120
38.120        93
38.130        67
38.140       200
38.150       107
38.160       120
38.170       107
38.180        67
38.190       133
38.200       133
38.210       253
38.220       200
38.230        67
38.240       120
38.250       147
38.260        80
38.270        93
38.280        80
38.290        67
38.300        80
38.310        67
38.320        80
38.330        93
38.340        40
38.350        67
38.360        40
38.370        53
38.380        40
38.390        53
38.400        13
38.410        53
38.420        13
38.430        27
38.440         0
38.450         0
38.460         0
38.470        27
38.480        13
38.490        53
38.500        13
38.510        40
38.520        27
38.530        40
38.540        40
38.550        40
38.560        53
38.570        53
38.580         0
38.590        40
38.600        40
38.610        13
38.620         0
38.630        13
38.640        27
38.650         0
38.660        27
38.670        27
38.680         0
38.690        13
38.700        13
38.710        27
38.720        40
38.730        13
38.740        27
38.750        27
38.760        27
38.770        53
38.780        40
38.790        27
38.800        27
38.810        13
38.820        27
38.830         0
38.840        40
38.850        40
38.860        53
38.870        40
38.880        53
38.890         0
38.900        27
38.910        13
38.920        40
38.930        67
38.940        67
38.950        40
38.960        27
38.970        27
38.980        13
38.990        27
39.000        13
39.010        13
39.020        40
39.030        27
39.040         0
39.050        80
39.060        40
39.070        27
39.080        27
39.090        27
39.100        13
39.110        27
39.120        53
39.130         0
39.140         0
39.150        13
39.160        13
39.170        27
39.180        40
39.190        27
39.200        53
39.210         0
39.220         0
39.230        40
39.240        13
39.250         0
39.260        40
39.270        13
39.280        13
39.290        40
39.300        27
39.310        40
39.320         0
39.330        27
39.340        13
39.350        13
39.360         0
39.370        27
39.380        27
39.390        27
39.400        13
39.410        13
39.420         0
39.430        27
39.440        40
39.450        80
39.460        13
39.470        40
39.480        40
39.490        27
39.500        13
39.510         0
39.520        40
39.530        13
39.540        13
39.550        40
39.560         0
39.570        27
39.580        13
39.590        27
39.600        13
39.610        13
39.620        13
39.630        40
39.640        13
39.650        40
39.660         0
39.670        13
39.680         0
39.690        13
39.700        13
39.710        13
39.720        13
39.730        27
39.740        40
39.750        40
39.760        27
39.770        27
39.780        40
39.790         0
39.800        13
39.810         0
39.820        53
39.830        13
39.840        40
39.850        27
39.860        13
39.870         0
39.880        53
39.890        53
39.900        27
39.910        80
39.920        13
39.930        13
39.940        13
39.950        27
39.960        27
39.970        27
39.980        40
39.990        13
40.000        13
40.010        40
40.020        13
40.030         0
40.040        40
40.050         0
40.060        40
40.070        40
40.080        13
40.090        27
40.100        40
40.110        13
40.120        40
40.130        27
40.140        13
40.150         0
40.160        13
40.170        27
40.180        40
40.190         0
40.200        40
40.210         0
40.220        27
40.230        13
40.240         0
40.250        53
40.260        13
40.270        13
40.280         0
40.290        27
40.300         0
40.310        27
40.320        13
40.330         0
40.340        13
40.350        27
40.360        40
40.370        40
40.380        27
40.390        27
40.400        13
40.410        13
40.420        13
40.430         0
40.440         0
40.450        40
40.460        27
40.470        53
40.480        27
40.490         0
40.500        13
40.510         0
40.520         0
40.530        53
40.540        27
40.550         0
40.560        27
40.570         0
40.580        40
40.590        40
40.600        13
40.610        27
40.620        53
40.630        53
40.640        27
40.650         0
40.660         0
40.670        13
40.680        27
40.690        67
40.700         0
40.710        67
40.720        27
40.730         0
40.740        40
40.750         0
40.760        40
40.770        27
40.780         0
40.790         0
40.800        27
40.810        13
40.820        27
40.830         0
40.840        13
40.850         0
40.860        13
40.870        27
40.880         0
40.890        27
40.900        40
40.910        13
40.920        27
40.930        53
40.940        13
40.950        40
40.960        27
40.970         0
40.980        27
40.990        40
41.000        27
41.010        27
41.020        13
41.030        13
41.040        27
41.050        27
41.060        27
41.070        13
41.080        27
41.090         0
41.100         0
41.110        13
41.120        27
41.130        27
41.140        13
41.150         0
41.160         0
41.170        40
41.180        40
41.190        13
41.200        27
41.210        27
41.220        40
41.230        13
41.240        13
41.250        13
41.260        13
41.270         0
41.280        13
41.290        40
41.300        13
41.310        40
41.320        13
41.330        27
41.340         0
41.350        27
41.360         0
41.370         0
41.380         0
41.390        13
41.400        27
41.410        40
41.420        13
41.430         0
41.440         0
41.450        27
41.460         0
41.470        27
41.480        40
41.490         0
41.500        13
41.510        27
41.520        40
41.530        40
41.540        27
41.550        40
41.560        13
41.570        53
41.580        27
41.590         0
41.600        53
41.610        53
41.620        93
41.630        93
41.640        53
41.650        27
41.660        67
41.670        40
41.680        53
41.690        93
41.700       133
41.710       107
41.720        53
41.730        40
41.740        53
41.750        13
41.760        40
41.770        53
41.780        13
41.790        27
41.800       107
41.810        40
41.820        40
41.830        13
41.840        53
41.850        13
41.860         0
41.870        40
41.880        13
41.890        27
41.900        40
41.910         0
41.920        67
41.930        27
41.940        13
41.950        13
41.960         0
41.970        13
41.980         0
41.990         0
42.000        27
42.010        40
42.020         0
42.030        13
42.040        13
42.050        13
42.060        13
42.070        13
42.080        13
42.090        13
42.100         0
42.110         0
42.120        13
42.130        27
42.140        40
42.150        27
42.160         0
42.170        13
42.180        40
42.190         0
42.200        27
42.210        80
42.220        27
42.230        53
42.240        40
42.250         0
42.260        40
42.270        13
42.280        40
42.290        13
42.300        27
42.310        27
42.320        40
42.330        27
42.340        27
42.350        13
42.360         0
42.370        40
42.380        40
42.390        13
42.400        40
42.410        53
42.420        13
42.430        27
42.440        67
42.450        27
42.460        13
42.470        40
42.480        53
42.490         0
42.500        13
42.510        40
42.520         0
42.530        40
42.540         0
42.550        27
42.560        13
42.570        27
42.580         0
42.590        40
42.600        13
42.610        27
42.620        13
42.630        40
42.640         0
42.650        27
42.660         0
42.670        27
42.680        27
42.690        13
42.700        27
42.710        27
42.720         0
42.730        40
42.740        13
42.750        13
42.760        13
42.770         0
42.780        40
42.790        13
42.800        13
42.810        27
42.820        13
42.830         0
42.840        40
42.850        27
42.860        13
42.870        40
42.880        27
42.890        40
42.900        27
42.910         0
42.920        27
42.930        13
42.940        13
42.950        27
42.960        13
42.970        13
42.980        27
42.990        13
43.000        40
43.010        13
43.020         0
43.030        27
43.040        53
43.050        40
43.060        40
43.070        27
43.080        13
43.090        27
43.100        67
43.110        53
43.120        27
43.130        13
43.140        27
43.150        13
43.160        40
43.170         0
43.180        40
43.190        40
43.200        13
43.210        40
43.220        67
43.230        13
43.240        13
43.250        13
43.260        13
43.270        53
43.280        53
43.290        13
43.300        13
43.310        40
43.320        67
43.330       133
43.340       107
43.350       107
43.360       120
43.370       160
43.380       133
43.390        93
43.400        40
43.410        40
43.420       107
43.430        93
43.440       120
43.450        93
43.460        93
43.470       107
43.480        93
43.490        93
43.500        53
43.510       120
43.520       107
43.530        40
43.540        40
43.550        53
43.560        53
43.570        80
43.580        40
43.590        40
43.600        40
43.610         0
43.620        27
43.630        27
43.640        13
43.650        13
43.660        27
43.670        53
43.680         0
43.690        13
43.700        27
43.710        40
43.720        13
43.730        13
43.740        53
43.750        13
43.760         0
43.770        53
43.780        13
43.790        27
43.800         0
43.810        53
43.820        13
43.830        53
43.840        13
43.850         0
43.860        27
43.870        27
43.880        13
43.890        40
43.900        13
43.910        13
43.920         0
43.930        27
43.940         0
43.950        13
43.960        27
43.970        40
43.980        27
43.990        40
44.000        27
44.010        13
44.020        40
44.030        13
44.040        13
44.050        13
44.060         0
44.070        40
44.080        13
44.090        53
44.100        13
44.110        27
44.120        27
44.130        53
44.140        27
44.150        67
44.160        40
44.170        27
44.180        53
44.190        27
44.200         0
44.210        67
44.220        80
44.230        13
44.240        93
44.250        40
44.260        67
44.270        13
44.280        80
44.290        93
44.300        40
44.310        40
44.320        80
44.330        40
44.340         0
44.350        93
44.360        53
44.370        13
44.380        27
44.390        40
44.400        93
44.410        80
44.420        27
44.430        40
44.440        27
44.450        40
44.460        27
44.470        27
44.480        40
44.490        53
44.500        80
44.510        27
44.520        40
44.530        40
44.540        67
44.550        13
44.560        67
44.570        13
44.580        93
44.590        13
44.600        27
44.610         0
44.620        40
44.630        53
44.640        13
44.650        40
44.660        27
44.670         0
44.680        27
44.690        13
44.700        40
44.710        13
44.720        40
44.730         0
44.740        13
44.750         0
44.760         0
44.770         0
44.780        27
44.790        13
44.800        40
44.810        27
44.820         0
44.830        13
44.840        40
44.850        13
44.860        13
44.870         0
44.880        27
44.890        27
44.900        40
44.910        13
44.920        27
44.930        40
44.940        53
44.950        13
44.960        13
44.970        40
44.980        27
44.990        27
45.000        40
45.010        13
45.020         0
45.030        27
45.040        53
45.050        13
45.060         0
45.070        27
45.080        27
45.090        13
45.100        40
45.110        13
45.120        27
45.130         0
45.140        13
45.150        40
45.160        13
45.170        13
45.180        53
45.190         0
45.200        27
45.210        27
45.220         0
45.230        13
45.240        27
45.250        13
45.260        27
45.270        27
45.280         0
45.290        13
45.300        13
45.310        40
45.320        27
45.330        13
45.340         0
45.350        13
45.360         0
45.370        13
45.380        13
45.390         0
45.400        13
45.410        27
45.420        27
45.430        13
45.440        13
45.450         0
45.460         0
45.470        40
45.480         0
45.490        27
45.500        13
45.510        27
45.520         0
45.530        13
45.540        13
45.550        67
45.560        27
45.570         0
45.580        13
45.590        27
45.600        27
45.610        27
45.620         0
45.630        27
45.640         0
45.650        13
45.660        13
45.670        27
45.680        13
45.690         0
45.700        27
45.710        13
45.720        40
45.730        13
45.740        53
45.750        13
45.760         0
45.770         0
45.780        27
45.790        27
45.800        13
45.810        13
45.820        27
45.830        13
45.840        13
45.850         0
45.860        13
45.870         0
45.880        13
45.890         0
45.900        13
45.910        13
45.920        13
45.930         0
45.940         0
45.950        27
45.960         0
45.970        13
45.980        40
45.990        13
46.000         0
46.010         0
46.020        27
46.030        13
46.040        13
46.050        13
46.060         0
46.070        27
46.080        13
46.090         0
46.100        13
46.110        13
46.120        27
46.130        27
46.140        13
46.150        13
46.160        13
46.170        27
46.180        27
46.190        40
46.200         0
46.210        40
46.220        13
46.230        27
46.240        53
46.250        13
46.260        13
46.270        13
46.280        27
46.290        13
46.300         0
46.310        13
46.320         0
46.330        13
46.340        13
46.350        40
46.360        53
46.370        13
46.380        53
46.390        13
46.400        27
46.410        67
46.420        40
46.430        13
46.440        13
46.450        40
46.460        13
46.470        40
46.480        13
46.490        13
46.500        13
46.510        27
46.520        13
46.530         0
46.540        27
46.550        13
46.560         0
46.570        13
46.580         0
46.590        13
46.600         0
46.610        13
46.620        27
46.630        13
46.640         0
46.650         0
46.660         0
46.670        27
46.680        40
46.690        13
46.700        13
46.710        13
46.720        53
46.730        40
46.740         0
46.750        27
46.760        13
46.770        13
46.780        27
46.790        40
46.800        40
46.810        27
46.820        53
46.830        27
46.840        13
46.850        13
46.860        40
46.870        27
46.880        53
46.890        13
46.900        13
46.910        13
46.920        40
46.930        27
46.940        27
46.950         0
46.960         0
46.970         0
46.980         0
46.990        27
47.000        13
47.010        13
47.020        27
47.030        13
47.040        13
47.050        53
47.060         0
47.070        27
47.080         0
47.090         0
47.100         0
47.110        27
47.120         0
47.130        13
47.140        27
47.150         0
47.160        13
47.170        13
47.180        13
47.190         0
47.200        27
47.210         0
47.220        27
47.230        27
47.240        27
47.250        40
47.260         0
47.270        13
47.280        40
47.290        27
47.300        27
47.310         0
47.320        27
47.330        27
47.340        13
47.350         0
47.360         0
47.370        13
47.380        40
47.390        13
47.400         0
47.410        27
47.420        13
47.430        40
47.440        13
47.450         0
47.460        40
47.470        27
47.480         0
47.490        13
47.500        13
47.510        13
47.520        40
47.530         0
47.540         0
47.550         0
47.560         0
47.570        13
47.580        13
47.590        27
47.600        13
47.610         0
47.620         0
47.630        40
47.640        53
47.650         0
47.660         0
47.670        13
47.680         0
47.690        13
47.700         0
47.710        13
47.720        27
47.730        27
47.740        13
47.750         0
47.760         0
47.770        27
47.780         0
47.790         0
47.800        27
47.810         0
47.820        27
47.830        27
47.840         0
47.850         0
47.860        13
47.870        13
47.880        27
47.890        13
47.900        40
47.910        27
47.920        27
47.930        40
47.940        13
47.950        53
47.960         0
47.970         0
47.980         0
47.990        13
48.000        13
48.010        13
48.020         0
48.030        13
48.040        13
48.050         0
48.060        27
48.070        27
48.080        27
48.090        53
48.100        53
48.110        27
48.120        40
48.130         0
48.140        27
48.150        13
48.160        13
48.170        27
48.180        27
48.190        13
48.200         0
48.210        13
48.220        13
48.230        40
48.240        13
48.250        40
48.260         0
48.270        13
48.280        27
48.290         0
48.300        27
48.310        13
48.320        13
48.330        13
48.340         0
48.350        27
48.360        13
48.370        27
48.380        27
48.390        13
48.400        27
48.410        13
48.420        13
48.430        13
48.440        40
48.450        40
48.460         0
48.470        13
48.480        27
48.490         0
48.500        40
48.510         0
48.520        13
48.530        13
48.540        27
48.550        13
48.560         0
48.570        27
48.580        13
48.590        27
48.600         0
48.610         0
48.620        13
48.630        13
48.640        27
48.650        53
48.660         0
48.670        13
48.680        13
48.690        13
48.700        13
48.710        27
48.720         0
48.730        27
48.740        27
48.750         0
48.760        27
48.770         0
48.780        27
48.790         0
48.800         0
48.810        27
48.820         0
48.830         0
48.840        27
48.850         0
48.860        13
48.870         0
48.880         0
48.890        27
48.900         0
48.910        13
48.920         0
48.930        27
48.940        27
48.950         0
48.960        13
48.970         0
48.980        13
48.990        27
49.000         0
49.010        13
49.020        13
49.030        27
49.040        13
49.050         0
49.060        13
49.070        13
49.080        13
49.090         0
49.100        40
49.110        27
49.120        13
49.130        13
49.140        13
49.150        13
49.160         0
49.170        27
49.180         0
49.190         0
49.200        67
49.210        27
49.220         0
49.230        27
49.240         0
49.250        13
49.260        13
49.270        27
49.280         0
49.290        27
49.300         0
49.310        13
49.320        67
49.330         0
49.340         0
49.350        27
49.360        13
49.370        13
49.380         0
49.390        13
49.400         0
49.410        13
49.420         0
49.430        40
49.440        27
49.450        13
49.460         0
49.470        27
49.480        13
49.490        13
49.500        13
49.510         0
49.520        13
49.530         0
49.540         0
49.550        13
49.560        13
49.570        13
49.580        13
49.590         0
49.600        13
49.610         0
49.620        40
49.630         0
49.640         0
49.650         0
49.660        27
49.670        27
49.680        13
49.690        13
49.700        13
49.710        13
49.720         0
49.730        13
49.740        53
49.750        13
49.760        13
49.770        40
49.780         0
49.790        27
49.800         0
49.810        27
49.820        27
49.830         0
49.840         0
49.850         0
49.860         0
49.870         0
49.880        27
49.890        40
49.900         0
49.910         0
49.920        40
49.930        13
49.940        27
49.950        27
49.960        27
49.970        27
49.980         0
49.990        13
50.000        40
50.010        40
50.020        27
50.030        27
50.040        40
50.050        27
50.060         0
50.070        13
50.080         0
50.090        27
50.100        13
50.110        27
50.120        27
50.130        53
50.140         0
50.150        27
50.160        27
50.170        27
50.180         0
50.190        13
50.200        13
50.210        27
50.220         0
50.230        27
50.240        40
50.250         0
50.260        40
50.270         0
50.280         0
50.290        27
50.300         0
50.310        27
50.320        40
50.330        27
50.340         0
50.350        13
50.360         0
50.370        27
50.380         0
50.390        27
50.400        13
50.410         0
50.420         0
50.430        27
50.440         0
50.450         0
50.460         0
50.470         0
50.480        27
50.490        27
50.500        27
50.510        13
50.520         0
50.530        13
50.540        13
50.550        13
50.560        13
50.570        13
50.580         0
50.590        13
50.600         0
50.610        13
50.620         0
50.630        27
50.640         0
50.650        13
50.660         0
50.670        13
50.680        27
50.690         0
50.700         0
50.710         0
50.720         0
50.730        27
50.740        13
50.750        13
50.760         0
50.770        13
50.780        27
50.790        53
50.800         0
50.810        27
50.820         0
50.830         0
50.840         0
50.850        40
50.860         0
50.870        13
50.880        27
50.890         0
50.900        27
50.910         0
50.920        13
50.930         0
50.940        13
50.950         0
50.960        13
50.970        27
50.980        13
50.990        13
51.000        13
51.010        27
51.020        27
51.030         0
51.040         0
51.050        13
51.060        27
51.070        27
51.080         0
51.090         0
51.100        13
51.110         0
51.120         0
51.130        27
51.140         0
51.150         0
51.160        13
51.170        13
51.180        27
51.190        27
51.200         0
51.210        13
51.220        13
51.230        13
51.240         0
51.250         0
51.260        27
51.270        13
51.280        13
51.290         0
51.300        27
51.310         0
51.320        13
51.330         0
51.340        27
51.350         0
51.360        40
51.370         0
51.380        13
51.390         0
51.400         0
51.410        13
51.420         0
51.430        13
51.440        13
51.450         0
51.460        13
51.470        13
51.480        27
51.490        27
51.500        40
51.510         0
51.520        13
51.530         0
51.540         0
51.550        27
51.560        40
51.570         0
51.580        40
51.590         0
51.600         0
51.610        27
51.620        27
51.630        27
51.640         0
51.650         0
51.660         0
51.670         0
51.680        13
51.690        27
51.700         0
51.710         0
51.720        13
51.730        40
51.740         0
51.750        13
51.760        13
51.770        27
51.780         0
51.790         0
51.800         0
51.810         0
51.820        13
51.830        27
51.840        27
51.850        27
51.860         0
51.870        13
51.880         0
51.890        13
51.900        13
51.910        13
51.920         0
51.930         0
51.940        40
51.950        40
51.960        27
51.970        13
51.980        27
51.990        27
52.000         0
52.010         0
52.020         0
52.030         0
52.040        13
52.050        13
52.060        13
52.070         0
52.080         0
52.090         0
52.100        13
52.110        13
52.120        13
52.130        40
52.140         0
52.150         0
52.160         0
52.170         0
52.180         0
52.190         0
52.200         0
52.210        13
52.220        27
52.230         0
52.240        27
52.250        13
52.260        13
52.270        27
52.280        13
52.290         0
52.300         0
52.310        13
52.320         0
52.330         0
52.340         0
52.350        13
52.360        13
52.370        13
52.380        27
52.390         0
52.400        13
52.410        40
52.420         0
52.430         0
52.440        13
52.450        13
52.460        13
52.470         0
52.480        27
52.490        13
52.500        27
52.510        13
52.520        13
52.530        53
52.540        40
52.550        40
52.560        80
52.570         0
52.580        53
52.590        67
52.600        27
52.610        53
52.620        40
52.630        27
52.640        53
52.650        40
52.660         0
52.670         0
52.680        13
52.690        27
52.700        27
52.710        27
52.720        40
52.730        13
52.740        27
52.750        13
52.760         0
52.770        13
52.780         0
52.790         0
52.800        13
52.810        13
52.820        40
52.830         0
52.840        13
52.850        53
52.860        13
52.870         0
52.880        13
52.890        27
52.900        13
52.910        27
52.920        13
52.930        27
52.940         0
52.950         0
52.960         0
52.970         0
52.980        27
52.990        27
53.000         0
53.010        13
53.020         0
53.030         0
53.040         0
53.050         0
53.060        27
53.070        27
53.080         0
53.090        13
53.100         0
53.110        40
53.120        27
53.130        27
53.140        27
53.150        27
53.160        13
53.170        13
53.180        13
53.190         0
53.200        13
53.210         0
53.220        27
53.230        13
53.240         0
53.250        13
53.260         0
53.270        13
53.280         0
53.290         0
53.300        27
53.310        13
53.320         0
53.330        13
53.340        27
53.350         0
53.360         0
53.370         0
53.380         0
53.390         0
53.400        13
53.410        13
53.420        13
53.430         0
53.440         0
53.450        13
53.460        13
53.470         0
53.480        53
53.490        13
53.500         0
53.510         0
53.520        13
53.530         0
53.540         0
53.550        13
53.560        27
53.570        27
53.580         0
53.590        13
53.600        13
53.610        13
53.620         0
53.630         0
53.640        13
53.650         0
53.660        40
53.670        40
53.680        27
53.690        27
53.700         0
53.710         0
53.720        27
53.730        13
53.740         0
53.750        27
53.760         0
53.770        13
53.780        27
53.790        13
53.800         0
53.810         0
53.820        40
53.830        13
53.840        13
53.850        27
53.860         0
53.870        27
53.880         0
53.890        27
53.900         0
53.910        27
53.920         0
53.930        27
53.940        13
53.950         0
53.960         0
53.970         0
53.980        40
53.990        13
54.000        13
54.010         0
54.020        27
54.030        13
54.040         0
54.050        27
54.060        13
54.070        27
54.080         0
54.090         0
54.100        27
54.110         0
54.120        13
54.130        13
54.140        27
54.150        27
54.160        13
54.170        13
54.180        40
54.190        13
54.200        27
54.210        13
54.220        40
54.230        13
54.240        13
54.250        27
54.260        13
54.270        13
54.280        13
54.290        13
54.300         0
54.310        40
54.320         0
54.330         0
54.340        13
54.350         0
54.360         0
54.370         0
54.380        13
54.390        40
54.400        40
54.410        67
54.420        53
54.430        13
54.440        27
54.450        27
54.460        13
54.470        27
54.480         0
54.490        27
54.500        27
54.510        40
54.520        27
54.530        27
54.540         0
54.550        27
54.560        40
54.570         0
54.580        27
54.590        53
54.600        27
54.610        27
54.620        40
54.630        40
54.640        53
54.650        40
54.660         0
54.670        40
54.680        40
54.690         0
54.700        13
54.710        53
54.720        67
54.730        27
54.740        27
54.750         0
54.760        40
54.770        27
54.780        67
54.790        27
54.800        27
54.810        80
54.820        80
54.830        67
54.840       107
54.850        13
54.860       107
54.870         0
54.880        67
54.890        93
54.900        67
54.910        27
54.920       147
54.930        93
54.940        53
54.950       107
54.960       107
54.970        67
54.980        53
54.990        27
55.000        80
55.010        93
55.020       120
55.030        67
55.040        93
55.050       173
55.060       120
55.070       133
55.080       107
55.090        80
55.100        80
55.110        93
55.120        53
55.130       107
55.140        27
55.150        80
55.160        80
55.170        80
55.180        40
55.190        53
55.200        13
55.210        67
55.220        67
55.230        40
55.240        27
55.250        93
55.260        13
55.270        53
55.280        53
55.290        53
55.300        13
55.310        27
55.320         0
55.330        40
55.340        67
55.350         0
55.360        80
55.370        27
55.380        67
55.390        13
55.400        27
55.410        13
55.420        53
55.430        13
55.440         0
55.450        53
55.460        27
55.470        27
55.480        27
55.490        13
55.500        13
55.510        13
55.520        67
55.530        67
55.540        40
55.550        13
55.560        27
55.570        27
55.580         0
55.590        13
55.600        13
55.610         0
55.620        27
55.630         0
55.640         0
55.650         0
55.660        27
55.670        13
55.680        40
55.690         0
55.700        27
55.710         0
55.720        13
55.730         0
55.740        13
55.750        40
55.760         0
55.770        13
55.780         0
55.790        40
55.800         0
55.810         0
55.820        13
55.830        13
55.840         0
55.850         0
55.860         0
55.870        40
55.880        27
55.890        40
55.900        27
55.910        53
55.920         0
55.930        40
55.940        13
55.950         0
55.960        40
55.970        13
55.980         0
55.990         0
56.000         0
56.010        13
56.020         0
56.030        53
56.040        27
56.050         0
56.060        27
56.070        27
56.080         0
56.090         0
56.100        13
56.110         0
56.120        27
56.130        13
56.140        40
56.150         0
56.160        27
56.170        13
56.180        13
56.190        13
56.200        13
56.210        27
56.220         0
56.230        13
56.240        40
56.250         0
56.260        27
56.270        27
56.280         0
56.290        27
56.300        13
56.310        13
56.320        13
56.330         0
56.340        13
56.350        13
56.360         0
56.370        13
56.380         0
56.390         0
56.400         0
56.410        13
56.420        27
56.430        27
56.440         0
56.450         0
56.460        40
56.470        40
56.480         0
56.490        13
56.500        40
56.510        53
56.520         0
56.530         0
56.540        13
56.550        27
56.560        13
56.570        13
56.580         0
56.590        13
56.600        13
56.610        27
56.620        40
56.630         0
56.640        27
56.650        27
56.660         0
56.670         0
56.680         0
56.690        53
56.700         0
56.710        13
56.720        27
56.730         0
56.740        27
56.750        13
56.760        40
56.770        27
56.780        27
56.790         0
56.800         0
56.810         0
56.820         0
56.830        13
56.840         0
56.850        40
56.860        40
56.870        27
56.880         0
56.890        27
56.900        13
56.910        27
56.920        40
56.930        13
56.940        40
56.950        13
56.960        40
56.970         0
56.980        40
56.990        13
57.000        13
57.010         0
57.020        27
57.030        27
57.040        27
57.050        27
57.060         0
57.070        13
57.080        13
57.090         0
57.100         0
57.110        13
57.120        13
57.130        80
57.140        13
57.150         0
57.160         0
57.170        27
57.180        13
57.190        40
57.200        13
57.210        13
57.220        13
57.230        27
57.240        13
57.250        27
57.260         0
57.270         0
57.280        13
57.290        13
57.300         0
57.310        40
57.320        13
57.330        13
57.340        40
57.350        13
57.360        27
57.370         0
57.380        27
57.390        13
57.400        40
57.410        67
57.420        80
57.430       120
57.440        67
57.450        53
57.460        67
57.470       120
57.480        40
57.490       133
57.500       120
57.510       173
57.520       107
57.530       173
57.540       133
57.550       107
57.560        53
57.570        27
57.580        80
57.590        80
57.600        40
57.610        40
57.620        40
57.630        93
57.640        93
57.650        40
57.660        93
57.670        80
57.680        53
57.690        27
57.700        40
57.710        40
57.720         0
57.730        40
57.740        53
57.750        40
57.760        13
57.770         0
57.780        40
57.790         0
57.800         0
57.810        27
57.820         0
57.830         0
57.840        13
57.850        40
57.860        13
57.870        27
57.880        13
57.890        27
57.900        13
57.910        13
57.920        13
57.930         0
57.940        13
57.950         0
57.960        53
57.970        27
57.980         0
57.990        40
58.000         0
58.010        40
58.020        27
58.030         0
58.040        13
58.050        53
58.060        40
58.070        13
58.080        27
58.090         0
58.100        13
58.110         0
58.120         0
58.130         0
58.140        13
58.150        13
58.160        13
58.170        27
58.180        13
58.190        27
58.200        13
58.210         0
58.220        13
58.230        13
58.240         0
58.250        27
58.260        13
58.270         0
58.280        27
58.290         0
58.300         0
58.310         0
58.320         0
58.330         0
58.340        27
58.350         0
58.360         0
58.370         0
58.380        27
58.390        13
58.400        13
58.410        13
58.420         0
58.430        27
58.440        13
58.450        13
58.460        13
58.470         0
58.480        13
58.490        27
58.500        13
58.510        27
58.520         0
58.530         0
58.540         0
58.550         0
58.560        13
58.570         0
58.580        40
58.590        13
58.600        13
58.610        13
58.620        13
58.630         0
58.640         0
58.650        13
58.660         0
58.670         0
58.680        27
58.690        13
58.700         0
58.710         0
58.720        27
58.730        13
58.740         0
58.750         0
58.760        13
58.770        27
58.780        13
58.790        53
58.800         0
58.810         0
58.820         0
58.830        13
58.840        40
58.850         0
58.860        13
58.870        40
58.880        13
58.890         0
58.900        13
58.910        53
58.920         0
58.930         0
58.940        27
58.950         0
58.960         0
58.970        13
58.980        27
58.990        13
59.000        53
59.010         0
59.020        53
59.030        13
59.040        27
59.050        13
59.060        13
59.070        13
59.080        40
59.090        13
59.100        13
59.110         0
59.120        13
59.130        13
59.140         0
59.150        13
59.160         0
59.170        13
59.180        13
59.190         0
59.200        13
59.210        13
59.220         0
59.230        13
59.240        13
59.250        13
59.260        27
59.270         0
59.280        13
59.290        27
59.300        27
59.310         0
59.320         0
59.330         0
59.340        13
59.350        27
59.360        27
59.370        13
59.380        13
59.390         0
59.400        13
59.410        13
59.420         0
59.430         0
59.440        13
59.450         0
59.460         0
59.470        13
59.480         0
59.490        13
59.500         0
59.510        53
59.520         0
59.530        13
59.540         0
59.550         0
59.560         0
59.570        27
59.580         0
59.590        27
59.600        27
59.610        27
59.620         0
59.630         0
59.640        53
59.650        40
59.660         0
59.670        13
59.680        13
59.690        13
59.700         0
59.710        13
59.720         0
59.730        40
59.740        13
59.750         0
59.760        27
59.770        27
59.780         0
59.790        13
59.800        13
59.810         0
59.820        27
59.830         0
59.840        27
59.850         0
59.860        13
59.870        40
59.880         0
59.890        13
59.900        13
59.910        27
59.920        13
59.930        27
59.940        13
59.950        13
59.960         0
59.970        27
59.980         0
59.990         0
60.000         0
