20.000        33
20.010        33
20.020        87
20.030        13
20.040        33
20.050        40
20.060        27
20.070        40
20.080        47
20.090        20
20.100        60
20.110        27
20.120        47
20.130        73
20.140        27
20.150        40
20.160        87
20.170        53
20.180        47
20.190        40
20.200        53
20.210        40
20.220        40
20.230        40
20.240        33
20.250        40
20.260        27
20.270        47
20.280        53
20.290        60
20.300        27
20.310        13
20.320        40
20.330        27
20.340        53
20.350        53
20.360        40
20.370        33
20.380        13
20.390        53
20.400        40
20.410        27
20.420        27
20.430        47
20.440        33
20.450        47
20.460        73
20.470        27
20.480        53
20.490        33
20.500        53
20.510        47
20.520        47
20.530        13
20.540        47
20.550        33
20.560        27
20.570        60
20.580        53
20.590        33
20.600        13
20.610        33
20.620        67
20.630        33
20.640        33
20.650        20
20.660        67
20.670        40
20.680        60
20.690        40
20.700        27
20.710        40
20.720        20
20.730        27
20.740        33
20.750        20
20.760        67
20.770        80
20.780        33
20.790        33
20.800        33
20.810        27
20.820        47
20.830        40
20.840        60
20.850        33
20.860        53
20.870        27
20.880        40
20.890        40
20.900        33
20.910        40
20.920        60
20.930        53
20.940        40
20.950        53
20.960        27
20.970        27
20.980        73
20.990        53
21.000        47
21.010        47
21.020        40
21.030        33
21.040        60
21.050        27
21.060        40
21.070        40
21.080        40
21.090        53
21.100        47
21.110        67
21.120        27
21.130        40
21.140        27
21.150        67
21.160        47
21.170        47
21.180        67
21.190        47
21.200        73
21.210        53
21.220        40
21.230        33
21.240        53
21.250        20
21.260        93
21.270        33
21.280        47
21.290        40
21.300        53
21.310        47
21.320        60
21.330        40
21.340        47
21.350        27
21.360         7
21.370        80
21.380        53
21.390        27
21.400        60
21.410        67
21.420        53
21.430        33
21.440        27
21.450        40
21.460        47
21.470        60
21.480        80
21.490        33
21.500        27
21.510        47
21.520        40
21.530        33
21.540        47
21.550        47
21.560        80
21.570        40
21.580        27
21.590        67
21.600        40
21.610        27
21.620        87
21.630        47
21.640        80
21.650        20
21.660        47
21.670        27
21.680        47
21.690        33
21.700        53
21.710        60
21.720        40
21.730        33
21.740        33
21.750        33
21.760        40
21.770        47
21.780        27
21.790        40
21.800        67
21.810        47
21.820        47
21.830        60
21.840        40
21.850        33
21.860        47
21.870        20
21.880        47
21.890        73
21.900        80
21.910        40
21.920        47
21.930        53
21.940        47
21.950        60
21.960        47
21.970        27
21.980        20
21.990        13
22.000        27
22.010        20
22.020        27
22.030        40
22.040        47
22.050       180
22.060        60
22.070        20
22.080        53
22.090        20
22.100        60
22.110        40
22.120        53
22.130        53
22.140        40
22.150        60
22.160        47
22.170        47
22.180        27
22.190        27
22.200        47
22.210        27
22.220        20
22.230        20
22.240        53
22.250        27
22.260        33
22.270        53
22.280        47
22.290        33
22.300        33
22.310        33
22.320        33
22.330        20
22.340        47
22.350        53
22.360        20
22.370        53
22.380        67
22.390        27
22.400        40
22.410        60
22.420        53
22.430        33
22.440        33
22.450        13
22.460        53
22.470        40
22.480        27
22.490        53
22.500        13
22.510        40
22.520        20
22.530        20
22.540        33
22.550        33
22.560        40
22.570        20
22.580        20
22.590        27
22.600        20
22.610        67
22.620        53
22.630        13
22.640        20
22.650        53
22.660        87
22.670        33
22.680        60
22.690        60
22.700        60
22.710        40
22.720        53
22.730        40
22.740        53
22.750        27
22.760        60
22.770        60
22.780        33
22.790        33
22.800        40
22.810        20
22.820        40
22.830        27
22.840        33
22.850        73
22.860        33
22.870        40
22.880        40
22.890        47
22.900        27
22.910        60
22.920        20
22.930        20
22.940         7
22.950        27
22.960        33
22.970        53
22.980        47
22.990        27
23.000        53
23.010        47
23.020        40
23.030        40
23.040        40
23.050        27
23.060         0
23.070        53
23.080        13
23.090        33
23.100        73
23.110        53
23.120        67
23.130        27
23.140        60
23.150        33
23.160        40
23.170        33
23.180         0
23.190        80
23.200        33
23.210        33
23.220        40
23.230        20
23.240        27
23.250        47
23.260        53
23.270        27
23.280        53
23.290        20
23.300        87
23.310        60
23.320        47
23.330        13
23.340        47
23.350        53
23.360        27
23.370        47
23.380        20
23.390        53
23.400        27
23.410        20
23.420        27
23.430        67
23.440        60
23.450        33
23.460        33
23.470        27
23.480        33
23.490        40
23.500        33
23.510        20
23.520        27
23.530        47
23.540        27
23.550        40
23.560        27
23.570        33
23.580        73
23.590        53
23.600        27
23.610        33
23.620        33
23.630        13
23.640        40
23.650        33
23.660        40
23.670        13
23.680        33
23.690        27
23.700        27
23.710        33
23.720        33
23.730        33
23.740         7
23.750         7
23.760        33
23.770        40
23.780        53
23.790        27
23.800        33
23.810        27
23.820        40
23.830        27
23.840        40
23.850        27
23.860        40
23.870        67
23.880        27
23.890        60
23.900        33
23.910        33
23.920        27
23.930        27
23.940        40
23.950        33
23.960        33
23.970        40
23.980        67
23.990        27
24.000        40
24.010        33
24.020        47
24.030        27
24.040        27
24.050        47
24.060        40
24.070        33
24.080        33
24.090        47
24.100        20
24.110        27
24.120        40
24.130        13
24.140        27
24.150        27
24.160        33
24.170       100
24.180        20
24.190        53
24.200        47
24.210        67
24.220        27
24.230        20
24.240        47
24.250        33
24.260        33
24.270        27
24.280        53
24.290        40
24.300        33
24.310        47
24.320        13
24.330        27
24.340        33
24.350        27
24.360        33
24.370        20
24.380        33
24.390        27
24.400        40
24.410        13
24.420        40
24.430        27
24.440        53
24.450        33
24.460        27
24.470        33
24.480        40
24.490        27
24.500        27
24.510        33
24.520        60
24.530        40
24.540        27
24.550        13
24.560        47
24.570        13
24.580        20
24.590        27
24.600        40
24.610        40
24.620        53
24.630        33
24.640        27
24.650        20
24.660        27
24.670        20
24.680        27
24.690        40
24.700        27
24.710        27
24.720        40
24.730        40
24.740        47
24.750        47
24.760        53
24.770        20
24.780        13
24.790        20
24.800        20
24.810        27
24.820        20
24.830        27
24.840        20
24.850        27
24.860        33
24.870        40
24.880        73
24.890         0
24.900        13
24.910        27
24.920        20
24.930        40
24.940        47
24.950        40
24.960        20
24.970        33
24.980        33
24.990         0
25.000        13
25.010        40
25.020        40
25.030        40
25.040         7
25.050        27
25.060        27
25.070        27
25.080        20
25.090        33
25.100        20
25.110        27
25.120        53
25.130        13
25.140        47
25.150        47
25.160        20
25.170        47
25.180        20
25.190        20
25.200        27
25.210        33
25.220        33
25.230        27
25.240        33
25.250        53
25.260        13
25.270        40
25.280        20
25.290        47
25.300        27
25.310        47
25.320        33
25.330        27
25.340        27
25.350        33
25.360        20
25.370        33
25.380        20
25.390        60
25.400        27
25.410        47
25.420        27
25.430        33
25.440        33
25.450        27
25.460        33
25.470        47
25.480        67
25.490        47
25.500        40
25.510        47
25.520        20
25.530        33
25.540        47
25.550        33
25.560        27
25.570        60
25.580        13
25.590        53
25.600        40
25.610        13
25.620        20
25.630        33
25.640        53
25.650        27
25.660        27
25.670        13
25.680        33
25.690        27
25.700        60
25.710        40
25.720        20
25.730        20
25.740        47
25.750        33
25.760        20
25.770        27
25.780        13
25.790        40
25.800        40
25.810        33
25.820        33
25.830        13
25.840        27
25.850        67
25.860        20
25.870        27
25.880        40
25.890        33
25.900        20
25.910        27
25.920        27
25.930        40
25.940        27
25.950        47
25.960        20
25.970        40
25.980        20
25.990        67
26.000        47
26.010        40
26.020        27
26.030        20
26.040        27
26.050        40
26.060        13
26.070        33
26.080        27
26.090         7
26.100        33
26.110        20
26.120        27
26.130        27
26.140        40
26.150        67
26.160        40
26.170        33
26.180        33
26.190        27
26.200        27
26.210        33
26.220        33
26.230        40
26.240        40
26.250        40
26.260        47
26.270        13
26.280        27
26.290        40
26.300        33
26.310         7
26.320        33
26.330        20
26.340        20
26.350        20
26.360         7
26.370        60
26.380        53
26.390        53
26.400        27
26.410        33
26.420        33
26.430        33
26.440        20
26.450        47
26.460        27
26.470        27
26.480        27
26.490        20
26.500        53
26.510        27
26.520        33
26.530        27
26.540        27
26.550        33
26.560        60
26.570        33
26.580        13
26.590        20
26.600        20
26.610        27
26.620        20
26.630         0
26.640        20
26.650        27
26.660        27
26.670        20
26.680        13
26.690        20
26.700        27
26.710        33
26.720        33
26.730        47
26.740        20
26.750        13
26.760        53
26.770        27
26.780        40
26.790        33
26.800        33
26.810        40
26.820        33
26.830        20
26.840        33
26.850        33
26.860        47
26.870        27
26.880        33
26.890        47
26.900        27
26.910        27
26.920        40
26.930        47
26.940        53
26.950        40
26.960        47
26.970        27
26.980        33
26.990        33
27.000        20
27.010        27
27.020        47
27.030        27
27.040        60
27.050         7
27.060        13
27.070        33
27.080        27
27.090        33
27.100        33
27.110        67
27.120        20
27.130        20
27.140        13
27.150        33
27.160        33
27.170        67
27.180        53
27.190        27
27.200        40
27.210        33
27.220        27
27.230        47
27.240        20
27.250        20
27.260        47
27.270        27
27.280        27
27.290        20
27.300        13
27.310        33
27.320        27
27.330        27
27.340        20
27.350        20
27.360        33
27.370        60
27.380        40
27.390         7
27.400        20
27.410        40
27.420        13
27.430        20
27.440        40
27.450        20
27.460        20
27.470        33
27.480        40
27.490        20
27.500        40
27.510        60
27.520        20
27.530        27
27.540        47
27.550        27
27.560        33
27.570         0
27.580        33
27.590        13
27.600        67
27.610        60
27.620        20
27.630        40
27.640        27
27.650        20
27.660        40
27.670        20
27.680        27
27.690        33
27.700        47
27.710        40
27.720        27
27.730        27
27.740        33
27.750        33
27.760        33
27.770        27
27.780        33
27.790        33
27.800        60
27.810        47
27.820        53
27.830        47
27.840        47
27.850        47
27.860        67
27.870        60
27.880        40
27.890        73
27.900        47
27.910        60
27.920        80
27.930        60
27.940        53
27.950        33
27.960        47
27.970        40
27.980        60
27.990        27
28.000        67
28.010        47
28.020        47
28.030        33
28.040        33
28.050        53
28.060        53
28.070        53
28.080        20
28.090        20
28.100        27
28.110        40
28.120        33
28.130        27
28.140        33
28.150        33
28.160        33
28.170        27
28.180        33
28.190        27
28.200        33
28.210        13
28.220        13
28.230        20
28.240        47
28.250        27
28.260        40
28.270        20
28.280        53
28.290        53
28.300        47
28.310        20
28.320        33
28.330        20
28.340        33
28.350        67
28.360        27
28.370        27
28.380        27
28.390        47
28.400        53
28.410        13
28.420        20
28.430        53
28.440        47
28.450        53
28.460        13
28.470        47
28.480        53
28.490        60
28.500        20
28.510        20
28.520        60
28.530         7
28.540        20
28.550        40
28.560        60
28.570        40
28.580        13
28.590        53
28.600        53
28.610        20
28.620        47
28.630        40
28.640        33
28.650        20
28.660        27
28.670        13
28.680        60
28.690        20
28.700        20
28.710        13
28.720        33
28.730        33
28.740        33
28.750        33
28.760        53
28.770        13
28.780        20
28.790        27
28.800        20
28.810         7
28.820        47
28.830        27
28.840        53
28.850        20
28.860        40
28.870        20
28.880        40
28.890         7
28.900        40
28.910        40
28.920        33
28.930        53
28.940        33
28.950        47
28.960        27
28.970        13
28.980         0
28.990        33
29.000        47
29.010        33
29.020        53
29.030        33
29.040        20
29.050        13
29.060        60
29.070        53
29.080        33
29.090        20
29.100        20
29.110        40
29.120        33
29.130        47
29.140        20
29.150        20
29.160        27
29.170        13
29.180        33
29.190        27
29.200        33
29.210        40
29.220        33
29.230        27
29.240        20
29.250        27
29.260        27
29.270        40
29.280        20
29.290        33
29.300        20
29.310        40
29.320        40
29.330        40
29.340        27
29.350        53
29.360        33
29.370        33
29.380        27
29.390        40
29.400        40
29.410        33
29.420        27
29.430        20
29.440        27
29.450        20
29.460        33
29.470        33
29.480        20
29.490        40
29.500        33
29.510        13
29.520        27
29.530        33
29.540        40
29.550        47
29.560        20
29.570        27
29.580        40
29.590         7
29.600        33
29.610        20
29.620        13
29.630        40
29.640         7
29.650        27
29.660        20
29.670        13
29.680        33
29.690        20
29.700        47
29.710        20
29.720        67
29.730        27
29.740        47
29.750        47
29.760        40
29.770        27
29.780        27
29.790        47
29.800        80
29.810        40
29.820        20
29.830        60
29.840        27
29.850        73
29.860        33
29.870        27
29.880        73
29.890        53
29.900         7
29.910        40
29.920        33
29.930        53
29.940        53
29.950        33
29.960        13
29.970        40
29.980        53
29.990        47
30.000        67
30.010        93
30.020        40
30.030        67
30.040        40
30.050        67
30.060        40
30.070        53
30.080        40
30.090        47
30.100        60
30.110        87
30.120        53
30.130        67
30.140        73
30.150       100
30.160        60
30.170        47
30.180        47
30.190        33
30.200        67
30.210        73
30.220        60
30.230        60
30.240        27
30.250        87
30.260        47
30.270        93
30.280        67
30.290        47
30.300        80
30.310        47
30.320        27
30.330        53
30.340        87
30.350        60
30.360       100
30.370       107
30.380        80
30.390        40
30.400        40
30.410        73
30.420        67
30.430        87
30.440        47
30.450        40
30.460        53
30.470       113
30.480        47
30.490        80
30.500        80
30.510        73
30.520        93
30.530        53
30.540        60
30.550       120
30.560       113
30.570       107
30.580       127
30.590       100
30.600        73
30.610       113
30.620       127
30.630       147
30.640       133
30.650       153
30.660       140
30.670       160
30.680       187
30.690       253
30.700       180
30.710       253
30.720       333
30.730       327
30.740       460
30.750       580
30.760       533
30.770       726
30.780       660
30.790       986
30.800       980
30.810      1033
30.820      1200
30.830      1473
30.840      1666
30.850      1893
30.860      2466
30.870      2612
30.880      3092
30.890      3725
30.900      4032
30.910      4432
30.920      5045
30.930      5558
30.940      6018
30.950      5858
30.960      6024
30.970      5631
30.980      5971
30.990      5864
31.000      4785
31.010      4591
31.020      3905
31.030      3798
31.040      3279
31.050      3025
31.060      2326
31.070      2046
31.080      1786
31.090      1546
31.100      1273
31.110       920
31.120       680
31.130       526
31.140       426
31.150       460
31.160       333
31.170       333
31.180       240
31.190       173
31.200       160
31.210       247
31.220       180
31.230       147
31.240       173
31.250       140
31.260       127
31.270       107
31.280       147
31.290        87
31.300       133
31.310        87
31.320       127
31.330        80
31.340        60
31.350        87
31.360        87
31.370        93
31.380        73
31.390       113
31.400        80
31.410        93
31.420        67
31.430        60
31.440        60
31.450        80
31.460        67
31.470        60
31.480        87
31.490       120
31.500        60
31.510       107
31.520        40
31.530        60
31.540       113
31.550        60
31.560        67
31.570        67
31.580        53
31.590        47
31.600        80
31.610        80
31.620        53
31.630        67
31.640        67
31.650       100
31.660        87
31.670        27
31.680        67
31.690        40
31.700        73
31.710        73
31.720        33
31.730        53
31.740        80
31.750        80
31.760        73
31.770        60
31.780        67
31.790        60
31.800        47
31.810        73
31.820        53
31.830        53
31.840        40
31.850        27
31.860        60
31.870        20
31.880        87
31.890        80
31.900        40
31.910        73
31.920        20
31.930        47
31.940        47
31.950        60
31.960        87
31.970        47
31.980        47
31.990        73
32.000        27
32.010        47
32.020        40
32.030        33
32.040        33
32.050        60
32.060        33
32.070        27
32.080        67
32.090        60
32.100        47
32.110        27
32.120        40
32.130        33
32.140        53
32.150        40
32.160        73
32.170        67
32.180        20
32.190        27
32.200        27
32.210        40
32.220        47
32.230        20
32.240        60
32.250        60
32.260        53
32.270        27
32.280        53
32.290        53
32.300        47
32.310        27
32.320        67
32.330        47
32.340        40
32.350        73
32.360        67
32.370        33
32.380        80
32.390        40
32.400        40
32.410        33
32.420        40
32.430        47
32.440        53
32.450        33
32.460        47
32.470        60
32.480        13
32.490        47
32.500        47
32.510        33
32.520        33
32.530        53
32.540        27
32.550        47
32.560        40
32.570        67
32.580        33
32.590        40
32.600        27
32.610        27
32.620        40
32.630        40
32.640        33
32.650        60
32.660        20
32.670        47
32.680        13
32.690        53
32.700        47
32.710        40
32.720        27
32.730        40
32.740        40
32.750        47
32.760        87
32.770        40
32.780        60
32.790        40
32.800        47
32.810        13
32.820        40
32.830        27
32.840        40
32.850        33
32.860        40
32.870        20
32.880        60
32.890        33
32.900        40
32.910        40
32.920        20
32.930        33
32.940        47
32.950        73
32.960        13
32.970        27
32.980        53
32.990        33
33.000        27
33.010        40
33.020        27
33.030        47
33.040        53
33.050        20
33.060        47
33.070        33
33.080        13
33.090        67
33.100        53
33.110        27
33.120        13
33.130        27
33.140        40
33.150        27
33.160        27
33.170        40
33.180        47
33.190        47
33.200        60
33.210        73
33.220        40
33.230        27
33.240        47
33.250        60
33.260        40
33.270        53
33.280         7
33.290        27
33.300        33
33.310        40
33.320        27
33.330        13
33.340        27
33.350        47
33.360        33
33.370        27
33.380        47
33.390        27
33.400        27
33.410        47
33.420        40
33.430        27
33.440        27
33.450        20
33.460        40
33.470        33
33.480        33
33.490        47
33.500        53
33.510        40
33.520        27
33.530        60
33.540        33
33.550        47
33.560        27
33.570        40
33.580        33
33.590        13
33.600        40
33.610        27
33.620        33
33.630        33
33.640        27
33.650        13
33.660        47
33.670        20
33.680        20
33.690        13
33.700         7
33.710         7
33.720        13
33.730        53
33.740        47
33.750        20
33.760        40
33.770        47
33.780        27
33.790        47
33.800        40
33.810        13
33.820        20
33.830        33
33.840        40
33.850        13
33.860        20
33.870        20
33.880        33
33.890        13
33.900        53
33.910        40
33.920        47
33.930        40
33.940        40
33.950        13
33.960        53
33.970        47
33.980        73
33.990        20
34.000        40
34.010        33
34.020        47
34.030        47
34.040        33
34.050        33
34.060        27
34.070        27
34.080        73
34.090        33
34.100        33
34.110        27
34.120        20
34.130        20
34.140         7
34.150        47
34.160        67
34.170        27
34.180        53
34.190        27
34.200        27
34.210        47
34.220        20
34.230        33
34.240        27
34.250        40
34.260        20
34.270        67
34.280        47
34.290        20
34.300         7
34.310        27
34.320        20
34.330        27
34.340        33
34.350        20
34.360        67
34.370        20
34.380        27
34.390        13
34.400         7
34.410        20
34.420        27
34.430        27
34.440        27
34.450        47
34.460        40
34.470        13
34.480        40
34.490        20
34.500        20
34.510        27
34.520        47
34.530        13
34.540        13
34.550        47
34.560         7
34.570        40
34.580        27
34.590        33
34.600        67
34.610        27
34.620        33
34.630        27
34.640        40
34.650        13
34.660        33
34.670        53
34.680        40
34.690        27
34.700        13
34.710        20
34.720        33
34.730        13
34.740        27
34.750        33
34.760        13
34.770        27
34.780        27
34.790        53
34.800        33
34.810        13
34.820         0
34.830        20
34.840        47
34.850        20
34.860        40
34.870        40
34.880        40
34.890        27
34.900        13
34.910        33
34.920        13
34.930        33
34.940        27
34.950        20
34.960        33
34.970        53
34.980        40
34.990        13
35.000        67
35.010        33
35.020        33
35.030        13
35.040        53
35.050        67
35.060        53
35.070        27
35.080        60
35.090        53
35.100        60
35.110        33
35.120        33
35.130        40
35.140        27
35.150        53
35.160        60
35.170        47
35.180        67
35.190        60
35.200        53
35.210        47
35.220        67
35.230        73
35.240        20
35.250        40
35.260        40
35.270        60
35.280        33
35.290        33
35.300        40
35.310        33
35.320        27
35.330        13
35.340        20
35.350        20
35.360        20
35.370        33
35.380        20
35.390        20
35.400        27
35.410        33
35.420        47
35.430        47
35.440        27
35.450        13
35.460         7
35.470        33
35.480        40
35.490        20
35.500        20
35.510        27
35.520        13
35.530         7
35.540        40
35.550        27
35.560        20
35.570        20
35.580        27
35.590        27
35.600        27
35.610        40
35.620        27
35.630         0
35.640        33
35.650        20
35.660        20
35.670        47
35.680        13
35.690        33
35.700        33
35.710        27
35.720        40
35.730        27
35.740        20
35.750         7
35.760        13
35.770        33
35.780        27
35.790        27
35.800        20
35.810        27
35.820        20
35.830         7
35.840        13
35.850        20
35.860        20
35.870        47
35.880        20
35.890        20
35.900        27
35.910        27
35.920        13
35.930        33
35.940        13
35.950        13
35.960        27
35.970        33
35.980        47
35.990        53
36.000        20
36.010         7
36.020         7
36.030        20
36.040        33
36.050        27
36.060        27
36.070         0
36.080        40
36.090        33
36.100        33
36.110         7
36.120         0
36.130        27
36.140        33
36.150        40
36.160        53
36.170        60
36.180        20
36.190        40
36.200        33
36.210        33
36.220        40
36.230        13
36.240        47
36.250        13
36.260         7
36.270        33
36.280        33
36.290        20
36.300         7
36.310        13
36.320        33
36.330        13
36.340        27
36.350        13
36.360        40
36.370        33
36.380        27
36.390        13
36.400        33
36.410        47
36.420        33
36.430        33
36.440        33
36.450         7
36.460         7
36.470        20
36.480        27
36.490        13
36.500        40
36.510        13
36.520        20
36.530        13
36.540        40
36.550        53
36.560        20
36.570        20
36.580        33
36.590        33
36.600        47
36.610        20
36.620        20
36.630        47
36.640        33
36.650        60
36.660        27
36.670        33
36.680        27
36.690         7
36.700        27
36.710        40
36.720         7
36.730        53
36.740        13
36.750        60
36.760        33
36.770        13
36.780        13
36.790        33
36.800        27
36.810        33
36.820        13
36.830         7
36.840        40
36.850        40
36.860        27
36.870        40
36.880        40
36.890        80
36.900        20
36.910        40
36.920        40
36.930        47
36.940        27
36.950        33
36.960         7
36.970         7
36.980        20
36.990        20
37.000        20
37.010        13
37.020        33
37.030        13
37.040        13
37.050        40
37.060        27
37.070        40
37.080        47
37.090         7
37.100        13
37.110        47
37.120        40
37.130        20
37.140         7
37.150        33
37.160        27
37.170        20
37.180        13
37.190        27
37.200        33
37.210        27
37.220        20
37.230        20
37.240        20
37.250        27
37.260        33
37.270        13
37.280        27
37.290        27
37.300        40
37.310        27
37.320        33
37.330        27
37.340        40
37.350        27
37.360        27
37.370        27
37.380        40
37.390        27
37.400        13
37.410        40
37.420         7
37.430        47
37.440        33
37.450        20
37.460        33
37.470        13
37.480        27
37.490        20
37.500        13
37.510        20
37.520        47
37.530        47
37.540        13
37.550        47
37.560        13
37.570         7
37.580        27
37.590        20
37.600        40
37.610        53
37.620        20
37.630        20
37.640        40
37.650        27
37.660        40
37.670        33
37.680        20
37.690        47
37.700        27
37.710        60
37.720        53
37.730         7
37.740        53
37.750        47
37.760        67
37.770        40
37.780        20
37.790        47
37.800        33
37.810        33
37.820        53
37.830        27
37.840        40
37.850        27
37.860        47
37.870        33
37.880        20
37.890        40
37.900        13
37.910        40
37.920        27
37.930        33
37.940        40
37.950        20
37.960        33
37.970        47
37.980        67
37.990        33
38.000        40
38.010        20
38.020        60
38.030        40
38.040        33
38.050        33
38.060        47
38.070        33
38.080        20
38.090        13
38.100        53
38.110        20
38.120        27
38.130        40
38.140        47
38.150        60
38.160        73
38.170        27
38.180        47
38.190        27
38.200        73
38.210        53
38.220        47
38.230        27
38.240        87
38.250        60
38.260        53
38.270        27
38.280        67
38.290        40
38.300        60
38.310        47
38.320        47
38.330        27
38.340        33
38.350        27
38.360        33
38.370        40
38.380        20
38.390         7
38.400        53
38.410        20
38.420        60
38.430        27
38.440        20
38.450        47
38.460        20
38.470        33
38.480        40
38.490        27
38.500        27
38.510        47
38.520        67
38.530        33
38.540        27
38.550        33
38.560        27
38.570        20
38.580        47
38.590        33
38.600        67
38.610        27
38.620        20
38.630        80
38.640        47
38.650        27
38.660        40
38.670        40
38.680        40
38.690        33
38.700        67
38.710        40
38.720        53
38.730        33
38.740        27
38.750        20
38.760        27
38.770        27
38.780        20
38.790        40
38.800        20
38.810         7
38.820        60
38.830        40
38.840        27
38.850        27
38.860        33
38.870        40
38.880        13
38.890        27
38.900        20
38.910        33
38.920        47
38.930        40
38.940        53
38.950        13
38.960        27
38.970        27
38.980        33
38.990        33
39.000        40
39.010        27
39.020        13
39.030        20
39.040        40
39.050        33
39.060        27
39.070         7
39.080        53
39.090        40
39.100        13
39.110        27
39.120        40
39.130        13
39.140         7
39.150        27
39.160        47
39.170        33
39.180        20
39.190        33
39.200        20
39.210        33
39.220         7
39.230        20
39.240        33
39.250        27
39.260        20
39.270        13
39.280        33
39.290        27
39.300        13
39.310        33
39.320        33
39.330        20
39.340        33
39.350        13
39.360        53
39.370        20
39.380        33
39.390        27
39.400         7
39.410        20
39.420         7
39.430        13
39.440        33
39.450        20
39.460         7
39.470        27
39.480        13
39.490        20
39.500        13
39.510        33
39.520        53
39.530        40
39.540        40
39.550        20
39.560        13
39.570        27
39.580        20
39.590        13
39.600        33
39.610        20
39.620        20
39.630        20
39.640        20
39.650         0
39.660        40
39.670        13
39.680        33
39.690        20
39.700         0
39.710        27
39.720        20
39.730        53
39.740        47
39.750        20
39.760        27
39.770         7
39.780        47
39.790        20
39.800        13
39.810        27
39.820        20
39.830        13
39.840        40
39.850         7
39.860        20
39.870        33
39.880        33
39.890        40
39.900        13
39.910         7
39.920        20
39.930        40
39.940        33
39.950         0
39.960        13
39.970        13
39.980        13
39.990        27
40.000        13
40.010        40
40.020        13
40.030        20
40.040        20
40.050         7
40.060         0
40.070        40
40.080        13
40.090        13
40.100        20
40.110         7
40.120        27
40.130         0
40.140        13
40.150        27
40.160        53
40.170        33
40.180         7
40.190        27
40.200        13
40.210        27
40.220        13
40.230        13
40.240        33
40.250        40
40.260        40
40.270        20
40.280         7
40.290        20
40.300        27
40.310        20
40.320        27
40.330        33
40.340        20
40.350        13
40.360        27
40.370        47
40.380        20
40.390        13
40.400        20
40.410        40
40.420        13
40.430         7
40.440        13
40.450        27
40.460        20
40.470        13
40.480        47
40.490         7
40.500        40
40.510         7
40.520        20
40.530        13
40.540        33
40.550        20
40.560         7
40.570        13
40.580        47
40.590        20
40.600        13
40.610        20
40.620        20
40.630         7
40.640        53
40.650        20
40.660        20
40.670        20
40.680        13
40.690         7
40.700        13
40.710        33
40.720        20
40.730        27
40.740        20
40.750        13
40.760         7
40.770        20
40.780        20
40.790        20
40.800        27
40.810        20
40.820        20
40.830        33
40.840        40
40.850         7
40.860        13
40.870        13
40.880        27
40.890        20
40.900        27
40.910        13
40.920        13
40.930        33
40.940        20
40.950        27
40.960        13
40.970        13
40.980        27
40.990        20
41.000        13
41.010        13
41.020         7
41.030        13
41.040        33
41.050         7
41.060        13
41.070        27
41.080        20
41.090        33
41.100         7
41.110         7
41.120        13
41.130        27
41.140        27
41.150        13
41.160        20
41.170         7
41.180        13
41.190        13
41.200        47
41.210        33
41.220        47
41.230         7
41.240        40
41.250         0
41.260        33
41.270        13
41.280         7
41.290         0
41.300        13
41.310         7
41.320        13
41.330        20
41.340        20
41.350        13
41.360        33
41.370        13
41.380         0
41.390        13
41.400        27
41.410         7
41.420        40
41.430        13
41.440        20
41.450        27
41.460        13
41.470        27
41.480        20
41.490        33
41.500        20
41.510        27
41.520        40
41.530        20
41.540        53
41.550        20
41.560        20
41.570        40
41.580        20
41.590        20
41.600        33
41.610        33
41.620        33
41.630        47
41.640        33
41.650        40
41.660        53
41.670        53
41.680        87
41.690        87
41.700       113
41.710       107
41.720       113
41.730        87
41.740       133
41.750        67
41.760        67
41.770        40
41.780        40
41.790        33
41.800        93
41.810        93
41.820        80
41.830        40
41.840       153
41.850        47
41.860        33
41.870        13
41.880        33
41.890        27
41.900        33
41.910        13
41.920        27
41.930        20
41.940        20
41.950        13
41.960        13
41.970        20
41.980        33
41.990         7
42.000        13
42.010        33
42.020        20
42.030        20
42.040        40
42.050        20
42.060         7
42.070        20
42.080        20
42.090        13
42.100        13
42.110        13
42.120        20
42.130        20
42.140        20
42.150        13
42.160        20
42.170         7
42.180        13
42.190        20
42.200         0
42.210        13
42.220        27
42.230        27
42.240        13
42.250        13
42.260        20
42.270        27
42.280        13
42.290         0
42.300        20
42.310         7
42.320         0
42.330        40
42.340        20
42.350        13
42.360        13
42.370        13
42.380        13
42.390        27
42.400        40
42.410        20
42.420        20
42.430        40
42.440         7
42.450        27
42.460        13
42.470        67
42.480        27
42.490        13
42.500        20
42.510        13
42.520        20
42.530        27
42.540        27
42.550        13
42.560        27
42.570        27
42.580        20
42.590         0
42.600        40
42.610        27
42.620        13
42.630        27
42.640        20
42.650        27
42.660        40
42.670         0
42.680         7
42.690        47
42.700         7
42.710        27
42.720        20
42.730         7
42.740        20
42.750        20
42.760        20
42.770        13
42.780        33
42.790        40
42.800        27
42.810        13
42.820        13
42.830         7
42.840        20
42.850        13
42.860         7
42.870         7
42.880        13
42.890        20
42.900        20
42.910        67
42.920        13
42.930        27
42.940        33
42.950        27
42.960         7
42.970         7
42.980        33
42.990        20
43.000        40
43.010        27
43.020         7
43.030        13
43.040        13
43.050        33
43.060        27
43.070        20
43.080        40
43.090        27
43.100         7
43.110         7
43.120        27
43.130        33
43.140         7
43.150        27
43.160         0
43.170        20
43.180        13
43.190        27
43.200        27
43.210        20
43.220        27
43.230        13
43.240        27
43.250        13
43.260        33
43.270        47
43.280        20
43.290        33
43.300        33
43.310        20
43.320        73
43.330        80
43.340        67
43.350       133
43.360       140
43.370        53
43.380       107
43.390       140
43.400       160
43.410       133
43.420       100
43.430        53
43.440        80
43.450        93
43.460        53
43.470        60
43.480        67
43.490        87
43.500        67
43.510       100
43.520        60
43.530        73
43.540        67
43.550        13
43.560        20
43.570        40
43.580        33
43.590        47
43.600        27
43.610        13
43.620        27
43.630        13
43.640        27
43.650        27
43.660        33
43.670        47
43.680        40
43.690        33
43.700         0
43.710        13
43.720        47
43.730        13
43.740        20
43.750         0
43.760        40
43.770         7
43.780        27
43.790         7
43.800        33
43.810        13
43.820        20
43.830        13
43.840        20
43.850         0
43.860        27
43.870        27
43.880        27
43.890         7
43.900        13
43.910        33
43.920         0
43.930        33
43.940        13
43.950        33
43.960         7
43.970        33
43.980         7
43.990        27
44.000        27
44.010        40
44.020        20
44.030        33
44.040        33
44.050        13
44.060        27
44.070        53
44.080        20
44.090        13
44.100        20
44.110        20
44.120         0
44.130         7
44.140         7
44.150        33
44.160        47
44.170        20
44.180         7
44.190        13
44.200        13
44.210        27
44.220        27
44.230        13
44.240        27
44.250        20
44.260         0
44.270        13
44.280         7
44.290        20
44.300        27
44.310        20
44.320        13
44.330        33
44.340        27
44.350        33
44.360        20
44.370        33
44.380         7
44.390        33
44.400        13
44.410        40
44.420        13
44.430        27
44.440        20
44.450        27
44.460        53
44.470        33
44.480        20
44.490        27
44.500        33
44.510        33
44.520        27
44.530        20
44.540        33
44.550        47
44.560        13
44.570        33
44.580        33
44.590        20
44.600        13
44.610        33
44.620        27
44.630        40
44.640        20
44.650        13
44.660        13
44.670        33
44.680        20
44.690        27
44.700        20
44.710         0
44.720        27
44.730        33
44.740        13
44.750        33
44.760        13
44.770        20
44.780        27
44.790        13
44.800        13
44.810        33
44.820        33
44.830        27
44.840        33
44.850        27
44.860        27
44.870        13
44.880         7
44.890        27
44.900        27
44.910        20
44.920        67
44.930         0
44.940        27
44.950         7
44.960         0
44.970        13
44.980        20
44.990         7
45.000        13
45.010         7
45.020        13
45.030        13
45.040        47
45.050        27
45.060        13
45.070        13
45.080         7
45.090        33
45.100        47
45.110        20
45.120        13
45.130         7
45.140        47
45.150        27
45.160        20
45.170        20
45.180        20
45.190        20
45.200        20
45.210        33
45.220        33
45.230        27
45.240        13
45.250        20
45.260        27
45.270        13
45.280        13
45.290        20
45.300        33
45.310        13
45.320        33
45.330        33
45.340        33
45.350        13
45.360        13
45.370        40
45.380        27
45.390        27
45.400         7
45.410        27
45.420        20
45.430        33
45.440        47
45.450        13
45.460        13
45.470        20
45.480        13
45.490         7
45.500        33
45.510         0
45.520        27
45.530        13
45.540        13
45.550         7
45.560        20
45.570        27
45.580        33
45.590        13
45.600        33
45.610        13
45.620         0
45.630        20
45.640         0
45.650        20
45.660        13
45.670        13
45.680        20
45.690        13
45.700        13
45.710        13
45.720        33
45.730         7
45.740        20
45.750        13
45.760        20
45.770        33
45.780        27
45.790        27
45.800        13
45.810        27
45.820        20
45.830        13
45.840        13
45.850        40
45.860         7
45.870        20
45.880        20
45.890        13
45.900        40
45.910        13
45.920         0
45.930         7
45.940        33
45.950        20
45.960        13
45.970         7
45.980         7
45.990        20
46.000        20
46.010         0
46.020         0
46.030        20
46.040        20
46.050         7
46.060        27
46.070         7
46.080        13
46.090        20
46.100        13
46.110        33
46.120        33
46.130         7
46.140        27
46.150         0
46.160        33
46.170         7
46.180        13
46.190         7
46.200        27
46.210        27
46.220        13
46.230        13
46.240         0
46.250         0
46.260        13
46.270        20
46.280        13
46.290        27
46.300        13
46.310        13
46.320         0
46.330        20
46.340        27
46.350        13
46.360        33
46.370        20
46.380         7
46.390        27
46.400        20
46.410        13
46.420        27
46.430        13
46.440         0
46.450        13
46.460        20
46.470        27
46.480        27
46.490         7
46.500        27
46.510         7
46.520        13
46.530        13
46.540        20
46.550         0
46.560        33
46.570        13
46.580        27
46.590        13
46.600        20
46.610        20
46.620         0
46.630        13
46.640        13
46.650        13
46.660        27
46.670        13
46.680         0
46.690        13
46.700         7
46.710        33
46.720        13
46.730         7
46.740        13
46.750        20
46.760        27
46.770        20
46.780        20
46.790        13
46.800        27
46.810         0
46.820        13
46.830        27
46.840        20
46.850        33
46.860        27
46.870        13
46.880        20
46.890        33
46.900        20
46.910        47
46.920        40
46.930        27
46.940        27
46.950        13
46.960        13
46.970         0
46.980         0
46.990         7
47.000        13
47.010        20
47.020        13
47.030        27
47.040        13
47.050         7
47.060        47
47.070         0
47.080        13
47.090        13
47.100        13
47.110         0
47.120         7
47.130        20
47.140        20
47.150        27
47.160        13
47.170        13
47.180        13
47.190        27
47.200         0
47.210         0
47.220        20
47.230        27
47.240        20
47.250         0
47.260         0
47.270        13
47.280        20
47.290        20
47.300        20
47.310         7
47.320        13
47.330        13
47.340        33
47.350        13
47.360         7
47.370        13
47.380        20
47.390        13
47.400        27
47.410        20
47.420         7
47.430        27
47.440        20
47.450         7
47.460        33
47.470        27
47.480        20
47.490        20
47.500        13
47.510        13
47.520         7
47.530         7
47.540        13
47.550         0
47.560        20
47.570        27
47.580        33
47.590        13
47.600         0
47.610        20
47.620        20
47.630        13
47.640        13
47.650        20
47.660        27
47.670        13
47.680         0
47.690        20
47.700        27
47.710        13
47.720        27
47.730        20
47.740         7
47.750        20
47.760        13
47.770         7
47.780        20
47.790        20
47.800        20
47.810        20
47.820        20
47.830        13
47.840        20
47.850         0
47.860         0
47.870        13
47.880         7
47.890        20
47.900        20
47.910        27
47.920        13
47.930        13
47.940         7
47.950        27
47.960        47
47.970         7
47.980        20
47.990        20
48.000        33
48.010         7
48.020        27
48.030         7
48.040        27
48.050         0
48.060        40
48.070        20
48.080        33
48.090         7
48.100         0
48.110        13
48.120        27
48.130        13
48.140         7
48.150         7
48.160        33
48.170        20
48.180        20
48.190        13
48.200        13
48.210        20
48.220         7
48.230         7
48.240        27
48.250        40
48.260        27
48.270        47
48.280        20
48.290        20
48.300        20
48.310         7
48.320         7
48.330        20
48.340        33
48.350        40
48.360        27
48.370         7
48.380         7
48.390        33
48.400        20
48.410        20
48.420         7
48.430         7
48.440         7
48.450        33
48.460        20
48.470        20
48.480        20
48.490        13
48.500         0
48.510        13
48.520        27
48.530         7
48.540        40
48.550        33
48.560        27
48.570        20
48.580        20
48.590         7
48.600        27
48.610         0
48.620        20
48.630        20
48.640        27
48.650        13
48.660        13
48.670         0
48.680        13
48.690        53
48.700        27
48.710        27
48.720        33
48.730         7
48.740        13
48.750         7
48.760        13
48.770        13
48.780         0
48.790        20
48.800        33
48.810        20
48.820         7
48.830         0
48.840         7
48.850        13
48.860        13
48.870        13
48.880        27
48.890        27
48.900         7
48.910        20
48.920        33
48.930        13
48.940        13
48.950         7
48.960         7
48.970        13
48.980        20
48.990        13
49.000        40
49.010        13
49.020        13
49.030         7
49.040         0
49.050         7
49.060         7
49.070        13
49.080        13
49.090        20
49.100        13
49.110        27
49.120        13
49.130        27
49.140         0
49.150        27
49.160        13
49.170        13
49.180        33
49.190        20
49.200         7
49.210        13
49.220         7
49.230        13
49.240        20
49.250        33
49.260        20
49.270        13
49.280        20
49.290        13
49.300        27
49.310        40
49.320        33
49.330        13
49.340        13
49.350        20
49.360        20
49.370        20
49.380        13
49.390        40
49.400        20
49.410        33
49.420         7
49.430        20
49.440        27
49.450        20
49.460        33
49.470        20
49.480        20
49.490        13
49.500         0
49.510        13
49.520        33
49.530         0
49.540        27
49.550         0
49.560        27
49.570        13
49.580        33
49.590        13
49.600         7
49.610        13
49.620        27
49.630        27
49.640         7
49.650        20
49.660        13
49.670        13
49.680        20
49.690        27
49.700        20
49.710         7
49.720         7
49.730        27
49.740        33
49.750        27
49.760        20
49.770        40
49.780        20
49.790        20
49.800        20
49.810         0
49.820        27
49.830         7
49.840         7
49.850        27
49.860        20
49.870        13
49.880         0
49.890        13
49.900        20
49.910         0
49.920         7
49.930         7
49.940         7
49.950        20
49.960        27
49.970        13
49.980        20
49.990         7
50.000        33
50.010        13
50.020        27
50.030        20
50.040        47
50.050        20
50.060         7
50.070        20
50.080        13
50.090        33
50.100        33
50.110        27
50.120        27
50.130        13
50.140         7
50.150        27
50.160        27
50.170         7
50.180         7
50.190        40
50.200         7
50.210        33
50.220         7
50.230         7
50.240        20
50.250        20
50.260         7
50.270        20
50.280        13
50.290         0
50.300         7
50.310         7
50.320        13
50.330         7
50.340        40
50.350        27
50.360        27
50.370         0
50.380        20
50.390        20
50.400        13
50.410        20
50.420        20
50.430        13
50.440        13
50.450        33
50.460        13
50.470         7
50.480        27
50.490        13
50.500        27
50.510        13
50.520        20
50.530        27
50.540         0
50.550        13
50.560        20
50.570        20
50.580        27
50.590        20
50.600        13
50.610        13
50.620        13
50.630        20
50.640        27
50.650        13
50.660         7
50.670        13
50.680        13
50.690        20
50.700        20
50.710        27
50.720         0
50.730         7
50.740        20
50.750        27
50.760         7
50.770        13
50.780        13
50.790        13
50.800         7
50.810         7
50.820        13
50.830        13
50.840         0
50.850        27
50.860         0
50.870         7
50.880        13
50.890         7
50.900        13
50.910        20
50.920        13
50.930         7
50.940        13
50.950        20
50.960        13
50.970         7
50.980         7
50.990         7
51.000         7
51.010         7
51.020         0
51.030         7
51.040        27
51.050        27
51.060        13
51.070        20
51.080        40
51.090        20
51.100        20
51.110        13
51.120         7
51.130        27
51.140         7
51.150        20
51.160        27
51.170        13
51.180        13
51.190         7
51.200        27
51.210         0
51.220        13
51.230        40
51.240        13
51.250         7
51.260         7
51.270         7
51.280         0
51.290         0
51.300        13
51.310         7
51.320        13
51.330        27
51.340         7
51.350        27
51.360        13
51.370        20
51.380        33
51.390         0
51.400        40
51.410        13
51.420        27
51.430        27
51.440         7
51.450        20
51.460         7
51.470        20
51.480        27
51.490        13
51.500        13
51.510        20
51.520        13
51.530        27
51.540         0
51.550        47
51.560         0
51.570        20
51.580        13
51.590         7
51.600        27
51.610        13
51.620         7
51.630         7
51.640        13
51.650        27
51.660        13
51.670        33
51.680         7
51.690         7
51.700        13
51.710        13
51.720        13
51.730         7
51.740         0
51.750        13
51.760        20
51.770        33
51.780        20
51.790        20
51.800         7
51.810        13
51.820        20
51.830         7
51.840         7
51.850        20
51.860        20
51.870        13
51.880        13
51.890        20
51.900         0
51.910        20
51.920         7
51.930         7
51.940        20
51.950        13
51.960        40
51.970        20
51.980        20
51.990        20
52.000         7
52.010        13
52.020        13
52.030        20
52.040        20
52.050        20
52.060        27
52.070        13
52.080         7
52.090         7
52.100         0
52.110        20
52.120         0
52.130        20
52.140        13
52.150        20
52.160        20
52.170        13
52.180         0
52.190        27
52.200        13
52.210        20
52.220         7
52.230        20
52.240         0
52.250        20
52.260        13
52.270        27
52.280        20
52.290        13
52.300        13
52.310        33
52.320        27
52.330        13
52.340        13
52.350        40
52.360        13
52.370        40
52.380        20
52.390        13
52.400         7
52.410         0
52.420         7
52.430        13
52.440        27
52.450        20
52.460        27
52.470        40
52.480        27
52.490        20
52.500         0
52.510        33
52.520        20
52.530        13
52.540        27
52.550        33
52.560         7
52.570        13
52.580        13
52.590         0
52.600        20
52.610        20
52.620        27
52.630        53
52.640        20
52.650         7
52.660        13
52.670        13
52.680        27
52.690        27
52.700         7
52.710        13
52.720         7
52.730        20
52.740         7
52.750        20
52.760        33
52.770        40
52.780         7
52.790        27
52.800        20
52.810        13
52.820         7
52.830         7
52.840        53
52.850        27
52.860        33
52.870        13
52.880        20
52.890        33
52.900         7
52.910        27
52.920        27
52.930        13
52.940        20
52.950         7
52.960        13
52.970        33
52.980         7
52.990        13
53.000        13
53.010        20
53.020        27
53.030        27
53.040        13
53.050        27
53.060        40
53.070        20
53.080         7
53.090        20
53.100        13
53.110        33
53.120        40
53.130        13
53.140         7
53.150        20
53.160        20
53.170        27
53.180        13
53.190        13
53.200         7
53.210        27
53.220         7
53.230        13
53.240        20
53.250        13
53.260        13
53.270         0
53.280        13
53.290        13
53.300        27
53.310         0
53.320        13
53.330         7
53.340         7
53.350        20
53.360        13
53.370        13
53.380         7
53.390         7
53.400        40
53.410        20
53.420         0
53.430         7
53.440        20
53.450        20
53.460         7
53.470        20
53.480        27
53.490        27
53.500        20
53.510        13
53.520         7
53.530        27
53.540        13
53.550        20
53.560        20
53.570        27
53.580        20
53.590        20
53.600         7
53.610         7
53.620         7
53.630         7
53.640        20
53.650         7
53.660        27
53.670        27
53.680         7
53.690        20
53.700        27
53.710        13
53.720         7
53.730         0
53.740        40
53.750         7
53.760         0
53.770        20
53.780         7
53.790        20
53.800        33
53.810        20
53.820         7
53.830        13
53.840        13
53.850        27
53.860        13
53.870        13
53.880        13
53.890        13
53.900        20
53.910         7
53.920        33
53.930         7
53.940        33
53.950        33
53.960         7
53.970        13
53.980         0
53.990         7
54.000         7
54.010         0
54.020         7
54.030        33
54.040        20
54.050        27
54.060        13
54.070        33
54.080        20
54.090         7
54.100        20
54.110         0
54.120        13
54.130        13
54.140         7
54.150        20
54.160         7
54.170        13
54.180        20
54.190        27
54.200        13
54.210        13
54.220        13
54.230        13
54.240         7
54.250        40
54.260        13
54.270        27
54.280        13
54.290        40
54.300        13
54.310        13
54.320        27
54.330        33
54.340         7
54.350        13
54.360        40
54.370        20
54.380         7
54.390         0
54.400         0
54.410         7
54.420         7
54.430         0
54.440        27
54.450        20
54.460        13
54.470         7
54.480        33
54.490         7
54.500        27
54.510        20
54.520        40
54.530        33
54.540        13
54.550        20
54.560        13
54.570        13
54.580        20
54.590        40
54.600        27
54.610        13
54.620        33
54.630        27
54.640        33
54.650         7
54.660        33
54.670        27
54.680         7
54.690         0
54.700        13
54.710        33
54.720        13
54.730        20
54.740        13
54.750        13
54.760        27
54.770        33
54.780        13
54.790        20
54.800        27
54.810        33
54.820        33
54.830        27
54.840        13
54.850         7
54.860         0
54.870        60
54.880        13
54.890        47
54.900        33
54.910        27
54.920        27
54.930         7
54.940        33
54.950        33
54.960        20
54.970        47
54.980        73
54.990        73
55.000        40
55.010        60
55.020        80
55.030        93
55.040        67
55.050        67
55.060        87
55.070        73
55.080        67
55.090        87
55.100        53
55.110        27
55.120        67
55.130       107
55.140       100
55.150        80
55.160       113
55.170        93
55.180       167
55.190        87
55.200       113
55.210        40
55.220        67
55.230        67
55.240        53
55.250        80
55.260        67
55.270        67
55.280        40
55.290        27
55.300        53
55.310        67
55.320        53
55.330        80
55.340        33
55.350        53
55.360        20
55.370        27
55.380        53
55.390        33
55.400        27
55.410        47
55.420        20
55.430         0
55.440        40
55.450        20
55.460        13
55.470        13
55.480        27
55.490        13
55.500        20
55.510         7
55.520        20
55.530        40
55.540        20
55.550        33
55.560        13
55.570        27
55.580        13
55.590         7
55.600         0
55.610        20
55.620        27
55.630        27
55.640        13
55.650        27
55.660        20
55.670        20
55.680        13
55.690         7
55.700         0
55.710        27
55.720        27
55.730         7
55.740        33
55.750         7
55.760        13
55.770        47
55.780         0
55.790        27
55.800        20
55.810        13
55.820        13
55.830        27
55.840        33
55.850        20
55.860         7
55.870        27
55.880        27
55.890        13
55.900        13
55.910        20
55.920        33
55.930        27
55.940        33
55.950        27
55.960         7
55.970        13
55.980         7
55.990        27
56.000        20
56.010        13
56.020        33
56.030        20
56.040        13
56.050        13
56.060         0
56.070         7
56.080        13
56.090        20
56.100         0
56.110        13
56.120        13
56.130        20
56.140        13
56.150        20
56.160         7
56.170        33
56.180         7
56.190        13
56.200        13
56.210         7
56.220        27
56.230         0
56.240        27
56.250        27
56.260        13
56.270         7
56.280         7
56.290         7
56.300        20
56.310        13
56.320        47
56.330        20
56.340        13
56.350         0
56.360        13
56.370         0
56.380         7
56.390        27
56.400        27
56.410         7
56.420         0
56.430        13
56.440        20
56.450         7
56.460        13
56.470        33
56.480        13
56.490        13
56.500        20
56.510         7
56.520        20
56.530         0
56.540        40
56.550         7
56.560         7
56.570        27
56.580        20
56.590         7
56.600         7
56.610        13
56.620        13
56.630         7
56.640         7
56.650        20
56.660         7
56.670         0
56.680        20
56.690        27
56.700        27
56.710         7
56.720        13
56.730        33
56.740        13
56.750        27
56.760         7
56.770        13
56.780        33
56.790        33
56.800        27
56.810        20
56.820        20
56.830        13
56.840        13
56.850        13
56.860        20
56.870         7
56.880        13
56.890         7
56.900        20
56.910         7
56.920         0
56.930        13
56.940         7
56.950        13
56.960        13
56.970        20
56.980        20
56.990         0
57.000        13
57.010        20
57.020        13
57.030        27
57.040        13
57.050        20
57.060        27
57.070        20
57.080         7
57.090        20
57.100        20
57.110        20
57.120         0
57.130         7
57.140        27
57.150        13
57.160        33
57.170        13
57.180        13
57.190         7
57.200        20
57.210        33
57.220        27
57.230        20
57.240         7
57.250        13
57.260        27
57.270        20
57.280        13
57.290        27
57.300        13
57.310        33
57.320        13
57.330         7
57.340        40
57.350        20
57.360        13
57.370        27
57.380        20
57.390        47
57.400        27
57.410        40
57.420        27
57.430        13
57.440        33
57.450        53
57.460        73
57.470        93
57.480       173
57.490       200
57.500       233
57.510       260
57.520       267
57.530       207
57.540       187
57.550       233
57.560       227
57.570        47
57.580        87
57.590        33
57.600        60
57.610        60
57.620        73
57.630        60
57.640        60
57.650        93
57.660       100
57.670        87
57.680       193
57.690       200
57.700       167
57.710       173
57.720        73
57.730        80
57.740        33
57.750        40
57.760        40
57.770        47
57.780         7
57.790        13
57.800        20
57.810        20
57.820        13
57.830        13
57.840        13
57.850        33
57.860         7
57.870        20
57.880        20
57.890        13
57.900        20
57.910        13
57.920         7
57.930        13
57.940        13
57.950        13
57.960        33
57.970        33
57.980        13
57.990        13
58.000         0
58.010        13
58.020        13
58.030         0
58.040        13
58.050        27
58.060         7
58.070         7
58.080        20
58.090        13
58.100         7
58.110        20
58.120        33
58.130         7
58.140        33
58.150        33
58.160        13
58.170         7
58.180         7
58.190        20
58.200        27
58.210         7
58.220         0
58.230         0
58.240         7
58.250         7
58.260        13
58.270         7
58.280        13
58.290        13
58.300        20
58.310         0
58.320        13
58.330        20
58.340        33
58.350         0
58.360         7
58.370         7
58.380        13
58.390         0
58.400        20
58.410        27
58.420         7
58.430        13
58.440         7
58.450        27
58.460         0
58.470        20
58.480        27
58.490        40
58.500         0
58.510        13
58.520         0
58.530        20
58.540        13
58.550        33
58.560        20
58.570        20
58.580        20
58.590        13
58.600         7
58.610        33
58.620        27
58.630         7
58.640        13
58.650        13
58.660        27
58.670        13
58.680         7
58.690        27
58.700         0
58.710         0
58.720         7
58.730        13
58.740        13
58.750        13
58.760         0
58.770        13
58.780        27
58.790         0
58.800         7
58.810        13
58.820        27
58.830        13
58.840         7
58.850         0
58.860         0
58.870         0
58.880         7
58.890        13
58.900        13
58.910        20
58.920         0
58.930        13
58.940        27
58.950         0
58.960        20
58.970        27
58.980         7
58.990        13
59.000         0
59.010         0
59.020        13
59.030        20
59.040         7
59.050         7
59.060        13
59.070         0
59.080         0
59.090        13
59.100         0
59.110         7
59.120         7
59.130         7
59.140        13
59.150         7
59.160        13
59.170         7
59.180         0
59.190         7
59.200         7
59.210        27
59.220         7
59.230        13
59.240        20
59.250         7
59.260        27
59.270        20
59.280        13
59.290         7
59.300        20
59.310        13
59.320        13
59.330        20
59.340         0
59.350         7
59.360         7
59.370        13
59.380         0
59.390         7
59.400        20
59.410         7
59.420         0
59.430        20
59.440         7
59.450         0
59.460        27
59.470        20
59.480         7
59.490        27
59.500         7
59.510        27
59.520         0
59.530        27
59.540        13
59.550        27
59.560        20
59.570        20
59.580         7
59.590        40
59.600        13
59.610        13
59.620        20
59.630        33
59.640        13
59.650         0
59.660         7
59.670        13
59.680        33
59.690         0
59.700         7
59.710         7
59.720        27
59.730        20
59.740         7
59.750        13
59.760         0
59.770         7
59.780        13
59.790        53
59.800        27
59.810        20
59.820         7
59.830        13
59.840        13
59.850         7
59.860         0
59.870         7
59.880        20
59.890        20
59.900        20
59.910         0
59.920        13
59.930         7
59.940         0
59.950         7
59.960         0
59.970        13
59.980         0
59.990         7
60.000         0
