20.000        73
20.010        73
20.020        53
20.030        13
20.040        47
20.050        67
20.060        47
20.070        53
20.080        20
20.090        60
20.100        20
20.110        53
20.120        40
20.130        33
20.140        47
20.150        27
20.160        60
20.170        13
20.180        53
20.190        53
20.200        60
20.210        40
20.220        40
20.230        33
20.240        53
20.250        87
20.260        40
20.270        67
20.280        33
20.290        60
20.300        40
20.310        33
20.320        53
20.330        40
20.340        40
20.350        67
20.360        60
20.370        20
20.380        67
20.390        67
20.400        27
20.410        47
20.420        60
20.430        53
20.440        80
20.450        47
20.460        27
20.470        47
20.480        33
20.490         7
20.500        87
20.510        20
20.520        40
20.530        33
20.540        33
20.550        20
20.560        40
20.570        73
20.580        33
20.590        33
20.600        60
20.610        40
20.620        33
20.630        33
20.640        80
20.650        33
20.660        40
20.670        53
20.680        13
20.690        67
20.700        27
20.710        53
20.720        27
20.730        33
20.740        33
20.750        33
20.760        67
20.770        40
20.780        40
20.790        33
20.800        20
20.810        40
20.820        47
20.830        40
20.840        47
20.850        40
20.860        73
20.870        53
20.880        53
20.890        47
20.900        20
20.910        33
20.920        13
20.930        33
20.940        33
20.950        60
20.960        40
20.970        53
20.980        27
20.990        27
21.000        33
21.010        40
21.020        87
21.030        53
21.040        33
21.050       147
21.060        13
21.070        33
21.080        87
21.090        13
21.100        60
21.110        40
21.120        33
21.130        27
21.140        40
21.150        40
21.160        40
21.170        33
21.180        33
21.190        13
21.200        27
21.210        73
21.220        40
21.230        33
21.240        53
21.250        40
21.260        13
21.270        33
21.280        40
21.290        60
21.300        20
21.310        27
21.320        47
21.330         7
21.340        40
21.350        53
21.360        27
21.370        40
21.380        27
21.390        40
21.400        53
21.410        40
21.420        60
21.430        47
21.440        40
21.450        40
21.460        47
21.470        67
21.480        20
21.490        40
21.500        33
21.510        53
21.520        40
21.530        27
21.540        80
21.550        33
21.560        27
21.570        40
21.580        53
21.590        80
21.600        53
21.610        47
21.620        73
21.630        33
21.640        53
21.650        67
21.660        33
21.670        47
21.680        47
21.690        27
21.700        53
21.710        40
21.720        47
21.730        47
21.740        13
21.750        47
21.760        40
21.770        40
21.780        60
21.790        33
21.800        40
21.810        27
21.820        33
21.830        47
21.840        60
21.850        47
21.860         7
21.870        20
21.880        53
21.890        27
21.900        33
21.910        40
21.920        67
21.930        47
21.940        53
21.950         0
21.960        73
21.970        67
21.980        47
21.990        27
22.000        47
22.010        20
22.020        67
22.030        40
22.040        13
22.050        47
22.060        33
22.070        60
22.080        33
22.090        40
22.100        60
22.110        13
22.120        27
22.130        53
22.140        53
22.150        47
22.160        47
22.170         7
22.180        40
22.190        20
22.200        33
22.210        20
22.220        87
22.230        67
22.240        47
22.250        20
22.260        53
22.270        20
22.280        20
22.290        27
22.300        47
22.310        40
22.320         7
22.330        40
22.340        47
22.350        47
22.360        60
22.370        33
22.380        33
22.390        33
22.400        33
22.410        27
22.420        27
22.430        27
22.440        73
22.450        33
22.460        33
22.470        53
22.480        33
22.490        33
22.500        33
22.510        53
22.520        33
22.530        13
22.540        53
22.550        40
22.560        33
22.570        33
22.580        53
22.590        20
22.600        53
22.610        40
22.620        13
22.630        47
22.640        33
22.650        33
22.660        53
22.670        60
22.680        20
22.690        47
22.700        47
22.710        60
22.720        13
22.730        40
22.740        40
22.750        33
22.760        20
22.770        40
22.780        33
22.790        13
22.800        13
22.810        33
22.820        20
22.830        20
22.840        40
22.850        40
22.860        47
22.870        20
22.880        60
22.890        13
22.900        27
22.910        20
22.920        60
22.930        40
22.940        27
22.950        33
22.960        13
22.970        20
22.980        33
22.990        13
23.000         7
23.010        53
23.020        33
23.030        20
23.040        33
23.050        27
23.060        27
23.070        33
23.080        20
23.090        27
23.100        27
23.110        80
23.120        33
23.130        27
23.140        53
23.150        27
23.160        33
23.170        67
23.180        40
23.190        33
23.200        27
23.210        33
23.220        20
23.230        20
23.240        33
23.250        27
23.260        33
23.270        33
23.280        47
23.290        13
23.300        40
23.310        40
23.320        33
23.330        33
23.340        53
23.350        47
23.360        40
23.370        33
23.380        33
23.390        33
23.400        27
23.410         7
23.420        27
23.430        40
23.440        33
23.450        53
23.460        53
23.470        60
23.480        47
23.490        60
23.500        53
23.510        33
23.520        40
23.530        27
23.540        20
23.550        27
23.560        27
23.570        47
23.580        33
23.590        20
23.600        40
23.610        60
23.620        33
23.630        53
23.640        47
23.650        27
23.660        20
23.670        33
23.680        27
23.690        40
23.700        27
23.710        60
23.720        27
23.730        53
23.740        40
23.750        40
23.760        40
23.770        20
23.780        47
23.790        53
23.800        40
23.810        47
23.820        20
23.830        33
23.840        27
23.850        40
23.860        27
23.870        13
23.880        33
23.890        27
23.900        20
23.910        20
23.920        20
23.930        20
23.940        33
23.950        40
23.960        13
23.970        27
23.980        47
23.990        33
24.000        53
24.010        20
24.020        27
24.030        47
24.040        27
24.050        13
24.060        33
24.070        20
24.080        40
24.090        27
24.100        27
24.110        33
24.120        20
24.130        27
24.140        40
24.150        27
24.160         7
24.170        20
24.180        27
24.190        60
24.200        13
24.210        33
24.220        33
24.230        40
24.240        40
24.250        27
24.260        20
24.270        20
24.280        73
24.290        20
24.300        47
24.310        20
24.320        53
24.330        40
24.340        33
24.350        47
24.360        40
24.370        13
24.380        27
24.390        20
24.400        33
24.410        40
24.420        33
24.430        20
24.440        40
24.450        27
24.460        47
24.470        27
24.480        80
24.490        13
24.500        40
24.510        27
24.520        27
24.530        60
24.540        33
24.550        13
24.560        13
24.570        47
24.580        60
24.590        20
24.600        40
24.610        33
24.620        20
24.630        67
24.640        53
24.650        20
24.660        20
24.670        13
24.680        20
24.690         7
24.700        20
24.710        33
24.720        40
24.730        40
24.740        47
24.750        33
24.760        27
24.770        47
24.780        33
24.790        20
24.800        33
24.810        47
24.820        33
24.830        13
24.840        40
24.850        13
24.860        27
24.870        27
24.880        27
24.890        13
24.900        27
24.910        33
24.920        33
24.930        27
24.940        20
24.950        27
24.960        27
24.970        33
24.980        47
24.990        13
25.000        13
25.010        47
25.020        13
25.030        20
25.040        13
25.050        20
25.060        40
25.070        33
25.080        33
25.090        13
25.100        20
25.110        67
25.120        27
25.130        60
25.140        47
25.150        20
25.160        60
25.170        27
25.180        27
25.190        33
25.200        33
25.210        40
25.220        27
25.230        27
25.240        40
25.250        53
25.260        27
25.270        20
25.280        27
25.290        27
25.300        53
25.310        40
25.320         7
25.330        20
25.340        33
25.350        47
25.360        20
25.370        33
25.380        40
25.390        13
25.400        40
25.410        40
25.420         7
25.430        53
25.440        27
25.450         7
25.460        73
25.470        20
25.480        47
25.490        53
25.500        47
25.510        40
25.520        27
25.530        47
25.540        53
25.550        27
25.560        40
25.570         7
25.580        20
25.590        47
25.600        20
25.610        20
25.620        60
25.630        13
25.640        27
25.650        33
25.660        13
25.670        27
25.680        13
25.690         7
25.700        20
25.710        20
25.720        13
25.730        27
25.740        47
25.750         7
25.760        27
25.770        47
25.780        27
25.790         7
25.800        20
25.810        27
25.820        60
25.830        33
25.840        13
25.850        27
25.860        20
25.870        47
25.880        33
25.890        40
25.900         0
25.910        33
25.920        20
25.930        33
25.940        40
25.950        33
25.960        33
25.970        13
25.980        53
25.990        27
26.000        20
26.010        33
26.020        53
26.030        27
26.040         7
26.050        27
26.060        27
26.070        33
26.080         7
26.090        27
26.100        40
26.110        40
26.120        27
26.130        33
26.140        20
26.150        20
26.160        53
26.170         7
26.180        20
26.190        20
26.200        13
26.210         7
26.220        27
26.230        27
26.240        20
26.250        33
26.260        53
26.270        33
26.280         7
26.290        47
26.300        27
26.310        40
26.320        67
26.330        20
26.340        40
26.350        33
26.360        73
26.370        40
26.380        27
26.390        27
26.400        13
26.410        27
26.420        20
26.430        33
26.440         7
26.450        27
26.460        20
26.470        47
26.480        40
26.490        33
26.500        20
26.510        33
26.520        20
26.530        20
26.540        53
26.550        27
26.560        27
26.570        27
26.580        27
26.590        20
26.600         7
26.610        27
26.620        40
26.630        40
26.640        40
26.650        33
26.660        27
26.670        20
26.680        20
26.690        40
26.700        13
26.710        20
26.720         0
26.730        47
26.740        27
26.750        40
26.760        20
26.770        20
26.780        20
26.790        13
26.800        20
26.810        27
26.820        20
26.830        47
26.840        13
26.850        13
26.860        13
26.870        53
26.880        40
26.890        27
26.900        20
26.910        40
26.920        33
26.930        20
26.940        27
26.950        60
26.960        47
26.970        20
26.980        40
26.990        53
27.000        13
27.010        27
27.020        27
27.030        60
27.040        40
27.050        60
27.060        13
27.070        53
27.080        33
27.090        27
27.100        27
27.110        20
27.120        20
27.130        27
27.140        27
27.150        40
27.160        33
27.170        33
27.180        40
27.190        33
27.200        20
27.210        40
27.220        40
27.230        27
27.240        73
27.250        27
27.260        33
27.270        27
27.280        53
27.290        47
27.300        33
27.310        40
27.320        27
27.330        33
27.340        33
27.350         7
27.360        20
27.370        33
27.380        27
27.390        27
27.400        20
27.410        53
27.420        20
27.430        27
27.440        33
27.450        53
27.460        20
27.470        40
27.480        33
27.490        40
27.500        20
27.510        13
27.520        20
27.530        13
27.540        27
27.550        27
27.560        33
27.570        33
27.580        27
27.590        47
27.600        33
27.610        53
27.620         7
27.630        33
27.640         0
27.650        20
27.660        40
27.670        27
27.680        33
27.690        13
27.700        27
27.710        20
27.720        13
27.730        60
27.740        33
27.750        53
27.760        47
27.770        20
27.780        20
27.790        67
27.800        33
27.810        67
27.820        80
27.830        47
27.840        53
27.850        93
27.860        53
27.870        47
27.880        67
27.890        73
27.900        67
27.910        87
27.920        80
27.930       113
27.940        13
27.950        33
27.960        47
27.970        40
27.980        40
27.990        47
28.000        27
28.010        60
28.020        20
28.030        13
28.040        20
28.050        40
28.060        40
28.070        20
28.080        20
28.090        20
28.100        67
28.110        13
28.120        40
28.130        27
28.140        33
28.150        20
28.160        53
28.170        33
28.180        20
28.190        47
28.200        47
28.210        20
28.220        13
28.230        53
28.240        27
28.250        13
28.260        27
28.270        20
28.280        13
28.290        33
28.300        13
28.310        40
28.320        27
28.330        27
28.340        40
28.350        33
28.360        40
28.370        27
28.380        20
28.390        20
28.400        27
28.410        20
28.420        27
28.430        27
28.440        27
28.450        47
28.460        27
28.470        33
28.480        20
28.490        20
28.500        33
28.510        40
28.520        27
28.530        47
28.540        20
28.550        67
28.560        33
28.570        20
28.580        40
28.590        47
28.600        27
28.610        33
28.620        27
28.630        40
28.640        33
28.650        27
28.660        13
28.670        40
28.680        33
28.690        20
28.700        40
28.710        53
28.720        20
28.730        47
28.740        67
28.750        40
28.760        20
28.770        13
28.780        20
28.790        27
28.800        53
28.810         7
28.820        33
28.830        27
28.840         7
28.850        27
28.860         7
28.870        60
28.880        20
28.890        60
28.900        47
28.910        40
28.920        27
28.930        27
28.940        40
28.950        47
28.960        47
28.970        40
28.980        13
28.990        33
29.000        20
29.010        53
29.020        27
29.030        40
29.040        20
29.050        40
29.060        20
29.070         7
29.080        20
29.090        33
29.100        33
29.110         7
29.120        13
29.130        20
29.140         7
29.150        33
29.160        13
29.170        20
29.180        20
29.190        27
29.200        33
29.210        40
29.220        20
29.230        33
29.240        13
29.250        33
29.260        27
29.270        20
29.280        20
29.290        13
29.300        33
29.310        47
29.320        40
29.330        33
29.340        20
29.350        33
29.360        53
29.370        33
29.380        33
29.390        20
29.400         0
29.410        13
29.420        33
29.430        33
29.440        47
29.450         7
29.460        33
29.470        13
29.480        67
29.490        40
29.500        33
29.510        27
29.520        60
29.530        13
29.540        47
29.550        33
29.560        40
29.570        20
29.580        60
29.590        13
29.600        33
29.610         7
29.620        33
29.630         7
29.640        47
29.650        53
29.660        53
29.670        40
29.680        53
29.690        33
29.700        27
29.710        47
29.720        47
29.730        47
29.740         0
29.750        67
29.760        27
29.770        67
29.780        33
29.790        67
29.800        33
29.810        40
29.820        67
29.830        33
29.840        67
29.850        40
29.860        47
29.870        60
29.880        13
29.890        80
29.900        47
29.910        67
29.920        47
29.930        87
29.940        80
29.950        53
29.960        80
29.970        80
29.980        73
29.990        53
30.000        20
30.010        33
30.020       127
30.030        73
30.040        53
30.050        20
30.060        80
30.070        87
30.080        60
30.090        60
30.100        73
30.110        53
30.120        60
30.130        67
30.140        60
30.150        53
30.160        87
30.170        47
30.180        47
30.190        67
30.200        33
30.210        47
30.220        67
30.230        40
30.240        40
30.250        67
30.260        60
30.270        80
30.280        73
30.290        27
30.300        53
30.310        60
30.320        93
30.330        40
30.340        87
30.350        47
30.360        47
30.370        53
30.380        73
30.390        73
30.400        87
30.410        67
30.420        60
30.430        60
30.440        53
30.450       107
30.460        47
30.470       113
30.480        80
30.490        67
30.500        87
30.510        87
30.520        80
30.530        80
30.540       113
30.550        80
30.560        93
30.570       127
30.580       193
30.590       113
30.600       153
30.610       160
30.620        80
30.630       153
30.640       180
30.650       213
30.660       193
30.670       240
30.680       300
30.690       327
30.700       407
30.710       393
30.720       480
30.730       500
30.740       553
30.750       686
30.760       593
30.770       693
30.780       993
30.790      1133
30.800      1166
30.810      1539
30.820      1413
30.830      1779
30.840      1973
30.850      2306
30.860      2686
30.870      3165
30.880      3599
30.890      4518
30.900      4985
30.910      5345
30.920      6271
30.930      6744
30.940      6964
30.950      7377
30.960      7804
30.970      7610
30.980      7264
30.990      6804
31.000      6337
31.010      5638
31.020      5478
31.030      4618
31.040      4432
31.050      3599
31.060      3219
31.070      2899
31.080      2332
31.090      1899
31.100      1459
31.110      1080
31.120       993
31.130       860
31.140       593
31.150       473
31.160       620
31.170       380
31.180       320
31.190       253
31.200       227
31.210       227
31.220       207
31.230       173
31.240       213
31.250       140
31.260       173
31.270       127
31.280       127
31.290       107
31.300       120
31.310       167
31.320        93
31.330       120
31.340       107
31.350       140
31.360        60
31.370       133
31.380       100
31.390       113
31.400        67
31.410        53
31.420        60
31.430       100
31.440        87
31.450        53
31.460        53
31.470       113
31.480        87
31.490        73
31.500        27
31.510       100
31.520        67
31.530        60
31.540        67
31.550        33
31.560        93
31.570        80
31.580        67
31.590        47
31.600        40
31.610        33
31.620        47
31.630        53
31.640        93
31.650        93
31.660        53
31.670        73
31.680        53
31.690        80
31.700       100
31.710        80
31.720        53
31.730        33
31.740        20
31.750        73
31.760        80
31.770        80
31.780        47
31.790        87
31.800        80
31.810        53
31.820        40
31.830        53
31.840        47
31.850        73
31.860        60
31.870        53
31.880        33
31.890        40
31.900        93
31.910        40
31.920        40
31.930        40
31.940        47
31.950        60
31.960        67
31.970        47
31.980        47
31.990        73
32.000        47
32.010        47
32.020        40
32.030        40
32.040        47
32.050        60
32.060        47
32.070        13
32.080        40
32.090        67
32.100        33
32.110        60
32.120        60
32.130        27
32.140        60
32.150        33
32.160        13
32.170        60
32.180        47
32.190        80
32.200        47
32.210        53
32.220        60
32.230        33
32.240        53
32.250        40
32.260        67
32.270        40
32.280        47
32.290        40
32.300        33
32.310        53
32.320        67
32.330        40
32.340        27
32.350        67
32.360        33
32.370        40
32.380        33
32.390        53
32.400        40
32.410        53
32.420        33
32.430        73
32.440        40
32.450        47
32.460        60
32.470        33
32.480        33
32.490        20
32.500        67
32.510        67
32.520         7
32.530        53
32.540        20
32.550        67
32.560        40
32.570        60
32.580        53
32.590        40
32.600        67
32.610        40
32.620        20
32.630        33
32.640        40
32.650        60
32.660        27
32.670        27
32.680        47
32.690        13
32.700        27
32.710        80
32.720        47
32.730        80
32.740        67
32.750        67
32.760        47
32.770        20
32.780        60
32.790        40
32.800        60
32.810        60
32.820        47
32.830        47
32.840        47
32.850        53
32.860        47
32.870        27
32.880        33
32.890        87
32.900        67
32.910        40
32.920        27
32.930        33
32.940        13
32.950        20
32.960        40
32.970        40
32.980        27
32.990        40
33.000        67
33.010        47
33.020        13
33.030        20
33.040        67
33.050        27
33.060        20
33.070        53
33.080        27
33.090        33
33.100        67
33.110        33
33.120        20
33.130        47
33.140        47
33.150        33
33.160        27
33.170        20
33.180        53
33.190        47
33.200        33
33.210        53
33.220        27
33.230        13
33.240        33
33.250        20
33.260        33
33.270        67
33.280        27
33.290        60
33.300        20
33.310        80
33.320        27
33.330        20
33.340        20
33.350        40
33.360        20
33.370        27
33.380        27
33.390        20
33.400        33
33.410        20
33.420        27
33.430        53
33.440        60
33.450        47
33.460        53
33.470        53
33.480        27
33.490        20
33.500        27
33.510        27
33.520        27
33.530        20
33.540        67
33.550        20
33.560        20
33.570        53
33.580        67
33.590        40
33.600        20
33.610        20
33.620         7
33.630        53
33.640        40
33.650        53
33.660         7
33.670        13
33.680        47
33.690        20
33.700        40
33.710        20
33.720         7
33.730        47
33.740        33
33.750        53
33.760        40
33.770        33
33.780        40
33.790        40
33.800        20
33.810        40
33.820        20
33.830        40
33.840        33
33.850        13
33.860        20
33.870        27
33.880        27
33.890        40
33.900        47
33.910        13
33.920        40
33.930        20
33.940        47
33.950        47
33.960        33
33.970        13
33.980        13
33.990        47
34.000         7
34.010        20
34.020        67
34.030        27
34.040         7
34.050        27
34.060        27
34.070        27
34.080        33
34.090        33
34.100        27
34.110        33
34.120        27
34.130        40
34.140        60
34.150        20
34.160        27
34.170        20
34.180        47
34.190        27
34.200        53
34.210        33
34.220        53
34.230        27
34.240        40
34.250        40
34.260        33
34.270        13
34.280        27
34.290        13
34.300        27
34.310        33
34.320        13
34.330         7
34.340        67
34.350        47
34.360        33
34.370        13
34.380        27
34.390        47
34.400        47
34.410        47
34.420        27
34.430        27
34.440        47
34.450        60
34.460        33
34.470        47
34.480        20
34.490        33
34.500        53
34.510        67
34.520        33
34.530        13
34.540        20
34.550        20
34.560        60
34.570        20
34.580        33
34.590        47
34.600        13
34.610        53
34.620        13
34.630        13
34.640        27
34.650        33
34.660        40
34.670        20
34.680        27
34.690        33
34.700        20
34.710        27
34.720        13
34.730        33
34.740        27
34.750        40
34.760        33
34.770        40
34.780        60
34.790        40
34.800        27
34.810        33
34.820        40
34.830        40
34.840        40
34.850        33
34.860        60
34.870        47
34.880        27
34.890        47
34.900        33
34.910        13
34.920        40
34.930        33
34.940        40
34.950        33
34.960        33
34.970        40
34.980        20
34.990        47
35.000        40
35.010        13
35.020        47
35.030        67
35.040        47
35.050        27
35.060        20
35.070        20
35.080        33
35.090        60
35.100        60
35.110        53
35.120        53
35.130        33
35.140        40
35.150        93
35.160        73
35.170        87
35.180        53
35.190       100
35.200        87
35.210        47
35.220        87
35.230        53
35.240        47
35.250        87
35.260        40
35.270        60
35.280        60
35.290        47
35.300        13
35.310        33
35.320        27
35.330        33
35.340        60
35.350        13
35.360        20
35.370        27
35.380        13
35.390        13
35.400        40
35.410        13
35.420        33
35.430        27
35.440        53
35.450        13
35.460        33
35.470        13
35.480        27
35.490        53
35.500        67
35.510        93
35.520        27
35.530        20
35.540        33
35.550        33
35.560        27
35.570        33
35.580        40
35.590        33
35.600        47
35.610         0
35.620        47
35.630        20
35.640        33
35.650        47
35.660         7
35.670        27
35.680        40
35.690        53
35.700        20
35.710        13
35.720        47
35.730        27
35.740        13
35.750         7
35.760        13
35.770        40
35.780        40
35.790        20
35.800        27
35.810        20
35.820        40
35.830        33
35.840        47
35.850        60
35.860        27
35.870        47
35.880        33
35.890        47
35.900        33
35.910        20
35.920        33
35.930        20
35.940        27
35.950        33
35.960        53
35.970        47
35.980         7
35.990        13
36.000        13
36.010        20
36.020        33
36.030        27
36.040        33
36.050        33
36.060        40
36.070        40
36.080        33
36.090         7
36.100        40
36.110        40
36.120        33
36.130        13
36.140        20
36.150        20
36.160        13
36.170        27
36.180        47
36.190        33
36.200        47
36.210        40
36.220        33
36.230        47
36.240        47
36.250         7
36.260        20
36.270        20
36.280        67
36.290        67
36.300        27
36.310        27
36.320        13
36.330         7
36.340        27
36.350        40
36.360        27
36.370        20
36.380         0
36.390        47
36.400        13
36.410        27
36.420        27
36.430        13
36.440        27
36.450        20
36.460        13
36.470        40
36.480        20
36.490        20
36.500        27
36.510        13
36.520        20
36.530        53
36.540        33
36.550        33
36.560        60
36.570        20
36.580        40
36.590        33
36.600        13
36.610         7
36.620        27
36.630        27
36.640        60
36.650        33
36.660         7
36.670        27
36.680        33
36.690        13
36.700        13
36.710        13
36.720        13
36.730        33
36.740        13
36.750        27
36.760        27
36.770        13
36.780        13
36.790        27
36.800        33
36.810        33
36.820        20
36.830        20
36.840        13
36.850        20
36.860        27
36.870        33
36.880        13
36.890        27
36.900        13
36.910        40
36.920        27
36.930        27
36.940        33
36.950        33
36.960        27
36.970        20
36.980        20
36.990        13
37.000        20
37.010         7
37.020        20
37.030        33
37.040        33
37.050        13
37.060        40
37.070        33
37.080        33
37.090         7
37.100         7
37.110        40
37.120        33
37.130        27
37.140        33
37.150        27
37.160         0
37.170        20
37.180        40
37.190         7
37.200        33
37.210         7
37.220        20
37.230        20
37.240        33
37.250        47
37.260         7
37.270        27
37.280        53
37.290        33
37.300        20
37.310        20
37.320        40
37.330        33
37.340        40
37.350        33
37.360        27
37.370        60
37.380        20
37.390        40
37.400         0
37.410        27
37.420        13
37.430        40
37.440        27
37.450        27
37.460        33
37.470        33
37.480        33
37.490         7
37.500        13
37.510        53
37.520        33
37.530        13
37.540        27
37.550         7
37.560        47
37.570        33
37.580        33
37.590        13
37.600        20
37.610        33
37.620        13
37.630        33
37.640        20
37.650        13
37.660        13
37.670        53
37.680        13
37.690        27
37.700         0
37.710        40
37.720        27
37.730        47
37.740         7
37.750        27
37.760        40
37.770        20
37.780        27
37.790        47
37.800        33
37.810        20
37.820        47
37.830        73
37.840        20
37.850        47
37.860        40
37.870        20
37.880        47
37.890        33
37.900        60
37.910        33
37.920        20
37.930        27
37.940        20
37.950        40
37.960        20
37.970         7
37.980         7
37.990        33
38.000        20
38.010        13
38.020        20
38.030         7
38.040        20
38.050        20
38.060        40
38.070        27
38.080        20
38.090        40
38.100        53
38.110        53
38.120        40
38.130        27
38.140        53
38.150        73
38.160        40
38.170        47
38.180        47
38.190        80
38.200       107
38.210        20
38.220        47
38.230        27
38.240        27
38.250        40
38.260        47
38.270        33
38.280        33
38.290        20
38.300        53
38.310        27
38.320        27
38.330        13
38.340        20
38.350        40
38.360        27
38.370        60
38.380        20
38.390        13
38.400         7
38.410        20
38.420        20
38.430        13
38.440        33
38.450        20
38.460        27
38.470        40
38.480        40
38.490        20
38.500        20
38.510        27
38.520        40
38.530        20
38.540        20
38.550        20
38.560        20
38.570        13
38.580        20
38.590        27
38.600        20
38.610         7
38.620        13
38.630        20
38.640        27
38.650        20
38.660        20
38.670        33
38.680        33
38.690        20
38.700        27
38.710        27
38.720         0
38.730        27
38.740         7
38.750        20
38.760        20
38.770        20
38.780         7
38.790        20
38.800        13
38.810        40
38.820        33
38.830        40
38.840         7
38.850        13
38.860         7
38.870        13
38.880        20
38.890         7
38.900        27
38.910        27
38.920        20
38.930        27
38.940        20
38.950        40
38.960        20
38.970        20
38.980        20
38.990        33
39.000         7
39.010        27
39.020        13
39.030        27
39.040        13
39.050        20
39.060        40
39.070        27
39.080        33
39.090        27
39.100        40
39.110        27
39.120        13
39.130        27
39.140        27
39.150        20
39.160        20
39.170         7
39.180        27
39.190        27
39.200        27
39.210        47
39.220         7
39.230        33
39.240        27
39.250         7
39.260        20
39.270        20
39.280        20
39.290        27
39.300        13
39.310         0
39.320         0
39.330        13
39.340        20
39.350        20
39.360        20
39.370        33
39.380        13
39.390         7
39.400        13
39.410        27
39.420        13
39.430        27
39.440        33
39.450        27
39.460        20
39.470        13
39.480        40
39.490         7
39.500        33
39.510        33
39.520        33
39.530        13
39.540        13
39.550        13
39.560         7
39.570        27
39.580        13
39.590        27
39.600         7
39.610        20
39.620        13
39.630        13
39.640        20
39.650        40
39.660        20
39.670         7
39.680         7
39.690        20
39.700        20
39.710        20
39.720        33
39.730        40
39.740        33
39.750        27
39.760        13
39.770         7
39.780         0
39.790        13
39.800         7
39.810        13
39.820        13
39.830        20
39.840        20
39.850         7
39.860         7
39.870        20
39.880        27
39.890        27
39.900        13
39.910        33
39.920        27
39.930        13
39.940        33
39.950        33
39.960         7
39.970        27
39.980        20
39.990         7
40.000         0
40.010        33
40.020        40
40.030        27
40.040        27
40.050         7
40.060         7
40.070        47
40.080        20
40.090         0
40.100        27
40.110        13
40.120        40
40.130        27
40.140        20
40.150        27
40.160        33
40.170        33
40.180        40
40.190        13
40.200        13
40.210        13
40.220        33
40.230        20
40.240        27
40.250        53
40.260        27
40.270        27
40.280         7
40.290         7
40.300        40
40.310        33
40.320        13
40.330        13
40.340        13
40.350        47
40.360        27
40.370        20
40.380        33
40.390        13
40.400        13
40.410         0
40.420        33
40.430         7
40.440        13
40.450        20
40.460        20
40.470        27
40.480        13
40.490        33
40.500        20
40.510        40
40.520        20
40.530        13
40.540        13
40.550        20
40.560         7
40.570         0
40.580        20
40.590        33
40.600        13
40.610        20
40.620        20
40.630        20
40.640        27
40.650        47
40.660        20
40.670         7
40.680        47
40.690        20
40.700        13
40.710        27
40.720        27
40.730        13
40.740        27
40.750        40
40.760        20
40.770        20
40.780        13
40.790        33
40.800        27
40.810         0
40.820        27
40.830        13
40.840        40
40.850         7
40.860        20
40.870        27
40.880        33
40.890        40
40.900        13
40.910         7
40.920        13
40.930        20
40.940        13
40.950         7
40.960        40
40.970        13
40.980        20
40.990        47
41.000        27
41.010        33
41.020        33
41.030        27
41.040         7
41.050         7
41.060        20
41.070        20
41.080        13
41.090        33
41.100        33
41.110         7
41.120        27
41.130        40
41.140         7
41.150         0
41.160        20
41.170        20
41.180         7
41.190        20
41.200        27
41.210        40
41.220        13
41.230        20
41.240        33
41.250        27
41.260        13
41.270        20
41.280        27
41.290        13
41.300        13
41.310        20
41.320        53
41.330         7
41.340        20
41.350         7
41.360        33
41.370        13
41.380         0
41.390        20
41.400        40
41.410        33
41.420        20
41.430        53
41.440        20
41.450        20
41.460        27
41.470        13
41.480        20
41.490        13
41.500         7
41.510        13
41.520        27
41.530        47
41.540        13
41.550        27
41.560        20
41.570        27
41.580        13
41.590        53
41.600        33
41.610        27
41.620        13
41.630        40
41.640        40
41.650        67
41.660        60
41.670       107
41.680        60
41.690        40
41.700        53
41.710        53
41.720        93
41.730        93
41.740        33
41.750        53
41.760        33
41.770        27
41.780        40
41.790        47
41.800        60
41.810        47
41.820        33
41.830        47
41.840        20
41.850        33
41.860        27
41.870         7
41.880        73
41.890        27
41.900         0
41.910        13
41.920        13
41.930        13
41.940        27
41.950        20
41.960        20
41.970        20
41.980        27
41.990        33
42.000        27
42.010         7
42.020        20
42.030        27
42.040        20
42.050        33
42.060        40
42.070        13
42.080        27
42.090         7
42.100        33
42.110        20
42.120        13
42.130        13
42.140        20
42.150        33
42.160        20
42.170        27
42.180        27
42.190        20
42.200        20
42.210        20
42.220        53
42.230         0
42.240         7
42.250        13
42.260        13
42.270        20
42.280         0
42.290         7
42.300        20
42.310        20
42.320         7
42.330        20
42.340        20
42.350        20
42.360        13
42.370        20
42.380        27
42.390        13
42.400         7
42.410        40
42.420        33
42.430         7
42.440        27
42.450        20
42.460        27
42.470         0
42.480        20
42.490         0
42.500        13
42.510        33
42.520        13
42.530        20
42.540        20
42.550        33
42.560        13
42.570        27
42.580        33
42.590        33
42.600         0
42.610        27
42.620        27
42.630        27
42.640        33
42.650         7
42.660        27
42.670        13
42.680        13
42.690         7
42.700        47
42.710        47
42.720        33
42.730         7
42.740         7
42.750        33
42.760        27
42.770        20
42.780        13
42.790        20
42.800        20
42.810        27
42.820        27
42.830        13
42.840        13
42.850        20
42.860        60
42.870        33
42.880        20
42.890        20
42.900        13
42.910        27
42.920        13
42.930        33
42.940        20
42.950        20
42.960        13
42.970        47
42.980         7
42.990        33
43.000        27
43.010         0
43.020         7
43.030        13
43.040        13
43.050        13
43.060        13
43.070        47
43.080        20
43.090        27
43.100        33
43.110         7
43.120        40
43.130        27
43.140        20
43.150         0
43.160        13
43.170        33
43.180         7
43.190        20
43.200        20
43.210        33
43.220        27
43.230        27
43.240        20
43.250        13
43.260         0
43.270        27
43.280         7
43.290        20
43.300        33
43.310        40
43.320        20
43.330        47
43.340        40
43.350        60
43.360        13
43.370        60
43.380        33
43.390        47
43.400        40
43.410        20
43.420        40
43.430        20
43.440        27
43.450         7
43.460         7
43.470        53
43.480        40
43.490         7
43.500        27
43.510        20
43.520        27
43.530         7
43.540        27
43.550        40
43.560        27
43.570         7
43.580        20
43.590        20
43.600         7
43.610        13
43.620         7
43.630         0
43.640         0
43.650        33
43.660        20
43.670        33
43.680         0
43.690        27
43.700        20
43.710        33
43.720         7
43.730        20
43.740        13
43.750         7
43.760        47
43.770        20
43.780        33
43.790        33
43.800        20
43.810        13
43.820        13
43.830         7
43.840         7
43.850        20
43.860        40
43.870        40
43.880        20
43.890        53
43.900        20
43.910        13
43.920        27
43.930        27
43.940        20
43.950         7
43.960        20
43.970        13
43.980         7
43.990        33
44.000        20
44.010        13
44.020        27
44.030         7
44.040        27
44.050        27
44.060        20
44.070        27
44.080        13
44.090         7
44.100        13
44.110         7
44.120        40
44.130        33
44.140        20
44.150        27
44.160        40
44.170        27
44.180        13
44.190        33
44.200        33
44.210        27
44.220        20
44.230        33
44.240        13
44.250        27
44.260        27
44.270         7
44.280        33
44.290         7
44.300        40
44.310        27
44.320        27
44.330        53
44.340        13
44.350        33
44.360        20
44.370        53
44.380        33
44.390        40
44.400        27
44.410        47
44.420        67
44.430        33
44.440        47
44.450        47
44.460        40
44.470        13
44.480        20
44.490        13
44.500        13
44.510        40
44.520        47
44.530        13
44.540        27
44.550        13
44.560        27
44.570        47
44.580        13
44.590        33
44.600        13
44.610        40
44.620         7
44.630        33
44.640        20
44.650        40
44.660        47
44.670        20
44.680        27
44.690        27
44.700        33
44.710         7
44.720        20
44.730        33
44.740        33
44.750         7
44.760        20
44.770        27
44.780        27
44.790        20
44.800         0
44.810        33
44.820        13
44.830        20
44.840        27
44.850        13
44.860        13
44.870         7
44.880        20
44.890         0
44.900         7
44.910         0
44.920        13
44.930        13
44.940        13
44.950        33
44.960        13
44.970         7
44.980        13
44.990        13
45.000        20
45.010        20
45.020         7
45.030        27
45.040        13
45.050         7
45.060        13
45.070        13
45.080         7
45.090        33
45.100        13
45.110        33
45.120        20
45.130         7
45.140         0
45.150        13
45.160        20
45.170        27
45.180        27
45.190        47
45.200        13
45.210        20
45.220        20
45.230        13
45.240        27
45.250        13
45.260         0
45.270        20
45.280        33
45.290        33
45.300         7
45.310        47
45.320        20
45.330         7
45.340         7
45.350        13
45.360        13
45.370        13
45.380         7
45.390        27
45.400        27
45.410        27
45.420        20
45.430        33
45.440         7
45.450        13
45.460        13
45.470        20
45.480         7
45.490         0
45.500        27
45.510        27
45.520        20
45.530        27
45.540         7
45.550        13
45.560         0
45.570         0
45.580        20
45.590        20
45.600        27
45.610        40
45.620        13
45.630        20
45.640         0
45.650        33
45.660        13
45.670        47
45.680        20
45.690        20
45.700         7
45.710        13
45.720        27
45.730        33
45.740        13
45.750         7
45.760         7
45.770         0
45.780         7
45.790        27
45.800        27
45.810        13
45.820        33
45.830        20
45.840         7
45.850        20
45.860         0
45.870        20
45.880        20
45.890        13
45.900        13
45.910        27
45.920        33
45.930        20
45.940        13
45.950        13
45.960        13
45.970        33
45.980         0
45.990         7
46.000        47
46.010        20
46.020        13
46.030        20
46.040        20
46.050        20
46.060        13
46.070        20
46.080        20
46.090        27
46.100        13
46.110        27
46.120        27
46.130        13
46.140        13
46.150        27
46.160        27
46.170        20
46.180         0
46.190        20
46.200        13
46.210        27
46.220        27
46.230        27
46.240        13
46.250         7
46.260         7
46.270        40
46.280         7
46.290        27
46.300        13
46.310        13
46.320         7
46.330         0
46.340        13
46.350        20
46.360        27
46.370        27
46.380        27
46.390        27
46.400        13
46.410         7
46.420         7
46.430        40
46.440        13
46.450         7
46.460         0
46.470        33
46.480         7
46.490        20
46.500        20
46.510        13
46.520         7
46.530         0
46.540         7
46.550        47
46.560        33
46.570        20
46.580        20
46.590        33
46.600        20
46.610         7
46.620        13
46.630        27
46.640         7
46.650         7
46.660        20
46.670        13
46.680         7
46.690        20
46.700        27
46.710         7
46.720         7
46.730        13
46.740        13
46.750        20
46.760         0
46.770        20
46.780        13
46.790        20
46.800         7
46.810        27
46.820        13
46.830        27
46.840         7
46.850        20
46.860         7
46.870         7
46.880        20
46.890         0
46.900        20
46.910        33
46.920        13
46.930        40
46.940        13
46.950        27
46.960        13
46.970        20
46.980        20
46.990        27
47.000        13
47.010        13
47.020        33
47.030        13
47.040        20
47.050         7
47.060         7
47.070        27
47.080        13
47.090         7
47.100         7
47.110        33
47.120        20
47.130        27
47.140        27
47.150        13
47.160        27
47.170         0
47.180         7
47.190        20
47.200        13
47.210         7
47.220        20
47.230        33
47.240        33
47.250        13
47.260        33
47.270         7
47.280        20
47.290        20
47.300        20
47.310        20
47.320        13
47.330         7
47.340         7
47.350        33
47.360        13
47.370        13
47.380        20
47.390        13
47.400        27
47.410         0
47.420        13
47.430        13
47.440         0
47.450        20
47.460        27
47.470        13
47.480         0
47.490        27
47.500        27
47.510         7
47.520        13
47.530         7
47.540         7
47.550         0
47.560        20
47.570         7
47.580         7
47.590        20
47.600         7
47.610        13
47.620         7
47.630        33
47.640        13
47.650         7
47.660        27
47.670        20
47.680        20
47.690        33
47.700        13
47.710        20
47.720        27
47.730         7
47.740         7
47.750        47
47.760        13
47.770         7
47.780        13
47.790        20
47.800        20
47.810        27
47.820        13
47.830        13
47.840        13
47.850        33
47.860        13
47.870        20
47.880         7
47.890        27
47.900         7
47.910        27
47.920         7
47.930         7
47.940         0
47.950         7
47.960         7
47.970         7
47.980         0
47.990        13
48.000         0
48.010        13
48.020        27
48.030        27
48.040        13
48.050        27
48.060        13
48.070        13
48.080         7
48.090        20
48.100         7
48.110        27
48.120        20
48.130        27
48.140         7
48.150         7
48.160        27
48.170        27
48.180        20
48.190         7
48.200        13
48.210         7
48.220         7
48.230         0
48.240        13
48.250         7
48.260        20
48.270        13
48.280         7
48.290        20
48.300         7
48.310        27
48.320        13
48.330         7
48.340        20
48.350        20
48.360         7
48.370        27
48.380        33
48.390        40
48.400        20
48.410        20
48.420        13
48.430         7
48.440        13
48.450        13
48.460        13
48.470         7
48.480         7
48.490        13
48.500         7
48.510        13
48.520        20
48.530        13
48.540        27
48.550        13
48.560        27
48.570        27
48.580         7
48.590         0
48.600        33
48.610        13
48.620        27
48.630         0
48.640        13
48.650         7
48.660        20
48.670        20
48.680         7
48.690         0
48.700        13
48.710        13
48.720        20
48.730        33
48.740         7
48.750        27
48.760         0
48.770        27
48.780        20
48.790         7
48.800        27
48.810         7
48.820         0
48.830        20
48.840         7
48.850        27
48.860         0
48.870         7
48.880        13
48.890        20
48.900         7
48.910        13
48.920        13
48.930        27
48.940        13
48.950        40
48.960         7
48.970        27
48.980         0
48.990         7
49.000        27
49.010        13
49.020        20
49.030        13
49.040        13
49.050        20
49.060         0
49.070        33
49.080         7
49.090        13
49.100        27
49.110        13
49.120         0
49.130        27
49.140        13
49.150        27
49.160         7
49.170        20
49.180        20
49.190        13
49.200        20
49.210        13
49.220        20
49.230        20
49.240        33
49.250        13
49.260        20
49.270         7
49.280        13
49.290         7
49.300         7
49.310         7
49.320        13
49.330         7
49.340        13
49.350        13
49.360        13
49.370         7
49.380         7
49.390        27
49.400         7
49.410        13
49.420        27
49.430        20
49.440         7
49.450         7
49.460        13
49.470         0
49.480        20
49.490         7
49.500         7
49.510        27
49.520        33
49.530         7
49.540        40
49.550         7
49.560         7
49.570        27
49.580        20
49.590        20
49.600        20
49.610        20
49.620        20
49.630         7
49.640        13
49.650         7
49.660        20
49.670        20
49.680        13
49.690         7
49.700        13
49.710        40
49.720        20
49.730         7
49.740         0
49.750         7
49.760        13
49.770        27
49.780        40
49.790        13
49.800        33
49.810         0
49.820        40
49.830        27
49.840        13
49.850         7
49.860         7
49.870         0
49.880        20
49.890        33
49.900        20
49.910         7
49.920         0
49.930        33
49.940        27
49.950        13
49.960        13
49.970        33
49.980         7
49.990         7
50.000        13
50.010        20
50.020         7
50.030        20
50.040        20
50.050         7
50.060         7
50.070        20
50.080        27
50.090        13
50.100        20
50.110        13
50.120        33
50.130        13
50.140        27
50.150        27
50.160        20
50.170        13
50.180        33
50.190        20
50.200         7
50.210        27
50.220         0
50.230        13
50.240         7
50.250         7
50.260        33
50.270        33
50.280         7
50.290        13
50.300        13
50.310        13
50.320        20
50.330        13
50.340        27
50.350        20
50.360         7
50.370        27
50.380         0
50.390        20
50.400         0
50.410        20
50.420        13
50.430        13
50.440        13
50.450         7
50.460        20
50.470        13
50.480         7
50.490        13
50.500         0
50.510        20
50.520         7
50.530        40
50.540        40
50.550        27
50.560         7
50.570        47
50.580        20
50.590         7
50.600        13
50.610         0
50.620         7
50.630        20
50.640         7
50.650        20
50.660        20
50.670        13
50.680        27
50.690         0
50.700        13
50.710        27
50.720        20
50.730        20
50.740        47
50.750        33
50.760         7
50.770         7
50.780        20
50.790         7
50.800         0
50.810        47
50.820        13
50.830        20
50.840         7
50.850         7
50.860        20
50.870        13
50.880         0
50.890         7
50.900         0
50.910         0
50.920         7
50.930         7
50.940        33
50.950         0
50.960        20
50.970         0
50.980        13
50.990        13
51.000        13
51.010        13
51.020        33
51.030         7
51.040        20
51.050        20
51.060         7
51.070        20
51.080        13
51.090        20
51.100        20
51.110        27
51.120        13
51.130        13
51.140        40
51.150         7
51.160        13
51.170        13
51.180        13
51.190        20
51.200        13
51.210         0
51.220        13
51.230        40
51.240        40
51.250         7
51.260        13
51.270        27
51.280         7
51.290        27
51.300         7
51.310         7
51.320        13
51.330        27
51.340        20
51.350        20
51.360        20
51.370        27
51.380         7
51.390        13
51.400        33
51.410         0
51.420         7
51.430        40
51.440        13
51.450        13
51.460        13
51.470        13
51.480         7
51.490        27
51.500        20
51.510        13
51.520        20
51.530        20
51.540        20
51.550        13
51.560        33
51.570        13
51.580         0
51.590        27
51.600        27
51.610        20
51.620        13
51.630        20
51.640        27
51.650        13
51.660        33
51.670        13
51.680         7
51.690         0
51.700        13
51.710        20
51.720        27
51.730        20
51.740        20
51.750        33
51.760        33
51.770        13
51.780        27
51.790        20
51.800        20
51.810         7
51.820        20
51.830        20
51.840         0
51.850        13
51.860        20
51.870         7
51.880        27
51.890        20
51.900        13
51.910         7
51.920        47
51.930        33
51.940        13
51.950        33
51.960        13
51.970        33
51.980        33
51.990        20
52.000        20
52.010         0
52.020        20
52.030        13
52.040         7
52.050        20
52.060        13
52.070         7
52.080        33
52.090         0
52.100        20
52.110        20
52.120         7
52.130        20
52.140         7
52.150        13
52.160        13
52.170        20
52.180        20
52.190        13
52.200        33
52.210         0
52.220        20
52.230        13
52.240        13
52.250        27
52.260        40
52.270        27
52.280        27
52.290        40
52.300        33
52.310        13
52.320        27
52.330        27
52.340        27
52.350         7
52.360         7
52.370        20
52.380        20
52.390        27
52.400        20
52.410        20
52.420        13
52.430         0
52.440        20
52.450        33
52.460        33
52.470        20
52.480        47
52.490        20
52.500        87
52.510        13
52.520        40
52.530        27
52.540        33
52.550        33
52.560        93
52.570       107
52.580       120
52.590       120
52.600       113
52.610       133
52.620        80
52.630        47
52.640        40
52.650        67
52.660        53
52.670        40
52.680        13
52.690        40
52.700        33
52.710        60
52.720        47
52.730        47
52.740        80
52.750        67
52.760        67
52.770        53
52.780         7
52.790        13
52.800        13
52.810        20
52.820        27
52.830        40
52.840        13
52.850         7
52.860        33
52.870        27
52.880        27
52.890        20
52.900         7
52.910        27
52.920         7
52.930        13
52.940        27
52.950         7
52.960        20
52.970        33
52.980        40
52.990        20
53.000         7
53.010        13
53.020         7
53.030         7
53.040        27
53.050        20
53.060         7
53.070        53
53.080        13
53.090        13
53.100         7
53.110        20
53.120        33
53.130        13
53.140        13
53.150        40
53.160         0
53.170         7
53.180        13
53.190        13
53.200        33
53.210         0
53.220        20
53.230         7
53.240        27
53.250        13
53.260        27
53.270        20
53.280        27
53.290         7
53.300        20
53.310         7
53.320         7
53.330         0
53.340         7
53.350         7
53.360        20
53.370         0
53.380        13
53.390         7
53.400        13
53.410        20
53.420        33
53.430         7
53.440         7
53.450        13
53.460         7
53.470         0
53.480        13
53.490         7
53.500         0
53.510         0
53.520        20
53.530         7
53.540         7
53.550        13
53.560        13
53.570         0
53.580        20
53.590         0
53.600        13
53.610         7
53.620         0
53.630        13
53.640        20
53.650        27
53.660        20
53.670        33
53.680        20
53.690        13
53.700        13
53.710        33
53.720        20
53.730         0
53.740        27
53.750         0
53.760         0
53.770         7
53.780        20
53.790        13
53.800        27
53.810         0
53.820        13
53.830        13
53.840         7
53.850        13
53.860        13
53.870        20
53.880        13
53.890         7
53.900        13
53.910        40
53.920        13
53.930         7
53.940         0
53.950        13
53.960         0
53.970        33
53.980         7
53.990        13
54.000         7
54.010        20
54.020        20
54.030        13
54.040         0
54.050        27
54.060        13
54.070        27
54.080         0
54.090        20
54.100        40
54.110         7
54.120        13
54.130        20
54.140        27
54.150        13
54.160         7
54.170        47
54.180        13
54.190        13
54.200        33
54.210         7
54.220        20
54.230        13
54.240        13
54.250        13
54.260        13
54.270        20
54.280         7
54.290         0
54.300         0
54.310        13
54.320         7
54.330         0
54.340        27
54.350         7
54.360        20
54.370        13
54.380        40
54.390        20
54.400        20
54.410        20
54.420         7
54.430        20
54.440        20
54.450         0
54.460        13
54.470        27
54.480         0
54.490        20
54.500        13
54.510        13
54.520        13
54.530         7
54.540        13
54.550        13
54.560        13
54.570         7
54.580         7
54.590        20
54.600        13
54.610        20
54.620         7
54.630        27
54.640         7
54.650         7
54.660        13
54.670        20
54.680        13
54.690        40
54.700        13
54.710         7
54.720         7
54.730        20
54.740        20
54.750        20
54.760        33
54.770        13
54.780        27
54.790        20
54.800        13
54.810        53
54.820        40
54.830         0
54.840        20
54.850        60
54.860        27
54.870        13
54.880        33
54.890        40
54.900        33
54.910        80
54.920        27
54.930        67
54.940        47
54.950        53
54.960        60
54.970        27
54.980        47
54.990        87
55.000       107
55.010        73
55.020       107
55.030        93
55.040       120
55.050       100
55.060        93
55.070        80
55.080        73
55.090       133
55.100        53
55.110       107
55.120       107
55.130       120
55.140       107
55.150        67
55.160        93
55.170        67
55.180        73
55.190       127
55.200        60
55.210        47
55.220        53
55.230        53
55.240        53
55.250        53
55.260        40
55.270        60
55.280        40
55.290        33
55.300        33
55.310        27
55.320        40
55.330        20
55.340        20
55.350         7
55.360        40
55.370        33
55.380         7
55.390         7
55.400        20
55.410        27
55.420        27
55.430         0
55.440        40
55.450        40
55.460        40
55.470        27
55.480         7
55.490        20
55.500        20
55.510        13
55.520        13
55.530        27
55.540         7
55.550         0
55.560        13
55.570         7
55.580         7
55.590        20
55.600        27
55.610         0
55.620        20
55.630        27
55.640        27
55.650         7
55.660        13
55.670         0
55.680         7
55.690         0
55.700        20
55.710         7
55.720        47
55.730         0
55.740         7
55.750         7
55.760        13
55.770        20
55.780        13
55.790         7
55.800        13
55.810        13
55.820        13
55.830        13
55.840         7
55.850         7
55.860         7
55.870        20
55.880         7
55.890         7
55.900        13
55.910        27
55.920        27
55.930         7
55.940        20
55.950         7
55.960        13
55.970        13
55.980         0
55.990        27
56.000        13
56.010         7
56.020        13
56.030         7
56.040        20
56.050         0
56.060         7
56.070        13
56.080         0
56.090        20
56.100        27
56.110        27
56.120        20
56.130         7
56.140        47
56.150        13
56.160        13
56.170        13
56.180        13
56.190         7
56.200        33
56.210        13
56.220        20
56.230        13
56.240        13
56.250        20
56.260         0
56.270         0
56.280        33
56.290        20
56.300        13
56.310        27
56.320        20
56.330         7
56.340        47
56.350        33
56.360        13
56.370         7
56.380        13
56.390         7
56.400         0
56.410        33
56.420        13
56.430        27
56.440         7
56.450        20
56.460        13
56.470        20
56.480        13
56.490         0
56.500        20
56.510        20
56.520         0
56.530        13
56.540        33
56.550         7
56.560        27
56.570         7
56.580        13
56.590         7
56.600        27
56.610         7
56.620        13
56.630        20
56.640        20
56.650         7
56.660        33
56.670        13
56.680        40
56.690        13
56.700         7
56.710         7
56.720        20
56.730         0
56.740        13
56.750        13
56.760         7
56.770         7
56.780         7
56.790         7
56.800        20
56.810         0
56.820        13
56.830         0
56.840        20
56.850         7
56.860        13
56.870         7
56.880         7
56.890         7
56.900        33
56.910        13
56.920        20
56.930        13
56.940         7
56.950        13
56.960        20
56.970        20
56.980        33
56.990        13
57.000         7
57.010        13
57.020         7
57.030        20
57.040        13
57.050        20
57.060         7
57.070        20
57.080        20
57.090        27
57.100        20
57.110        27
57.120        13
57.130        13
57.140        13
57.150        13
57.160        33
57.170         0
57.180         7
57.190         7
57.200        27
57.210         0
57.220         7
57.230         7
57.240        27
57.250         7
57.260         7
57.270        27
57.280        13
57.290         7
57.300        13
57.310        13
57.320        27
57.330        27
57.340        33
57.350        33
57.360        60
57.370        33
57.380        40
57.390        33
57.400         0
57.410        27
57.420        13
57.430        27
57.440        13
57.450        20
57.460        67
57.470        47
57.480        60
57.490       100
57.500        87
57.510       193
57.520       113
57.530       147
57.540       120
57.550       120
57.560       113
57.570        93
57.580        93
57.590        40
57.600        73
57.610        80
57.620        47
57.630        67
57.640        53
57.650        47
57.660        73
57.670       100
57.680        60
57.690        67
57.700        33
57.710        53
57.720        53
57.730        67
57.740        60
57.750        40
57.760        20
57.770        20
57.780        33
57.790        20
57.800        13
57.810         7
57.820        20
57.830        27
57.840         0
57.850         7
57.860        20
57.870        13
57.880         7
57.890         7
57.900        20
57.910         7
57.920        20
57.930        20
57.940         7
57.950        40
57.960        20
57.970        13
57.980        20
57.990         7
58.000        13
58.010        20
58.020        33
58.030         7
58.040         7
58.050        20
58.060        13
58.070         7
58.080         7
58.090         7
58.100        20
58.110         0
58.120         7
58.130        20
58.140         0
58.150        20
58.160         7
58.170         7
58.180         0
58.190        27
58.200        20
58.210        20
58.220        20
58.230         0
58.240        20
58.250        20
58.260         0
58.270         0
58.280        20
58.290        20
58.300         7
58.310        13
58.320         7
58.330        20
58.340        20
58.350        13
58.360        27
58.370        13
58.380         7
58.390         0
58.400        33
58.410         7
58.420         0
58.430         7
58.440        13
58.450         7
58.460        13
58.470        20
58.480        13
58.490        13
58.500         7
58.510         0
58.520         7
58.530         7
58.540         0
58.550        27
58.560        33
58.570         7
58.580         7
58.590        20
58.600         7
58.610        13
58.620        27
58.630        33
58.640         0
58.650        27
58.660        13
58.670         0
58.680         7
58.690        20
58.700         0
58.710        20
58.720         7
58.730         0
58.740         7
58.750        47
58.760        13
58.770        13
58.780         7
58.790        13
58.800         7
58.810        13
58.820         7
58.830         7
58.840        20
58.850        13
58.860        33
58.870        20
58.880        13
58.890         7
58.900        33
58.910        13
58.920        20
58.930        20
58.940         7
58.950        13
58.960        47
58.970         7
58.980        13
58.990        20
59.000         0
59.010        33
59.020        13
59.030        27
59.040        20
59.050        20
59.060        13
59.070        13
59.080        13
59.090       113
59.100        13
59.110        13
59.120        33
59.130        20
59.140         7
59.150         7
59.160         7
59.170        33
59.180         0
59.190        27
59.200         7
59.210        20
59.220         0
59.230         7
59.240         0
59.250        20
59.260        13
59.270        20
59.280         7
59.290         0
59.300         7
59.310        20
59.320         7
59.330         7
59.340        20
59.350         7
59.360         0
59.370        20
59.380        27
59.390         7
59.400         0
59.410         7
59.420        13
59.430        20
59.440        13
59.450        13
59.460        13
59.470         0
59.480        13
59.490        13
59.500        13
59.510        27
59.520        13
59.530         0
59.540        13
59.550        33
59.560        27
59.570        20
59.580        13
59.590         7
59.600        13
59.610        13
59.620        13
59.630        20
59.640        33
59.650        40
59.660         7
59.670        20
59.680         7
59.690        20
59.700         0
59.710        27
59.720         7
59.730        13
59.740        40
59.750        20
59.760        40
59.770         0
59.780        13
59.790        33
59.800         0
59.810        20
59.820        13
59.830        20
59.840         7
59.850        20
59.860        13
59.870         0
59.880        13
59.890        33
59.900         0
59.910        20
59.920         0
59.930        13
59.940        20
59.950         7
59.960        20
59.970         7
59.980         0
59.990         7
60.000         7
