20.000        67
20.010        27
20.020        27
20.030       107
20.040        40
20.050        67
20.060        13
20.070        40
20.080        53
20.090        93
20.100        13
20.110         0
20.120        53
20.130        93
20.140        67
20.150        40
20.160        40
20.170        53
20.180        67
20.190        27
20.200        13
20.210        53
20.220        13
20.230        40
20.240        27
20.250        40
20.260        13
20.270        67
20.280        80
20.290        40
20.300        40
20.310        80
20.320        67
20.330        53
20.340       107
20.350        53
20.360        27
20.370        67
20.380        40
20.390        40
20.400        80
20.410        27
20.420        67
20.430        27
20.440        93
20.450        93
20.460        40
20.470        27
20.480        67
20.490        53
20.500       107
20.510        93
20.520        67
20.530        40
20.540        53
20.550       107
20.560        53
20.570        93
20.580        40
20.590        53
20.600        40
20.610        40
20.620        53
20.630        27
20.640        67
20.650        93
20.660        53
20.670        67
20.680        53
20.690        13
20.700        27
20.710        53
20.720        27
20.730        80
20.740        80
20.750       107
20.760        67
20.770        13
20.780        27
20.790        93
20.800        13
20.810        27
20.820        40
20.830        53
20.840         0
20.850        40
20.860         0
20.870        67
20.880        40
20.890        80
20.900        67
20.910        40
20.920        53
20.930        13
20.940        53
20.950        27
20.960        27
20.970         0
20.980        40
20.990        40
21.000        40
21.010        13
21.020        40
21.030        67
21.040        53
21.050        53
21.060        27
21.070        40
21.080        40
21.090        40
21.100       107
21.110        93
21.120        13
21.130        40
21.140        80
21.150        40
21.160        27
21.170        53
21.180        67
21.190        80
21.200        53
21.210        40
21.220        80
21.230         0
21.240        13
21.250       120
21.260        80
21.270        80
21.280        93
21.290        27
21.300        67
21.310        27
21.320        67
21.330        13
21.340        67
21.350        53
21.360        53
21.370        13
21.380        40
21.390        13
21.400        40
21.410        80
21.420        80
21.430        93
21.440        67
21.450        80
21.460        93
21.470        93
21.480        13
21.490        13
21.500        53
21.510        40
21.520        27
21.530        27
21.540        40
21.550        67
21.560        67
21.570        40
21.580        67
21.590        53
21.600        67
21.610        13
21.620        67
21.630        53
21.640         0
21.650        27
21.660        27
21.670        93
21.680        53
21.690        80
21.700        27
21.710        67
21.720        80
21.730        53
21.740        67
21.750        13
21.760        40
21.770        13
21.780        27
21.790        40
21.800        40
21.810        27
21.820        27
21.830        53
21.840        40
21.850        27
21.860        27
21.870        67
21.880        13
21.890        53
21.900        67
21.910        67
21.920        27
21.930        53
21.940        27
21.950        67
21.960        67
21.970        13
21.980        27
21.990        67
22.000        27
22.010        67
22.020        40
22.030        13
22.040        53
22.050        13
22.060        53
22.070        53
22.080        40
22.090        67
22.100        93
22.110        13
22.120        40
22.130        27
22.140        27
22.150        80
22.160        13
22.170         0
22.180        40
22.190        40
22.200        27
22.210        53
22.220        13
22.230        53
22.240        13
22.250        27
22.260        27
22.270        67
22.280        53
22.290        40
22.300        27
22.310        40
22.320        40
22.330        93
22.340        53
22.350        40
22.360        80
22.370        40
22.380        13
22.390        93
22.400        53
22.410        40
22.420        27
22.430        53
22.440        13
22.450        67
22.460        40
22.470        53
22.480        80
22.490        40
22.500        27
22.510        27
22.520        13
22.530        53
22.540         0
22.550        67
22.560        67
22.570        27
22.580        93
22.590        80
22.600       107
22.610        93
22.620       160
22.630       147
22.640        67
22.650       120
22.660       227
22.670       173
22.680       173
22.690       360
22.700       160
22.710       347
22.720       413
22.730       426
22.740       506
22.750       573
22.760       653
22.770       826
22.780       746
22.790       760
22.800       720
22.810       666
22.820       800
22.830       800
22.840       546
22.850       586
22.860       586
22.870       613
22.880       333
22.890       307
22.900       240
22.910       453
22.920       147
22.930       147
22.940       253
22.950       200
22.960       120
22.970       133
22.980        53
22.990       147
23.000        40
23.010        27
23.020        53
23.030        13
23.040        53
23.050        40
23.060        53
23.070        53
23.080        40
23.090        53
23.100        93
23.110        53
23.120       107
23.130        40
23.140        80
23.150        40
23.160        13
23.170        80
23.180        53
23.190        27
23.200        13
23.210       120
23.220        53
23.230        93
23.240        53
23.250        53
23.260        27
23.270        40
23.280        13
23.290        93
23.300        53
23.310        27
23.320        53
23.330        67
23.340        27
23.350        13
23.360        40
23.370        93
23.380         0
23.390        27
23.400        40
23.410        53
23.420        93
23.430        53
23.440        53
23.450        27
23.460        40
23.470        27
23.480        13
23.490        80
23.500        53
23.510        27
23.520        13
23.530        27
23.540        13
23.550        53
23.560        67
23.570        13
23.580        27
23.590        53
23.600        67
23.610        27
23.620        27
23.630        40
23.640        13
23.650        27
23.660        40
23.670        40
23.680        53
23.690        67
23.700        13
23.710       107
23.720        27
23.730        80
23.740        13
23.750        27
23.760        67
23.770        53
23.780        53
23.790        27
23.800        67
23.810        67
23.820        13
23.830        27
23.840        53
23.850        40
23.860        53
23.870        27
23.880        40
23.890        93
23.900        40
23.910        67
23.920        40
23.930        40
23.940        80
23.950         0
23.960        80
23.970        53
23.980        27
23.990        40
24.000        53
24.010        27
24.020        27
24.030        27
24.040        27
24.050        40
24.060        13
24.070        27
24.080        40
24.090        93
24.100        53
24.110        27
24.120        53
24.130        40
24.140         0
24.150        13
24.160        40
24.170        40
24.180        40
24.190        53
24.200        67
24.210        80
24.220        93
24.230         0
24.240        80
24.250        27
24.260        53
24.270        53
24.280        80
24.290        80
24.300        13
24.310        27
24.320        40
24.330        80
24.340        40
24.350        67
24.360         0
24.370        40
24.380        53
24.390         0
24.400        93
24.410         0
24.420        27
24.430        67
24.440        40
24.450        53
24.460        53
24.470        27
24.480        40
24.490        53
24.500        27
24.510       133
24.520        13
24.530        13
24.540        40
24.550        53
24.560        13
24.570        13
24.580        40
24.590        53
24.600        27
24.610        13
24.620        53
24.630        40
24.640         0
24.650        53
24.660        53
24.670        40
24.680        67
24.690        80
24.700        40
24.710        40
24.720        40
24.730        67
24.740        13
24.750        53
24.760        27
24.770        27
24.780        27
24.790        53
24.800        13
24.810        27
24.820        27
24.830        13
24.840        53
24.850        13
24.860        13
24.870        40
24.880        53
24.890        40
24.900        40
24.910        53
24.920        27
24.930        40
24.940         0
24.950        67
24.960        53
24.970        40
24.980        53
24.990        67
25.000         0
25.010        53
25.020        27
25.030        53
25.040        80
25.050        53
25.060        40
25.070        27
25.080        40
25.090        40
25.100        53
25.110        67
25.120        67
25.130        40
25.140        67
25.150        67
25.160        67
25.170       120
25.180        53
25.190        67
25.200        13
25.210        27
25.220        13
25.230        40
25.240        80
25.250        27
25.260         0
25.270        67
25.280        40
25.290        13
25.300        40
25.310        40
25.320        53
25.330        67
25.340        53
25.350        53
25.360        13
25.370        67
25.380        40
25.390        27
25.400        93
25.410        53
25.420        40
25.430        40
25.440        53
25.450        27
25.460        67
25.470        80
25.480        80
25.490        67
25.500        40
25.510       107
25.520       107
25.530        93
25.540        27
25.550        93
25.560        40
25.570       133
25.580        67
25.590       120
25.600       120
25.610        93
25.620       107
25.630       107
25.640       133
25.650       107
25.660        27
25.670        67
25.680        40
25.690        27
25.700        67
25.710       107
25.720        67
25.730        27
25.740        40
25.750        27
25.760        67
25.770        27
25.780         0
25.790        40
25.800        27
25.810        27
25.820        93
25.830        67
25.840        13
25.850        40
25.860        80
25.870        40
25.880       107
25.890        40
25.900        67
25.910        40
25.920        27
25.930        53
25.940        53
25.950        67
25.960       107
25.970        40
25.980        53
25.990        53
26.000        53
26.010        40
26.020        27
26.030        40
26.040        53
26.050        27
26.060        80
26.070        13
26.080        40
26.090        53
26.100        53
26.110        13
26.120        67
26.130        27
26.140        13
26.150        53
26.160        27
26.170        40
26.180        67
26.190        67
26.200        27
26.210        27
26.220        13
26.230        40
26.240        40
26.250        67
26.260        40
26.270        53
26.280        13
26.290        40
26.300        40
26.310        13
26.320        40
26.330        40
26.340        27
26.350        40
26.360        13
26.370        13
26.380        13
26.390        67
26.400        53
26.410        40
26.420        53
26.430        13
26.440        67
26.450        40
26.460        53
26.470        40
26.480        67
26.490        27
26.500        53
26.510        27
26.520        53
26.530        80
26.540        13
26.550        40
26.560        27
26.570        27
26.580        53
26.590        53
26.600        67
26.610        67
26.620        27
26.630        53
26.640        40
26.650        13
26.660        27
26.670        27
26.680        53
26.690         0
26.700        27
26.710        13
26.720        27
26.730        27
26.740        27
26.750        27
26.760        67
26.770        53
26.780        53
26.790        27
26.800        53
26.810        27
26.820        53
26.830        53
26.840         0
26.850        40
26.860        80
26.870        40
26.880        40
26.890        67
26.900        67
26.910        40
26.920        53
26.930        53
26.940        13
26.950        40
26.960        13
26.970        40
26.980        67
26.990        27
27.000        67
27.010        40
27.020        67
27.030        13
27.040        13
27.050        27
27.060        13
27.070        27
27.080        27
27.090        67
27.100        27
27.110        27
27.120        27
27.130        40
27.140        13
27.150        53
27.160        40
27.170        13
27.180        27
27.190        13
27.200        40
27.210        53
27.220        27
27.230        13
27.240        27
27.250        40
27.260        13
27.270        13
27.280        13
27.290        53
27.300        13
27.310        13
27.320        67
27.330         0
27.340        53
27.350        53
27.360        53
27.370        80
27.380        40
27.390        67
27.400        27
27.410         0
27.420        27
27.430        40
27.440        53
27.450        13
27.460        13
27.470        27
27.480        13
27.490        40
27.500        27
27.510        80
27.520        40
27.530        40
27.540        27
27.550        13
27.560        40
27.570        80
27.580        40
27.590        40
27.600        27
27.610        13
27.620         0
27.630        40
27.640        27
27.650        27
27.660        27
27.670         0
27.680        40
27.690        27
27.700        53
27.710        27
27.720        27
27.730        13
27.740        53
27.750        40
27.760        27
27.770        67
27.780        53
27.790        27
27.800        27
27.810        27
27.820        53
27.830        53
27.840        13
27.850        40
27.860        27
27.870        40
27.880        13
27.890        53
27.900         0
27.910        27
27.920        27
27.930        27
27.940        40
27.950         0
27.960        67
27.970        53
27.980        67
27.990        53
28.000        27
28.010         0
28.020        80
28.030        40
28.040        53
28.050        53
28.060        40
28.070        80
28.080        27
28.090        40
28.100        53
28.110        27
28.120        13
28.130        27
28.140        40
28.150        13
28.160        53
28.170        40
28.180         0
28.190        27
28.200        13
28.210         0
28.220        27
28.230        13
28.240        53
28.250        40
28.260        40
28.270        40
28.280        13
28.290        13
28.300        53
28.310        13
28.320        40
28.330        13
28.340        80
28.350        13
28.360        13
28.370        27
28.380        13
28.390        80
28.400        13
28.410         0
28.420        27
28.430        40
28.440        53
28.450        40
28.460        40
28.470        27
28.480         0
28.490        53
28.500        13
28.510        53
28.520        53
28.530        27
28.540        40
28.550        40
28.560        40
28.570        13
28.580        40
28.590        67
28.600        13
28.610        53
28.620        53
28.630        53
28.640        40
28.650         0
28.660        13
28.670        13
28.680        13
28.690         0
28.700        13
28.710        80
28.720        13
28.730        27
28.740         0
28.750        67
28.760        67
28.770        53
28.780        80
28.790        13
28.800        67
28.810        27
28.820        40
28.830         0
28.840        40
28.850        40
28.860        53
28.870        13
28.880        40
28.890        93
28.900        13
28.910        13
28.920         0
28.930        27
28.940        13
28.950        40
28.960        13
28.970        40
28.980        27
28.990        27
29.000         0
29.010        53
29.020        40
29.030        80
29.040        40
29.050        27
29.060        27
29.070        67
29.080        40
29.090        40
29.100        40
29.110        27
29.120        40
29.130        53
29.140        40
29.150        53
29.160        67
29.170        27
29.180        53
29.190        53
29.200        13
29.210        13
29.220        27
29.230         0
29.240        27
29.250        27
29.260        53
29.270        40
29.280        13
29.290        27
29.300        93
29.310        13
29.320        27
29.330         0
29.340        13
29.350        53
29.360        53
29.370        13
29.380         0
29.390        27
29.400        13
29.410        27
29.420        67
29.430        27
29.440        27
29.450        27
29.460         0
29.470        27
29.480        40
29.490         0
29.500        40
29.510        40
29.520        27
29.530        13
29.540        13
29.550        27
29.560         0
29.570        40
29.580        13
29.590        13
29.600        40
29.610         0
29.620        13
29.630        53
29.640        53
29.650        13
29.660        53
29.670        27
29.680        27
29.690        67
29.700        40
29.710        27
29.720        13
29.730        13
29.740        13
29.750        67
29.760        27
29.770        40
29.780       107
29.790        93
29.800        13
29.810        27
29.820        13
29.830        40
29.840         0
29.850        13
29.860        40
29.870        80
29.880        40
29.890        40
29.900        53
29.910        13
29.920        40
29.930        27
29.940        27
29.950        40
29.960        53
29.970        13
29.980        13
29.990        27
30.000        40
30.010        80
30.020        40
30.030        13
30.040        27
30.050        13
30.060        13
30.070        27
30.080        13
30.090        40
30.100        40
30.110        13
30.120        40
30.130        13
30.140         0
30.150        13
30.160        13
30.170        40
30.180        27
30.190        27
30.200        40
30.210        27
30.220        13
30.230        13
30.240        27
30.250        13
30.260        13
30.270        27
30.280        67
30.290        13
30.300        13
30.310        53
30.320        27
30.330        40
30.340       107
30.350        53
30.360        40
30.370        53
30.380        40
30.390        27
30.400        27
30.410        27
30.420        67
30.430        40
30.440        53
30.450        40
30.460        67
30.470        80
30.480        27
30.490        13
30.500        27
30.510        27
30.520        13
30.530         0
30.540       107
30.550        53
30.560        40
30.570        40
30.580        53
30.590        27
30.600        53
30.610        53
30.620        40
30.630        27
30.640        13
30.650        40
30.660        13
30.670        80
30.680        27
30.690        27
30.700        27
30.710        40
30.720        13
30.730        40
30.740        53
30.750        27
30.760        40
30.770        13
30.780        27
30.790        40
30.800        27
30.810         0
30.820        27
30.830        40
30.840        40
30.850        40
30.860        80
30.870        27
30.880       107
30.890        53
30.900        27
30.910        27
30.920        53
30.930        67
30.940        27
30.950        13
30.960         0
30.970        27
30.980        40
30.990        27
31.000        40
31.010        27
31.020        27
31.030         0
31.040        67
31.050         0
31.060        13
31.070        13
31.080        27
31.090        27
31.100        27
31.110        40
31.120        53
31.130        40
31.140        13
31.150         0
31.160        40
31.170        53
31.180        27
31.190        67
31.200        40
31.210        27
31.220        13
31.230        27
31.240        13
31.250         0
31.260        13
31.270        53
31.280       107
31.290        27
31.300        40
31.310        27
31.320        27
31.330        27
31.340        13
31.350         0
31.360        40
31.370        13
31.380        80
31.390         0
31.400        67
31.410        40
31.420        27
31.430        53
31.440        13
31.450        40
31.460        27
31.470        13
31.480        53
31.490        27
31.500        27
31.510        13
31.520        13
31.530        27
31.540        40
31.550        40
31.560        40
31.570        67
31.580        40
31.590         0
31.600        40
31.610        27
31.620        53
31.630        27
31.640        13
31.650        27
31.660        13
31.670        67
31.680        40
31.690        13
31.700        13
31.710         0
31.720        13
31.730        27
31.740        40
31.750        53
31.760        13
31.770        40
31.780        27
31.790        27
31.800        40
31.810        40
31.820        13
31.830        93
31.840        40
31.850        27
31.860        40
31.870         0
31.880        27
31.890        40
31.900        40
31.910        53
31.920       107
31.930        13
31.940        27
31.950        67
31.960        27
31.970        53
31.980        40
31.990        13
32.000        40
32.010        13
32.020        40
32.030        27
32.040        53
32.050        53
32.060        13
32.070        40
32.080        40
32.090        27
32.100        53
32.110        40
32.120         0
32.130        67
32.140        13
32.150        53
32.160        27
32.170        13
32.180        40
32.190        53
32.200        53
32.210         0
32.220        67
32.230        40
32.240        13
32.250        40
32.260        13
32.270        27
32.280        67
32.290        40
32.300        40
32.310        53
32.320        40
32.330        80
32.340        40
32.350        93
32.360       173
32.370       120
32.380        53
32.390       107
32.400       120
32.410        67
32.420        93
32.430       187
32.440       147
32.450       133
32.460       160
32.470        67
32.480       107
32.490        93
32.500       160
32.510        67
32.520       107
32.530       133
32.540       120
32.550       160
32.560        67
32.570        13
32.580        67
32.590        27
32.600        40
32.610        80
32.620        80
32.630        53
32.640        40
32.650        53
32.660        40
32.670        80
32.680        67
32.690         0
32.700        27
32.710        27
32.720        53
32.730        13
32.740        13
32.750        67
32.760        27
32.770        40
32.780        40
32.790         0
32.800        80
32.810        27
32.820        40
32.830        67
32.840        13
32.850        13
32.860        13
32.870        13
32.880        67
32.890        40
32.900        67
32.910        40
32.920        13
32.930        53
32.940        27
32.950        40
32.960        27
32.970        53
32.980        40
32.990        67
33.000        27
33.010        27
33.020        40
33.030        13
33.040         0
33.050        13
33.060        40
33.070        27
33.080         0
33.090        13
33.100        40
33.110        53
33.120        13
33.130        40
33.140        27
33.150        27
33.160        27
33.170        13
33.180        27
33.190         0
33.200        40
33.210        40
33.220        27
33.230        27
33.240        27
33.250        67
33.260        40
33.270        13
33.280        13
33.290        27
33.300        27
33.310        27
33.320        27
33.330        27
33.340        13
33.350        13
33.360        27
33.370        53
33.380        40
33.390        53
33.400         0
33.410        13
33.420        80
33.430        13
33.440        27
33.450        40
33.460        40
33.470        40
33.480        40
33.490        13
33.500        13
33.510        53
33.520         0
33.530        40
33.540        40
33.550        27
33.560        13
33.570        40
33.580        27
33.590        53
33.600        40
33.610         0
33.620        40
33.630        40
33.640        27
33.650        27
33.660        27
33.670        67
33.680        13
33.690        40
33.700        13
33.710         0
33.720        13
33.730        40
33.740        27
33.750         0
33.760        13
33.770        13
33.780        13
33.790        27
33.800        13
33.810        27
33.820        67
33.830        53
33.840        40
33.850        40
33.860        53
33.870         0
33.880        13
33.890        13
33.900        27
33.910        40
33.920        53
33.930        27
33.940        40
33.950        13
33.960        27
33.970        27
33.980        67
33.990         0
34.000         0
34.010        40
34.020        27
34.030        53
34.040        27
34.050         0
34.060        53
34.070        40
34.080        27
34.090        13
34.100         0
34.110        13
34.120        13
34.130        13
34.140         0
34.150        40
34.160        40
34.170        13
34.180        27
34.190        13
34.200        27
34.210         0
34.220         0
34.230        27
34.240        13
34.250        40
34.260        27
34.270        27
34.280        67
34.290        27
34.300        40
34.310        53
34.320        80
34.330        13
34.340        40
34.350         0
34.360        40
34.370        27
34.380        13
34.390        13
34.400        27
34.410         0
34.420        40
34.430        13
34.440        27
34.450        53
34.460        27
34.470         0
34.480        40
34.490        27
34.500        40
34.510        27
34.520        27
34.530        27
34.540        27
34.550        40
34.560        40
34.570        53
34.580        53
34.590        13
34.600        13
34.610        27
34.620        67
34.630        27
34.640        53
34.650        27
34.660        40
34.670        13
34.680        27
34.690        27
34.700        27
34.710        67
34.720        40
34.730        27
34.740        27
34.750        13
34.760        53
34.770        13
34.780        40
34.790        13
34.800         0
34.810         0
34.820        27
34.830         0
34.840         0
34.850        13
34.860        40
34.870         0
34.880        53
34.890        27
34.900        40
34.910        27
34.920        53
34.930        67
34.940        40
34.950        80
34.960        13
34.970        40
34.980        40
34.990        53
35.000        27
35.010        80
35.020        13
35.030       120
35.040        27
35.050        93
35.060        80
35.070       120
35.080        67
35.090        53
35.100       147
35.110       187
35.120       200
35.130        93
35.140       133
35.150       253
35.160       147
35.170       187
35.180       240
35.190       187
35.200       173
35.210       147
35.220        93
35.230        80
35.240       133
35.250       173
35.260        67
35.270       120
35.280       107
35.290        27
35.300        53
35.310        67
35.320       107
35.330        80
35.340        27
35.350        40
35.360        13
35.370        27
35.380        53
35.390         0
35.400        27
35.410        13
35.420        53
35.430        27
35.440        13
35.450        13
35.460        53
35.470        13
35.480         0
35.490        40
35.500        67
35.510        27
35.520        27
35.530        27
35.540        67
35.550         0
35.560        40
35.570        13
35.580         0
35.590        40
35.600        80
35.610        40
35.620        27
35.630        27
35.640         0
35.650        13
35.660        27
35.670        27
35.680        40
35.690        13
35.700        40
35.710        40
35.720        13
35.730        27
35.740        13
35.750        27
35.760        67
35.770        53
35.780        40
35.790        40
35.800        13
35.810        13
35.820        40
35.830         0
35.840         0
35.850        27
35.860        40
35.870        40
35.880        53
35.890        13
35.900        13
35.910        93
35.920        27
35.930        13
35.940        67
35.950        67
35.960        80
35.970        40
35.980         0
35.990        13
36.000        27
36.010        27
36.020        27
36.030        27
36.040         0
36.050         0
36.060        40
36.070        27
36.080        13
36.090         0
36.100        40
36.110        40
36.120        13
36.130        27
36.140        27
36.150        40
36.160        27
36.170        27
36.180        27
36.190        40
36.200        13
36.210        27
36.220         0
36.230        40
36.240        13
36.250        27
36.260        80
36.270        27
36.280         0
36.290        27
36.300        40
36.310         0
36.320        13
36.330         0
36.340        13
36.350        27
36.360        13
36.370        40
36.380        27
36.390        40
36.400         0
36.410         0
36.420         0
36.430        27
36.440        40
36.450        13
36.460        27
36.470        40
36.480        67
36.490        13
36.500        80
36.510        40
36.520        13
36.530        40
36.540        13
36.550         0
36.560        27
36.570         0
36.580         0
36.590         0
36.600         0
36.610        40
36.620        53
36.630        13
36.640        53
36.650        40
36.660        27
36.670        53
36.680        13
36.690        27
36.700        53
36.710        53
36.720        67
36.730        40
36.740        27
36.750        40
36.760        27
36.770        27
36.780        40
36.790         0
36.800        27
36.810         0
36.820        40
36.830        40
36.840        40
36.850        67
36.860        40
36.870        13
36.880        40
36.890        27
36.900        13
36.910        40
36.920        93
36.930        27
36.940        13
36.950         0
36.960        80
36.970        40
36.980        13
36.990        27
37.000        53
37.010        13
37.020        40
37.030        27
37.040        13
37.050        13
37.060        40
37.070        27
37.080        27
37.090        13
37.100        13
37.110        13
37.120        67
37.130        40
37.140        13
37.150        13
37.160         0
37.170        13
37.180        27
37.190        53
37.200         0
37.210        27
37.220        13
37.230        27
37.240        27
37.250         0
37.260        27
37.270        13
37.280        27
37.290        27
37.300        13
37.310        67
37.320        40
37.330        13
37.340        27
37.350        27
37.360        67
37.370        27
37.380        13
37.390        13
37.400        13
37.410        27
37.420        40
37.430        27
37.440        40
37.450        27
37.460        67
37.470        40
37.480        27
37.490        67
37.500         0
37.510        27
37.520         0
37.530         0
37.540        13
37.550         0
37.560        27
37.570         0
37.580        13
37.590        40
37.600        13
37.610        40
37.620        27
37.630         0
37.640        27
37.650        53
37.660         0
37.670        27
37.680        13
37.690        67
37.700        13
37.710        67
37.720        53
37.730        40
37.740        13
37.750        27
37.760        53
37.770        40
37.780        80
37.790        93
37.800       107
37.810       173
37.820       200
37.830       107
37.840       240
37.850       107
37.860        93
37.870        40
37.880        13
37.890        80
37.900        67
37.910        93
37.920        93
37.930        80
37.940        93
37.950       107
37.960        93
37.970        67
37.980        67
37.990        13
38.000        13
38.010        40
38.020        13
38.030        40
38.040         0
38.050        67
38.060        13
38.070        27
38.080        13
38.090        27
38.100         0
38.110        27
38.120        13
38.130        13
38.140        13
38.150        13
38.160        40
38.170        13
38.180        40
38.190        40
38.200        27
38.210        13
38.220        27
38.230        13
38.240        13
38.250        27
38.260        27
38.270        13
38.280        40
38.290        27
38.300        27
38.310        13
38.320        40
38.330         0
38.340        13
38.350        13
38.360        13
38.370         0
38.380        13
38.390        13
38.400         0
38.410        13
38.420         0
38.430        13
38.440        27
38.450        13
38.460        27
38.470        27
38.480        40
38.490        40
38.500        40
38.510        40
38.520        27
38.530         0
38.540        53
38.550        53
38.560        27
38.570        13
38.580        27
38.590        13
38.600        27
38.610        27
38.620        13
38.630        13
38.640        27
38.650        13
38.660        13
38.670        13
38.680        53
38.690        27
38.700        27
38.710        27
38.720        80
38.730         0
38.740        13
38.750         0
38.760        13
38.770        27
38.780        40
38.790        27
38.800         0
38.810         0
38.820        40
38.830        40
38.840        13
38.850        27
38.860        27
38.870        53
38.880         0
38.890        13
38.900        13
38.910         0
38.920        27
38.930        53
38.940        67
38.950         0
38.960        13
38.970        53
38.980        27
38.990        13
39.000        40
39.010        13
39.020         0
39.030        53
39.040        40
39.050        13
39.060        13
39.070        53
39.080         0
39.090        27
39.100        27
39.110        27
39.120        27
39.130        13
39.140        13
39.150        13
39.160         0
39.170        27
39.180        40
39.190         0
39.200        13
39.210        53
39.220        27
39.230        27
39.240         0
39.250        13
39.260        13
39.270        27
39.280        27
39.290        13
39.300        27
39.310        67
39.320        13
39.330        40
39.340        40
39.350        40
39.360        40
39.370        80
39.380         0
39.390        40
39.400        27
39.410        67
39.420         0
39.430        40
39.440        53
39.450        40
39.460        13
39.470        40
39.480        40
39.490        40
39.500        80
39.510        13
39.520         0
39.530        40
39.540         0
39.550        53
39.560        40
39.570        13
39.580       147
39.590        13
39.600        27
39.610        27
39.620        13
39.630        40
39.640        40
39.650        40
39.660        67
39.670        27
39.680        67
39.690        40
39.700        53
39.710        40
39.720        80
39.730        80
39.740        80
39.750        80
39.760        53
39.770       120
39.780        93
39.790        93
39.800       107
39.810       160
39.820       160
39.830       107
39.840       133
39.850       107
39.860       173
39.870       200
39.880       173
39.890       107
39.900       267
39.910       320
39.920       426
39.930       413
39.940       520
39.950       506
39.960       600
39.970       546
39.980       746
39.990       693
40.000       773
40.010       826
40.020       680
40.030       733
40.040       680
40.050       520
40.060       493
40.070       613
40.080       387
40.090       413
40.100       466
40.110       426
40.120       453
40.130       293
40.140       387
40.150       307
40.160       200
40.170       173
40.180       253
40.190       213
40.200        67
40.210        67
40.220        53
40.230       120
40.240        67
40.250        67
40.260        80
40.270       107
40.280        27
40.290        27
40.300        13
40.310        40
40.320        67
40.330        27
40.340        53
40.350        40
40.360        13
40.370        13
40.380        27
40.390         0
40.400        40
40.410        67
40.420        27
40.430        13
40.440        27
40.450        27
40.460        40
40.470        13
40.480        40
40.490        40
40.500        53
40.510        27
40.520        13
40.530        13
40.540        27
40.550        40
40.560        53
40.570        53
40.580        27
40.590        40
40.600        13
40.610         0
40.620        27
40.630        40
40.640        13
40.650        67
40.660        13
40.670        40
40.680        27
40.690        13
40.700         0
40.710        80
40.720         0
40.730        13
40.740         0
40.750        13
40.760        27
40.770        53
40.780        53
40.790        13
40.800        13
40.810        27
40.820        53
40.830        27
40.840        13
40.850        53
40.860        13
40.870        27
40.880        53
40.890        27
40.900        27
40.910        40
40.920         0
40.930        13
40.940        40
40.950        13
40.960        27
40.970        53
40.980        40
40.990         0
41.000         0
41.010        13
41.020        27
41.030        13
41.040        13
41.050        13
41.060        13
41.070        13
41.080         0
41.090        27
41.100        40
41.110        27
41.120        27
41.130        27
41.140        27
41.150        13
41.160        27
41.170        13
41.180        13
41.190        27
41.200        53
41.210         0
41.220        13
41.230         0
41.240        40
41.250        40
41.260        13
41.270         0
41.280        40
41.290        40
41.300        40
41.310        27
41.320        13
41.330         0
41.340        40
41.350        53
41.360        27
41.370        27
41.380        27
41.390        27
41.400        27
41.410        53
41.420        27
41.430        40
41.440        40
41.450        13
41.460        13
41.470        40
41.480         0
41.490        53
41.500        27
41.510        40
41.520        13
41.530        40
41.540        40
41.550        80
41.560        67
41.570       107
41.580        80
41.590        93
41.600        27
41.610        93
41.620       107
41.630        53
41.640       133
41.650       120
41.660       213
41.670       307
41.680       387
41.690       333
41.700       280
41.710       253
41.720       253
41.730       307
41.740       200
41.750       187
41.760       200
41.770       227
41.780       173
41.790       200
41.800       120
41.810       200
41.820       160
41.830        93
41.840       147
41.850       107
41.860        80
41.870        53
41.880        67
41.890        13
41.900        80
41.910        53
41.920        80
41.930        27
41.940        80
41.950        67
41.960        13
41.970        40
41.980        13
41.990        67
42.000        40
42.010        27
42.020        40
42.030        13
42.040        53
42.050        40
42.060        53
42.070        13
42.080        53
42.090        53
42.100        13
42.110        27
42.120        13
42.130         0
42.140        40
42.150         0
42.160        40
42.170         0
42.180        40
42.190        53
42.200        13
42.210        27
42.220        27
42.230        40
42.240        40
42.250        27
42.260        27
42.270        40
42.280        80
42.290        13
42.300        13
42.310        13
42.320        40
42.330        27
42.340         0
42.350        13
42.360        53
42.370        67
42.380         0
42.390         0
42.400        53
42.410        40
42.420        13
42.430        53
42.440         0
42.450        27
42.460        27
42.470         0
42.480        27
42.490        27
42.500        40
42.510        27
42.520        13
42.530        40
42.540        27
42.550        13
42.560        27
42.570         0
42.580         0
42.590        27
42.600        53
42.610        27
42.620        67
42.630         0
42.640         0
42.650        27
42.660        27
42.670        40
42.680        53
42.690        13
42.700        13
42.710        40
42.720        13
42.730        13
42.740        13
42.750         0
42.760        27
42.770        27
42.780        27
42.790        27
42.800        27
42.810        27
42.820         0
42.830        27
42.840        27
42.850         0
42.860        53
42.870        13
42.880        67
42.890        53
42.900        13
42.910         0
42.920        27
42.930         0
42.940        13
42.950        13
42.960         0
42.970         0
42.980        80
42.990        40
43.000        27
43.010        27
43.020        13
43.030        13
43.040        13
43.050        13
43.060         0
43.070         0
43.080         0
43.090        13
43.100         0
43.110        67
43.120        13
43.130        27
43.140        40
43.150        53
43.160        13
43.170        53
43.180        27
43.190        27
43.200        67
43.210        13
43.220        53
43.230        27
43.240        93
43.250        40
43.260        40
43.270         0
43.280       120
43.290        80
43.300       107
43.310       133
43.320        53
43.330       120
43.340       133
43.350        93
43.360       120
43.370       107
43.380        67
43.390       120
43.400        53
43.410        80
43.420        80
43.430        40
43.440        53
43.450        40
43.460        53
43.470        53
43.480        40
43.490        27
43.500        27
43.510        67
43.520        13
43.530        27
43.540        13
43.550        13
43.560        27
43.570        27
43.580        13
43.590         0
43.600        13
43.610        27
43.620        27
43.630        27
43.640        53
43.650        27
43.660        67
43.670        40
43.680        13
43.690         0
43.700        27
43.710        27
43.720        13
43.730        27
43.740        13
43.750        13
43.760         0
43.770        53
43.780        13
43.790        27
43.800        40
43.810        27
43.820         0
43.830        13
43.840        27
43.850         0
43.860        13
43.870        67
43.880         0
43.890        13
43.900        40
43.910        27
43.920        27
43.930        13
43.940        27
43.950        40
43.960        40
43.970        27
43.980        27
43.990        27
44.000        67
44.010        13
44.020         0
44.030        40
44.040        53
44.050        27
44.060        67
44.070        40
44.080        40
44.090        27
44.100        13
44.110         0
44.120        13
44.130         0
44.140        13
44.150        27
44.160        40
44.170        13
44.180        53
44.190        27
44.200        53
44.210         0
44.220        40
44.230        27
44.240         0
44.250        40
44.260        13
44.270        13
44.280        40
44.290        40
44.300        67
44.310        40
44.320         0
44.330        13
44.340         0
44.350        13
44.360        40
44.370         0
44.380        27
44.390        27
44.400        27
44.410        40
44.420        40
44.430        13
44.440        13
44.450        40
44.460        40
44.470         0
44.480        13
44.490        27
44.500        27
44.510        13
44.520        27
44.530        27
44.540        40
44.550         0
44.560         0
44.570         0
44.580        27
44.590        40
44.600        13
44.610        27
44.620        53
44.630        40
44.640        27
44.650         0
44.660        27
44.670        13
44.680        67
44.690        40
44.700        13
44.710        53
44.720        53
44.730        53
44.740        13
44.750        40
44.760        67
44.770        53
44.780        27
44.790         0
44.800        67
44.810        40
44.820        13
44.830        40
44.840        13
44.850         0
44.860        13
44.870        13
44.880         0
44.890        40
44.900        53
44.910        67
44.920        67
44.930        13
44.940        53
44.950        93
44.960        80
44.970        13
44.980        53
44.990        93
45.000        40
45.010        53
45.020        93
45.030        40
45.040        40
45.050       107
45.060       107
45.070        67
45.080        80
45.090        67
45.100        53
45.110        40
45.120        27
45.130        67
45.140         0
45.150        40
45.160        40
45.170        40
45.180        40
45.190        27
45.200        53
45.210        13
45.220        80
45.230        27
45.240        80
45.250        53
45.260        27
45.270        67
45.280        67
45.290        40
45.300         0
45.310        80
45.320        40
45.330        67
45.340        80
45.350       133
45.360        27
45.370        67
45.380        93
45.390        67
45.400        53
45.410        80
45.420       120
45.430        67
45.440        40
45.450       107
45.460        67
45.470       107
45.480        53
45.490        13
45.500        67
45.510        80
45.520        53
45.530        40
45.540        67
45.550        67
45.560        67
45.570        27
45.580        80
45.590        40
45.600        93
45.610        13
45.620        40
45.630        53
45.640        93
45.650        93
45.660        40
45.670        53
45.680        53
45.690        67
45.700        53
45.710        40
45.720        40
45.730        93
45.740        93
45.750        27
45.760        53
45.770        80
45.780        67
45.790        67
45.800        40
45.810        27
45.820        67
45.830        80
45.840        27
45.850        80
45.860       133
45.870        93
45.880        67
45.890       133
45.900        93
45.910        53
45.920        80
45.930       173
45.940       147
45.950       120
45.960       200
45.970        80
45.980       133
45.990        93
46.000       160
46.010        67
46.020       120
46.030       173
46.040       213
46.050       173
46.060       147
46.070       200
46.080       133
46.090       200
46.100       147
46.110       187
46.120       173
46.130       347
46.140       293
46.150       267
46.160       267
46.170       387
46.180       333
46.190       413
46.200       333
46.210       413
46.220       426
46.230       693
46.240       760
46.250       560
46.260       666
46.270       813
46.280       866
46.290       880
46.300      1080
46.310      1093
46.320      1306
46.330      1293
46.340      1466
46.350      1386
46.360      1706
46.370      2146
46.380      2132
46.390      2292
46.400      2372
46.410      3012
46.420      3039
46.430      3559
46.440      3705
46.450      3932
46.460      3932
46.470      4771
46.480      5025
46.490      4558
46.500      4998
46.510      4985
46.520      5171
46.530      5704
46.540      5491
46.550      5291
46.560      5398
46.570      4971
46.580      5478
46.590      5345
46.600      4851
46.610      5131
46.620      4678
46.630      4225
46.640      4238
46.650      4252
46.660      3652
46.670      3479
46.680      2959
46.690      3439
46.700      2906
46.710      2812
46.720      2532
46.730      2306
46.740      1679
46.750      1386
46.760      1613
46.770      1439
46.780      1413
46.790      1133
46.800      1133
46.810       880
46.820       880
46.830       906
46.840       813
46.850       773
46.860       387
46.870       546
46.880       533
46.890       506
46.900       400
46.910       453
46.920       413
46.930       320
46.940       466
46.950       267
46.960       347
46.970       253
46.980       227
46.990       253
47.000       133
47.010       253
47.020       267
47.030       213
47.040       293
47.050       280
47.060       160
47.070       200
47.080       107
47.090       133
47.100       147
47.110       133
47.120       107
47.130        80
47.140       160
47.150        80
47.160       173
47.170       107
47.180       187
47.190       107
47.200        53
47.210        67
47.220       107
47.230       187
47.240       120
47.250       107
47.260        80
47.270       107
47.280        40
47.290       160
47.300        80
47.310       173
47.320        80
47.330       107
47.340       133
47.350        40
47.360        80
47.370       107
47.380       173
47.390        93
47.400        67
47.410        27
47.420        93
47.430       107
47.440       120
47.450        40
47.460        53
47.470        40
47.480       120
47.490        67
47.500       107
47.510        80
47.520        67
47.530       120
47.540        53
47.550        40
47.560        40
47.570        53
47.580       120
47.590        40
47.600        13
47.610        67
47.620        67
47.630        67
47.640        67
47.650        27
47.660        53
47.670        53
47.680        27
47.690        27
47.700        27
47.710        40
47.720       107
47.730        40
47.740        80
47.750        53
47.760        13
47.770        67
47.780        27
47.790        53
47.800       107
47.810        67
47.820        40
47.830        53
47.840        13
47.850        93
47.860        40
47.870        27
47.880        13
47.890        67
47.900        40
47.910        27
47.920        80
47.930        67
47.940        13
47.950        53
47.960        40
47.970        53
47.980        13
47.990        53
48.000        80
48.010        80
48.020        13
48.030        80
48.040        40
48.050        27
48.060        27
48.070        40
48.080        40
48.090        40
48.100        53
48.110        27
48.120        27
48.130        13
48.140        53
48.150        40
48.160        93
48.170        67
48.180        27
48.190        40
48.200        40
48.210        53
48.220        40
48.230        27
48.240        53
48.250        27
48.260         0
48.270        40
48.280        27
48.290        40
48.300        67
48.310        40
48.320        27
48.330        67
48.340        27
48.350        67
48.360        27
48.370        27
48.380        27
48.390        27
48.400        27
48.410        40
48.420        80
48.430        13
48.440         0
48.450        53
48.460        27
48.470        40
48.480        40
48.490        27
48.500        53
48.510        40
48.520        27
48.530        13
48.540        40
48.550        27
48.560         0
48.570        27
48.580        13
48.590        53
48.600        80
48.610        67
48.620         0
48.630        67
48.640        13
48.650        40
48.660        40
48.670        53
48.680        40
48.690         0
48.700        67
48.710         0
48.720        40
48.730        80
48.740        53
48.750        13
48.760        13
48.770        13
48.780        27
48.790        67
48.800        40
48.810        13
48.820        53
48.830        13
48.840        27
48.850        40
48.860        53
48.870        40
48.880        27
48.890        27
48.900        27
48.910        13
48.920        27
48.930        40
48.940        40
48.950         0
48.960        40
48.970        13
48.980        53
48.990        13
49.000        13
49.010        53
49.020        13
49.030        27
49.040        13
49.050        27
49.060        53
49.070        53
49.080        40
49.090        67
49.100        40
49.110        13
49.120        53
49.130        27
49.140         0
49.150        27
49.160        13
49.170        13
49.180        13
49.190        40
49.200        53
49.210        27
49.220        27
49.230        13
49.240        40
49.250        67
49.260        27
49.270        13
49.280        40
49.290        13
49.300        13
49.310        13
49.320        53
49.330        13
49.340        27
49.350        40
49.360        13
49.370        13
49.380        13
49.390        27
49.400        27
49.410        13
49.420        40
49.430        27
49.440        27
49.450        27
49.460        67
49.470        27
49.480        40
49.490        27
49.500        40
49.510        53
49.520        13
49.530        80
49.540        27
49.550        13
49.560        13
49.570        13
49.580        40
49.590        27
49.600        67
49.610        13
49.620        40
49.630         0
49.640        40
49.650         0
49.660        53
49.670        13
49.680        40
49.690        67
49.700        27
49.710        13
49.720        13
49.730        40
49.740        13
49.750       107
49.760        27
49.770        40
49.780        53
49.790        27
49.800        27
49.810        53
49.820        27
49.830        27
49.840        13
49.850        13
49.860        27
49.870         0
49.880        27
49.890        53
49.900        13
49.910         0
49.920        40
49.930        13
49.940        53
49.950        13
49.960        53
49.970        67
49.980        27
49.990        53
50.000        53
50.010        13
50.020         0
50.030        53
50.040        27
50.050        13
50.060        53
50.070        40
50.080        13
50.090        13
50.100        40
50.110        13
50.120        40
50.130        13
50.140        27
50.150        13
50.160        40
50.170        40
50.180        53
50.190        27
50.200        40
50.210        27
50.220        13
50.230        13
50.240        27
50.250        27
50.260        27
50.270        40
50.280         0
50.290        27
50.300        53
50.310        53
50.320        40
50.330        27
50.340        13
50.350        40
50.360        13
50.370        40
50.380         0
50.390        53
50.400        27
50.410        27
50.420        13
50.430        40
50.440        67
50.450        27
50.460        40
50.470         0
50.480        27
50.490         0
50.500        27
50.510        40
50.520        13
50.530        13
50.540        53
50.550        27
50.560        53
50.570        40
50.580        13
50.590        27
50.600        27
50.610        13
50.620        40
50.630        40
50.640        40
50.650        53
50.660        13
50.670        27
50.680        13
50.690        27
50.700        93
50.710        27
50.720        27
50.730        13
50.740        27
50.750        13
50.760        53
50.770        40
50.780        40
50.790        27
50.800        27
50.810        13
50.820        13
50.830        53
50.840        13
50.850        27
50.860        13
50.870        67
50.880        13
50.890        80
50.900        27
50.910        67
50.920        27
50.930        27
50.940        13
50.950        27
50.960        13
50.970         0
50.980        40
50.990        40
51.000        13
51.010        13
51.020        27
51.030        13
51.040        40
51.050        27
51.060        40
51.070        27
51.080        53
51.090        13
51.100        53
51.110        67
51.120         0
51.130         0
51.140        27
51.150        13
51.160        27
51.170        53
51.180        13
51.190        27
51.200        40
51.210        40
51.220        40
51.230        27
51.240        27
51.250        27
51.260        27
51.270        40
51.280        27
51.290        40
51.300        27
51.310        13
51.320        67
51.330        27
51.340        13
51.350        27
51.360        27
51.370        13
51.380        27
51.390        13
51.400        53
51.410        13
51.420        27
51.430         0
51.440        13
51.450        27
51.460        27
51.470        40
51.480        40
51.490        67
51.500        67
51.510        27
51.520        13
51.530        67
51.540        13
51.550        13
51.560        27
51.570        27
51.580        40
51.590        27
51.600        27
51.610        13
51.620        40
51.630        67
51.640        27
51.650        27
51.660        13
51.670        27
51.680        27
51.690        27
51.700        40
51.710         0
51.720        13
51.730        40
51.740        53
51.750         0
51.760        13
51.770        27
51.780        40
51.790        53
51.800        13
51.810        27
51.820        13
51.830        80
51.840        13
51.850        13
51.860         0
51.870        27
51.880        13
51.890        40
51.900        53
51.910        13
51.920        13
51.930         0
51.940        13
51.950        40
51.960        13
51.970        40
51.980        27
51.990        13
52.000        27
52.010        53
52.020        13
52.030        13
52.040        13
52.050         0
52.060        53
52.070        40
52.080        13
52.090        13
52.100        27
52.110        40
52.120        13
52.130        27
52.140        13
52.150        40
52.160        53
52.170         0
52.180        27
52.190         0
52.200        13
52.210        13
52.220        27
52.230        53
52.240        40
52.250        40
52.260         0
52.270        53
52.280        13
52.290         0
52.300        40
52.310        27
52.320        53
52.330        27
52.340        40
52.350        40
52.360        53
52.370        27
52.380        67
52.390        80
52.400        40
52.410        27
52.420        13
52.430        80
52.440        40
52.450        40
52.460        80
52.470        93
52.480        40
52.490        40
52.500        93
52.510        53
52.520        67
52.530        13
52.540        40
52.550       120
52.560       107
52.570       187
52.580       227
52.590       213
52.600       213
52.610       213
52.620       213
52.630       160
52.640       147
52.650        40
52.660        67
52.670        67
52.680        80
52.690        80
52.700       107
52.710        93
52.720       107
52.730       147
52.740        93
52.750       133
52.760        80
52.770        40
52.780        93
52.790        67
52.800        67
52.810        40
52.820        13
52.830        13
52.840        13
52.850        13
52.860        13
52.870        53
52.880        27
52.890        53
52.900        13
52.910        80
52.920         0
52.930        53
52.940         0
52.950        13
52.960         0
52.970        27
52.980        40
52.990        27
53.000        40
53.010         0
53.020        13
53.030         0
53.040        27
53.050         0
53.060        40
53.070        13
53.080        40
53.090        13
53.100         0
53.110        13
53.120        27
53.130        40
53.140        13
53.150         0
53.160        13
53.170        27
53.180        27
53.190        27
53.200        53
53.210        13
53.220         0
53.230        13
53.240        13
53.250         0
53.260        13
53.270        40
53.280        40
53.290        13
53.300         0
53.310         0
53.320        27
53.330        13
53.340         0
53.350        27
53.360        13
53.370        40
53.380        27
53.390        53
53.400         0
53.410        40
53.420         0
53.430        27
53.440        27
53.450        27
53.460        13
53.470        13
53.480        53
53.490        27
53.500         0
53.510        13
53.520        27
53.530        27
53.540         0
53.550        13
53.560        27
53.570         0
53.580         0
53.590        27
53.600         0
53.610        40
53.620        40
53.630        40
53.640        27
53.650         0
53.660        27
53.670        13
53.680        13
53.690        13
53.700        27
53.710        53
53.720        13
53.730         0
53.740        27
53.750         0
53.760        27
53.770        13
53.780        13
53.790        13
53.800        53
53.810        27
53.820        27
53.830        53
53.840        40
53.850        40
53.860        13
53.870         0
53.880        13
53.890        27
53.900        13
53.910        40
53.920        27
53.930        27
53.940        13
53.950         0
53.960        13
53.970        13
53.980        13
53.990        13
54.000        13
54.010        13
54.020        13
54.030        13
54.040        40
54.050        27
54.060         0
54.070        27
54.080        27
54.090        40
54.100        27
54.110        40
54.120        27
54.130         0
54.140        53
54.150        27
54.160        67
54.170        40
54.180        13
54.190        40
54.200        13
54.210         0
54.220        27
54.230        40
54.240        27
54.250        13
54.260        27
54.270        13
54.280        13
54.290        13
54.300        27
54.310         0
54.320        53
54.330        13
54.340         0
54.350        13
54.360        13
54.370        13
54.380        27
54.390        40
54.400        27
54.410        13
54.420        40
54.430        13
54.440        27
54.450         0
54.460        13
54.470        13
54.480         0
54.490        13
54.500        13
54.510        27
54.520        13
54.530         0
54.540         0
54.550        27
54.560        13
54.570        13
54.580        40
54.590        27
54.600        40
54.610         0
54.620        27
54.630        13
54.640        13
54.650        27
54.660        13
54.670        13
54.680        67
54.690        27
54.700         0
54.710         0
54.720        13
54.730         0
54.740        40
54.750         0
54.760        13
54.770        40
54.780        13
54.790         0
54.800        13
54.810         0
54.820        53
54.830         0
54.840        13
54.850        13
54.860        13
54.870        27
54.880        40
54.890        13
54.900        27
54.910        67
54.920        13
54.930        27
54.940        67
54.950        13
54.960        13
54.970        13
54.980        13
54.990        13
55.000        13
55.010        27
55.020        13
55.030        27
55.040        13
55.050         0
55.060        53
55.070        13
55.080        13
55.090         0
55.100        13
55.110        13
55.120        13
55.130        13
55.140        13
55.150         0
55.160        27
55.170        27
55.180        40
55.190         0
55.200        13
55.210        13
55.220        53
55.230         0
55.240        40
55.250        40
55.260        13
55.270        13
55.280        40
55.290        40
55.300         0
55.310         0
55.320        40
55.330        27
55.340        13
55.350        40
55.360        40
55.370        13
55.380         0
55.390        27
55.400        13
55.410        13
55.420        67
55.430        40
55.440        13
55.450        27
55.460        40
55.470        13
55.480        27
55.490         0
55.500        40
55.510        27
55.520        13
55.530        40
55.540         0
55.550        13
55.560        67
55.570        13
55.580        40
55.590        13
55.600        27
55.610        27
55.620         0
55.630        13
55.640        40
55.650        27
55.660        27
55.670        27
55.680        40
55.690         0
55.700         0
55.710        27
55.720        40
55.730        27
55.740        27
55.750         0
55.760        13
55.770        27
55.780        13
55.790        27
55.800         0
55.810        27
55.820         0
55.830        40
55.840        13
55.850        13
55.860        13
55.870        13
55.880        13
55.890        40
55.900         0
55.910        13
55.920        67
55.930         0
55.940        13
55.950         0
55.960        13
55.970        13
55.980        13
55.990        40
56.000        40
56.010        27
56.020        13
56.030        13
56.040        27
56.050        27
56.060        13
56.070        27
56.080        13
56.090         0
56.100        27
56.110        27
56.120        27
56.130         0
56.140        13
56.150        13
56.160         0
56.170        27
56.180        13
56.190        13
56.200        27
56.210        27
56.220        27
56.230         0
56.240        13
56.250        13
56.260        13
56.270        40
56.280        40
56.290        27
56.300         0
56.310        27
56.320        27
56.330        27
56.340        13
56.350        13
56.360        13
56.370        27
56.380         0
56.390        13
56.400        27
56.410         0
56.420        13
56.430        40
56.440        40
56.450        27
56.460        27
56.470        27
56.480        40
56.490        27
56.500        13
56.510        13
56.520         0
56.530        13
56.540        13
56.550         0
56.560        13
56.570        40
56.580        40
56.590        13
56.600         0
56.610        40
56.620         0
56.630        13
56.640        13
56.650         0
56.660         0
56.670         0
56.680         0
56.690        27
56.700        13
56.710        13
56.720        27
56.730         0
56.740        13
56.750        40
56.760        27
56.770        13
56.780        13
56.790        13
56.800        13
56.810        13
56.820        13
56.830        27
56.840         0
56.850        27
56.860         0
56.870        13
56.880        40
56.890        53
56.900        13
56.910        13
56.920        27
56.930        40
56.940        27
56.950        27
56.960         0
56.970        27
56.980        40
56.990         0
57.000        13
57.010        27
57.020         0
57.030        27
57.040        13
57.050        13
57.060        27
57.070         0
57.080        13
57.090         0
57.100        27
57.110         0
57.120        27
57.130         0
57.140         0
57.150        27
57.160         0
57.170        27
57.180         0
57.190        27
57.200        27
57.210        40
57.220         0
57.230        40
57.240        40
57.250        27
57.260        67
57.270        13
57.280        53
57.290        13
57.300        27
57.310        13
57.320        27
57.330        67
57.340        40
57.350        27
57.360        40
57.370        53
57.380        27
57.390        27
57.400        80
57.410        67
57.420        53
57.430        80
57.440        67
57.450       213
57.460       213
57.470       173
57.480       253
57.490       133
57.500       160
57.510       173
57.520       213
57.530       160
57.540       160
57.550        67
57.560        67
57.570        53
57.580        93
57.590       187
57.600        67
57.610       133
57.620        93
57.630        80
57.640       173
57.650        80
57.660       160
57.670        93
57.680       133
57.690       107
57.700        80
57.710        53
57.720        80
57.730        40
57.740        40
57.750        40
57.760        40
57.770        80
57.780        53
57.790        93
57.800        40
57.810        40
57.820        80
57.830        53
57.840        27
57.850        27
57.860        53
57.870        13
57.880        80
57.890        13
57.900        27
57.910        53
57.920        53
57.930        53
57.940        40
57.950        40
57.960        80
57.970        53
57.980        53
57.990        13
58.000        27
58.010        27
58.020        40
58.030        27
58.040        53
58.050        53
58.060        80
58.070        40
58.080        53
58.090        27
58.100        13
58.110        27
58.120        27
58.130        53
58.140        13
58.150        27
58.160         0
58.170         0
58.180        13
58.190         0
58.200        40
58.210         0
58.220        27
58.230         0
58.240        53
58.250        27
58.260        27
58.270        13
58.280        13
58.290         0
58.300        27
58.310         0
58.320        13
58.330        13
58.340         0
58.350        53
58.360        67
58.370        27
58.380         0
58.390        27
58.400        27
58.410        27
58.420        27
58.430        13
58.440        27
58.450         0
58.460        80
58.470        40
58.480        13
58.490        13
58.500        13
58.510        27
58.520        13
58.530         0
58.540        27
58.550        13
58.560        13
58.570         0
58.580        40
58.590        27
58.600        13
58.610         0
58.620        13
58.630        27
58.640        27
58.650        67
58.660        13
58.670         0
58.680        13
58.690        13
58.700         0
58.710        27
58.720        27
58.730         0
58.740        13
58.750         0
58.760        13
58.770        13
58.780        27
58.790         0
58.800        13
58.810        13
58.820         0
58.830         0
58.840        13
58.850        13
58.860        13
58.870        40
58.880        40
58.890        13
58.900        13
58.910         0
58.920        13
58.930        27
58.940        27
58.950        13
58.960        27
58.970         0
58.980        13
58.990         0
59.000        27
59.010         0
59.020        13
59.030        13
59.040        40
59.050        27
59.060        13
59.070        40
59.080        13
59.090         0
59.100        53
59.110        40
59.120        40
59.130        13
59.140        40
59.150        40
59.160        13
59.170        27
59.180        13
59.190        27
59.200         0
59.210        13
59.220         0
59.230        13
59.240        13
59.250        27
59.260         0
59.270        13
59.280         0
59.290        13
59.300         0
59.310         0
59.320        13
59.330        40
59.340        40
59.350        13
59.360        40
59.370        27
59.380        13
59.390        40
59.400        13
59.410        53
59.420        13
59.430        27
59.440         0
59.450        13
59.460        27
59.470        40
59.480        13
59.490        13
59.500         0
59.510        27
59.520        13
59.530        27
59.540         0
59.550        27
59.560        13
59.570         0
59.580         0
59.590         0
59.600         0
59.610        13
59.620         0
59.630        13
59.640         0
59.650         0
59.660        27
59.670         0
59.680        13
59.690        27
59.700         0
59.710        13
59.720        27
59.730         0
59.740        13
59.750        27
59.760        27
59.770        27
59.780        27
59.790        27
59.800        27
59.810        13
59.820         0
59.830        40
59.840        27
59.850        13
59.860        40
59.870        13
59.880        27
59.890        13
59.900        27
59.910        67
59.920        27
59.930        13
59.940        27
59.950        40
59.960        27
59.970         0
59.980         0
59.990         0
60.000         0
