20.000        53
20.010        40
20.020        27
20.030        40
20.040        13
20.050        67
20.060        53
20.070        80
20.080        27
20.090        67
20.100        13
20.110        27
20.120        40
20.130        27
20.140        53
20.150        53
20.160        40
20.170        27
20.180        67
20.190        53
20.200        40
20.210        80
20.220        53
20.230        53
20.240        40
20.250        27
20.260        40
20.270        53
20.280        67
20.290        67
20.300        40
20.310        80
20.320         0
20.330        80
20.340        40
20.350        27
20.360        13
20.370        40
20.380        93
20.390        40
20.400        40
20.410        93
20.420        53
20.430        27
20.440        27
20.450        13
20.460        40
20.470        13
20.480        13
20.490        13
20.500        40
20.510        53
20.520        13
20.530        53
20.540        93
20.550        80
20.560        93
20.570        13
20.580        80
20.590        27
20.600        80
20.610        27
20.620        40
20.630        53
20.640        80
20.650        13
20.660        27
20.670        27
20.680        40
20.690        53
20.700        80
20.710        27
20.720        27
20.730        13
20.740        40
20.750        53
20.760        13
20.770        67
20.780        40
20.790        53
20.800        80
20.810        67
20.820        27
20.830        40
20.840        53
20.850        27
20.860        13
20.870        53
20.880        13
20.890        67
20.900        13
20.910        40
20.920        40
20.930        27
20.940        80
20.950        67
20.960        53
20.970        40
20.980        67
20.990        40
21.000        27
21.010        27
21.020        27
21.030        27
21.040        27
21.050        40
21.060        67
21.070        40
21.080        27
21.090        27
21.100        40
21.110        40
21.120        27
21.130        27
21.140        27
21.150        67
21.160        53
21.170        80
21.180        67
21.190        27
21.200        13
21.210        80
21.220        40
21.230        40
21.240        13
21.250        27
21.260        80
21.270        13
21.280        40
21.290        13
21.300        53
21.310        40
21.320        67
21.330        40
21.340        67
21.350        27
21.360        13
21.370        93
21.380        67
21.390        67
21.400        27
21.410        53
21.420        53
21.430        53
21.440        53
21.450        40
21.460        13
21.470        27
21.480        40
21.490        40
21.500        93
21.510        53
21.520         0
21.530        67
21.540        53
21.550        67
21.560        40
21.570        13
21.580        27
21.590        27
21.600        67
21.610        93
21.620        13
21.630        80
21.640        53
21.650        13
21.660        53
21.670        27
21.680        53
21.690        53
21.700        13
21.710        53
21.720        27
21.730        27
21.740        67
21.750        67
21.760        27
21.770        27
21.780        27
21.790        27
21.800         0
21.810        13
21.820        13
21.830        67
21.840        53
21.850        53
21.860        67
21.870        27
21.880        67
21.890        53
21.900        13
21.910        67
21.920        53
21.930        27
21.940        40
21.950        27
21.960        53
21.970        93
21.980        40
21.990        40
22.000        67
22.010        27
22.020        40
22.030        67
22.040         0
22.050        40
22.060        13
22.070        53
22.080        40
22.090        53
22.100        27
22.110        40
22.120        40
22.130        40
22.140        13
22.150        27
22.160        80
22.170        67
22.180        67
22.190        40
22.200        53
22.210        13
22.220        40
22.230        27
22.240        67
22.250        27
22.260        40
22.270        13
22.280        53
22.290        80
22.300        40
22.310        53
22.320        27
22.330        93
22.340        40
22.350        80
22.360        40
22.370         0
22.380        53
22.390        53
22.400        93
22.410        40
22.420        93
22.430        93
22.440        53
22.450        80
22.460        40
22.470        40
22.480        67
22.490        53
22.500        93
22.510        53
22.520       107
22.530        93
22.540        67
22.550       120
22.560       187
22.570       147
22.580       133
22.590       147
22.600       120
22.610       133
22.620       187
22.630       213
22.640       320
22.650       227
22.660       360
22.670       280
22.680       213
22.690       347
22.700       280
22.710       320
22.720       347
22.730       400
22.740       320
22.750       253
22.760       426
22.770       400
22.780       280
22.790       293
22.800       387
22.810       240
22.820       147
22.830       360
22.840       253
22.850       253
22.860       240
22.870       160
22.880       107
22.890       147
22.900       107
22.910       213
22.920       120
22.930       147
22.940       107
22.950        80
22.960        93
22.970        40
22.980        13
22.990       160
23.000        67
23.010        53
23.020        40
23.030        53
23.040        27
23.050       120
23.060        40
23.070        80
23.080        80
23.090        27
23.100        93
23.110        80
23.120        40
23.130        93
23.140        27
23.150       107
23.160        13
23.170        80
23.180        40
23.190        27
23.200        67
23.210        27
23.220        53
23.230        53
23.240        80
23.250        40
23.260        80
23.270        40
23.280        13
23.290        27
23.300        67
23.310        53
23.320        80
23.330        53
23.340        40
23.350        53
23.360        13
23.370        27
23.380        80
23.390        27
23.400        40
23.410        53
23.420        53
23.430        53
23.440        27
23.450        40
23.460        53
23.470        27
23.480        27
23.490        13
23.500        67
23.510        27
23.520        80
23.530        53
23.540        67
23.550        13
23.560        67
23.570        67
23.580        27
23.590        40
23.600        67
23.610         0
23.620        13
23.630        27
23.640        13
23.650        53
23.660        13
23.670        13
23.680        27
23.690        27
23.700        27
23.710        27
23.720        13
23.730        40
23.740        93
23.750        53
23.760        13
23.770        53
23.780        27
23.790        27
23.800        53
23.810        53
23.820        13
23.830        13
23.840        53
23.850        40
23.860        40
23.870        13
23.880        40
23.890        67
23.900        40
23.910        40
23.920        67
23.930        27
23.940        27
23.950        27
23.960        53
23.970        67
23.980        67
23.990        27
24.000        40
24.010        40
24.020         0
24.030        13
24.040        27
24.050        27
24.060        40
24.070        40
24.080        80
24.090        40
24.100        13
24.110         0
24.120        13
24.130        27
24.140         0
24.150        40
24.160        13
24.170        27
24.180        27
24.190        40
24.200        40
24.210       120
24.220        67
24.230        53
24.240        40
24.250        27
24.260        67
24.270        53
24.280        40
24.290        27
24.300        67
24.310        67
24.320        40
24.330        40
24.340        40
24.350        40
24.360        13
24.370        13
24.380        40
24.390        40
24.400        40
24.410        27
24.420        13
24.430        40
24.440        53
24.450        27
24.460        40
24.470        53
24.480        27
24.490        67
24.500        27
24.510        40
24.520        53
24.530        67
24.540        40
24.550        40
24.560        93
24.570        27
24.580        13
24.590        27
24.600        27
24.610        27
24.620        27
24.630        40
24.640        40
24.650        53
24.660        53
24.670        80
24.680        27
24.690        27
24.700         0
24.710        27
24.720        27
24.730        27
24.740        13
24.750        40
24.760        53
24.770        40
24.780        53
24.790        53
24.800        13
24.810        27
24.820        13
24.830        27
24.840        53
24.850        67
24.860        40
24.870        67
24.880        40
24.890        13
24.900        53
24.910        53
24.920         0
24.930        67
24.940        40
24.950        80
24.960        27
24.970         0
24.980        40
24.990        13
25.000        13
25.010        40
25.020        40
25.030        93
25.040        53
25.050         0
25.060        13
25.070        40
25.080        40
25.090        27
25.100        40
25.110        67
25.120        40
25.130        13
25.140        27
25.150        27
25.160        40
25.170        40
25.180         0
25.190        80
25.200        27
25.210        27
25.220        40
25.230        27
25.240        40
25.250        27
25.260        53
25.270        80
25.280        27
25.290        27
25.300        27
25.310        40
25.320        27
25.330        40
25.340        27
25.350        27
25.360        53
25.370        40
25.380        53
25.390        93
25.400        27
25.410        13
25.420        53
25.430        40
25.440        27
25.450        27
25.460        27
25.470        67
25.480        27
25.490        53
25.500        40
25.510        53
25.520       107
25.530        53
25.540        67
25.550        53
25.560       147
25.570       147
25.580       147
25.590       187
25.600       120
25.610       160
25.620        80
25.630       107
25.640       120
25.650        67
25.660       120
25.670       120
25.680        53
25.690        80
25.700        27
25.710        40
25.720        13
25.730        40
25.740        53
25.750        53
25.760        27
25.770        40
25.780        27
25.790        27
25.800        13
25.810        27
25.820        27
25.830       120
25.840        13
25.850        53
25.860        40
25.870        80
25.880        53
25.890        53
25.900        40
25.910         0
25.920        40
25.930        27
25.940        27
25.950        40
25.960        67
25.970        13
25.980        27
25.990        27
26.000        27
26.010        93
26.020        40
26.030        13
26.040        40
26.050        13
26.060        13
26.070        40
26.080        40
26.090        53
26.100        40
26.110        53
26.120        40
26.130        40
26.140        27
26.150        27
26.160        53
26.170        27
26.180        27
26.190        27
26.200         0
26.210        40
26.220        53
26.230        40
26.240        67
26.250        27
26.260        67
26.270         0
26.280         0
26.290        53
26.300         0
26.310        27
26.320         0
26.330        40
26.340        67
26.350        53
26.360        40
26.370        13
26.380        27
26.390        40
26.400        40
26.410        40
26.420        67
26.430        27
26.440        13
26.450        27
26.460        40
26.470        40
26.480        40
26.490        13
26.500        40
26.510        13
26.520        13
26.530        13
26.540        27
26.550        27
26.560        40
26.570         0
26.580        40
26.590        67
26.600        13
26.610        27
26.620        13
26.630        67
26.640        53
26.650        27
26.660        53
26.670        13
26.680        40
26.690        40
26.700        53
26.710        13
26.720        27
26.730        40
26.740        40
26.750        27
26.760        40
26.770        13
26.780         0
26.790        40
26.800        53
26.810        80
26.820        53
26.830        27
26.840        13
26.850        13
26.860        53
26.870        13
26.880        13
26.890        27
26.900        67
26.910        53
26.920        53
26.930        27
26.940        53
26.950        27
26.960        13
26.970        40
26.980        40
26.990        27
27.000        13
27.010        40
27.020        13
27.030        13
27.040        40
27.050        13
27.060        53
27.070        40
27.080        13
27.090         0
27.100        40
27.110        13
27.120        67
27.130        27
27.140        40
27.150        40
27.160        80
27.170        13
27.180        13
27.190        67
27.200        27
27.210        13
27.220        13
27.230        27
27.240        53
27.250        27
27.260        53
27.270        13
27.280        27
27.290        27
27.300        40
27.310        40
27.320         0
27.330         0
27.340         0
27.350        27
27.360        27
27.370        13
27.380        13
27.390        40
27.400        40
27.410        40
27.420        27
27.430        40
27.440        27
27.450        40
27.460        53
27.470        13
27.480        40
27.490        13
27.500        13
27.510        93
27.520        27
27.530        27
27.540         0
27.550        27
27.560        53
27.570        40
27.580        93
27.590        40
27.600        27
27.610        13
27.620        13
27.630        27
27.640        40
27.650        27
27.660        27
27.670        13
27.680        67
27.690        40
27.700        80
27.710        27
27.720        27
27.730        93
27.740        13
27.750        27
27.760        53
27.770        53
27.780        40
27.790        27
27.800        27
27.810        27
27.820        27
27.830        53
27.840         0
27.850        13
27.860        67
27.870         0
27.880        53
27.890        67
27.900        13
27.910        67
27.920        27
27.930        27
27.940        13
27.950        13
27.960         0
27.970        67
27.980        40
27.990        53
28.000        27
28.010        80
28.020        13
28.030        40
28.040        40
28.050        27
28.060        13
28.070        80
28.080        40
28.090        13
28.100        13
28.110        40
28.120        40
28.130        27
28.140        13
28.150        40
28.160        53
28.170        13
28.180        40
28.190        40
28.200       107
28.210        13
28.220        67
28.230        27
28.240        13
28.250        13
28.260        40
28.270        13
28.280         0
28.290        27
28.300        40
28.310        40
28.320        13
28.330         0
28.340        40
28.350        13
28.360         0
28.370         0
28.380        53
28.390         0
28.400        27
28.410        53
28.420        13
28.430        67
28.440        27
28.450         0
28.460         0
28.470        27
28.480        40
28.490        40
28.500        40
28.510        13
28.520        40
28.530        13
28.540        40
28.550        40
28.560        27
28.570        27
28.580        27
28.590         0
28.600        40
28.610        27
28.620         0
28.630         0
28.640        40
28.650        13
28.660         0
28.670        53
28.680         0
28.690        40
28.700        27
28.710        13
28.720        53
28.730        27
28.740        13
28.750        40
28.760        40
28.770        13
28.780        40
28.790        40
28.800        13
28.810        27
28.820        40
28.830        40
28.840        27
28.850         0
28.860        27
28.870        13
28.880        27
28.890        13
28.900        13
28.910        27
28.920        67
28.930        27
28.940        27
28.950        13
28.960        13
28.970        27
28.980        27
28.990        27
29.000        40
29.010         0
29.020        67
29.030        13
29.040        53
29.050        13
29.060         0
29.070        40
29.080        53
29.090        27
29.100        53
29.110        27
29.120        40
29.130        13
29.140        27
29.150        13
29.160        40
29.170        40
29.180        40
29.190        53
29.200        27
29.210        27
29.220        40
29.230        40
29.240        27
29.250         0
29.260        13
29.270        40
29.280        27
29.290        27
29.300        67
29.310        27
29.320        13
29.330        27
29.340        27
29.350         0
29.360         0
29.370        40
29.380        13
29.390         0
29.400        27
29.410        53
29.420        13
29.430        13
29.440        13
29.450        13
29.460        67
29.470        40
29.480        40
29.490        53
29.500        53
29.510        27
29.520        40
29.530        27
29.540        13
29.550        40
29.560        13
29.570        27
29.580        27
29.590        13
29.600         0
29.610         0
29.620        13
29.630        27
29.640        13
29.650        13
29.660        27
29.670        80
29.680        27
29.690        13
29.700        27
29.710        13
29.720        13
29.730        93
29.740         0
29.750        13
29.760        40
29.770        27
29.780        40
29.790        13
29.800        40
29.810        53
29.820        27
29.830        53
29.840        40
29.850        13
29.860         0
29.870        13
29.880        27
29.890        13
29.900         0
29.910        27
29.920        67
29.930        40
29.940        27
29.950        13
29.960        53
29.970        53
29.980        67
29.990        53
30.000        27
30.010        67
30.020        40
30.030        53
30.040         0
30.050        13
30.060        40
30.070        27
30.080        67
30.090        13
30.100         0
30.110        27
30.120        13
30.130        27
30.140        13
30.150        13
30.160        53
30.170        40
30.180        27
30.190        27
30.200         0
30.210        40
30.220        27
30.230        40
30.240        27
30.250        40
30.260         0
30.270        27
30.280        40
30.290        27
30.300        27
30.310        40
30.320        40
30.330        27
30.340        40
30.350        27
30.360        27
30.370        27
30.380        27
30.390        40
30.400        27
30.410        40
30.420        27
30.430        13
30.440        27
30.450        27
30.460        27
30.470         0
30.480        40
30.490        13
30.500        27
30.510         0
30.520        40
30.530         0
30.540        40
30.550        27
30.560        27
30.570        53
30.580        13
30.590        13
30.600        40
30.610        67
30.620        13
30.630        40
30.640         0
30.650        27
30.660        40
30.670        27
30.680        53
30.690        27
30.700        40
30.710        13
30.720        13
30.730        40
30.740        40
30.750        40
30.760        53
30.770        27
30.780         0
30.790        27
30.800        27
30.810        13
30.820         0
30.830        40
30.840        53
30.850        53
30.860        13
30.870        27
30.880        40
30.890        40
30.900        13
30.910        13
30.920        13
30.930        13
30.940         0
30.950        40
30.960        27
30.970        40
30.980         0
30.990        13
31.000        13
31.010        27
31.020        27
31.030        13
31.040        27
31.050        40
31.060         0
31.070        13
31.080        27
31.090        40
31.100        13
31.110        27
31.120         0
31.130        13
31.140        27
31.150        53
31.160        67
31.170        27
31.180        13
31.190         0
31.200        13
31.210         0
31.220        13
31.230        27
31.240         0
31.250        13
31.260        13
31.270         0
31.280         0
31.290        27
31.300        40
31.310        53
31.320        40
31.330        53
31.340        13
31.350        40
31.360        27
31.370        40
31.380        40
31.390        53
31.400         0
31.410        40
31.420        13
31.430        13
31.440        13
31.450        13
31.460        13
31.470        27
31.480        40
31.490        27
31.500        40
31.510        27
31.520        27
31.530        27
31.540        53
31.550        13
31.560        67
31.570         0
31.580        53
31.590        13
31.600        53
31.610         0
31.620        40
31.630        40
31.640        27
31.650        13
31.660        40
31.670        40
31.680        13
31.690        53
31.700        80
31.710        40
31.720        27
31.730        27
31.740        27
31.750         0
31.760        27
31.770        53
31.780         0
31.790        27
31.800         0
31.810        13
31.820         0
31.830        40
31.840         0
31.850        13
31.860        40
31.870        67
31.880        13
31.890         0
31.900        40
31.910        27
31.920        53
31.930        13
31.940        13
31.950        40
31.960        53
31.970        13
31.980         0
31.990        27
32.000         0
32.010        40
32.020        40
32.030        53
32.040        13
32.050        53
32.060        13
32.070        40
32.080        27
32.090        40
32.100        13
32.110        13
32.120        27
32.130        40
32.140         0
32.150        53
32.160         0
32.170        27
32.180        67
32.190        53
32.200        13
32.210        53
32.220        67
32.230        53
32.240        27
32.250        40
32.260        13
32.270        80
32.280        40
32.290        53
32.300        80
32.310        93
32.320        67
32.330        40
32.340       133
32.350        67
32.360        93
32.370       120
32.380        80
32.390        53
32.400       173
32.410        67
32.420       120
32.430        80
32.440        67
32.450        53
32.460        40
32.470        13
32.480        80
32.490        80
32.500        53
32.510        80
32.520        67
32.530         0
32.540        67
32.550        27
32.560       107
32.570        53
32.580        27
32.590        53
32.600        27
32.610        40
32.620         0
32.630        13
32.640        40
32.650        53
32.660        53
32.670        40
32.680        40
32.690        13
32.700        27
32.710        13
32.720        27
32.730        40
32.740        67
32.750        13
32.760        40
32.770        40
32.780        67
32.790        27
32.800        27
32.810        40
32.820        67
32.830         0
32.840        40
32.850         0
32.860        27
32.870        40
32.880         0
32.890        27
32.900        53
32.910        27
32.920        27
32.930        27
32.940        13
32.950        53
32.960        27
32.970        13
32.980        53
32.990        27
33.000         0
33.010        13
33.020        13
33.030        27
33.040        27
33.050         0
33.060        27
33.070        27
33.080        40
33.090         0
33.100        40
33.110        13
33.120        13
33.130        53
33.140        27
33.150        40
33.160        53
33.170        13
33.180        27
33.190        13
33.200        40
33.210        27
33.220        53
33.230        40
33.240        13
33.250         0
33.260         0
33.270        13
33.280        13
33.290         0
33.300        27
33.310        27
33.320        40
33.330        40
33.340        27
33.350         0
33.360        53
33.370         0
33.380        40
33.390        40
33.400        13
33.410        27
33.420        13
33.430        27
33.440         0
33.450        13
33.460        40
33.470        27
33.480        40
33.490        13
33.500        27
33.510        40
33.520         0
33.530        13
33.540        13
33.550        40
33.560        40
33.570         0
33.580        40
33.590        27
33.600        27
33.610        27
33.620        13
33.630        40
33.640        53
33.650        13
33.660        27
33.670        13
33.680        13
33.690        40
33.700        13
33.710        80
33.720        27
33.730        27
33.740        13
33.750        13
33.760         0
33.770        40
33.780         0
33.790        13
33.800        27
33.810        13
33.820         0
33.830        27
33.840        27
33.850        53
33.860        13
33.870        13
33.880        67
33.890         0
33.900        27
33.910        13
33.920        53
33.930        13
33.940        13
33.950        27
33.960        13
33.970        13
33.980        13
33.990        13
34.000        13
34.010        40
34.020         0
34.030        13
34.040        13
34.050        27
34.060         0
34.070        13
34.080        13
34.090        13
34.100         0
34.110        27
34.120        27
34.130        13
34.140        40
34.150        13
34.160        27
34.170        40
34.180        40
34.190        13
34.200        13
34.210        27
34.220        40
34.230        13
34.240        40
34.250        13
34.260        27
34.270        40
34.280        13
34.290        80
34.300        27
34.310        27
34.320        13
34.330        27
34.340        13
34.350        13
34.360        27
34.370        27
34.380        40
34.390        27
34.400        27
34.410        40
34.420        13
34.430        27
34.440        13
34.450         0
34.460        13
34.470        53
34.480        27
34.490         0
34.500        53
34.510        13
34.520         0
34.530        40
34.540        40
34.550        13
34.560        27
34.570        40
34.580        53
34.590        13
34.600        13
34.610        27
34.620        13
34.630         0
34.640        27
34.650        27
34.660        40
34.670        40
34.680        27
34.690        27
34.700         0
34.710        27
34.720        13
34.730        27
34.740        13
34.750        13
34.760        40
34.770        53
34.780        27
34.790        40
34.800        27
34.810         0
34.820        40
34.830        53
34.840        53
34.850        67
34.860        27
34.870        40
34.880        40
34.890        53
34.900         0
34.910        40
34.920        67
34.930        27
34.940        40
34.950        13
34.960        40
34.970        80
34.980        53
34.990        13
35.000        27
35.010       107
35.020       107
35.030       120
35.040        27
35.050        80
35.060        80
35.070        27
35.080        53
35.090       173
35.100       173
35.110       160
35.120       173
35.130       213
35.140       213
35.150       267
35.160       147
35.170       173
35.180       240
35.190       160
35.200       120
35.210       200
35.220       133
35.230       120
35.240       120
35.250       173
35.260        93
35.270        93
35.280        93
35.290        53
35.300        80
35.310        13
35.320        13
35.330        53
35.340        40
35.350        27
35.360        27
35.370        13
35.380        13
35.390        13
35.400        27
35.410        80
35.420        40
35.430         0
35.440        53
35.450        13
35.460        40
35.470         0
35.480        27
35.490        13
35.500        27
35.510        27
35.520        13
35.530        13
35.540         0
35.550        13
35.560        40
35.570        13
35.580        27
35.590        40
35.600        67
35.610        27
35.620        13
35.630        13
35.640        13
35.650        13
35.660         0
35.670        40
35.680        27
35.690         0
35.700        53
35.710        40
35.720        40
35.730        27
35.740         0
35.750         0
35.760        13
35.770        13
35.780        13
35.790        53
35.800        27
35.810        27
35.820        27
35.830        27
35.840         0
35.850        13
35.860        13
35.870        27
35.880        13
35.890        27
35.900        27
35.910         0
35.920        53
35.930        27
35.940        40
35.950         0
35.960        13
35.970        40
35.980        27
35.990         0
36.000        53
36.010        27
36.020         0
36.030        67
36.040        13
36.050        27
36.060        13
36.070        13
36.080        13
36.090        13
36.100        40
36.110        13
36.120        27
36.130        27
36.140        27
36.150        53
36.160        40
36.170         0
36.180        13
36.190        67
36.200         0
36.210        27
36.220        13
36.230        13
36.240        53
36.250        53
36.260        13
36.270        13
36.280        13
36.290        13
36.300        13
36.310         0
36.320        27
36.330         0
36.340        27
36.350         0
36.360        13
36.370        27
36.380         0
36.390        27
36.400        27
36.410        27
36.420        13
36.430        13
36.440        53
36.450        27
36.460        13
36.470         0
36.480        13
36.490        40
36.500        27
36.510         0
36.520         0
36.530        40
36.540        27
36.550        27
36.560        27
36.570        40
36.580        13
36.590        67
36.600         0
36.610        40
36.620        53
36.630        27
36.640        27
36.650        27
36.660        27
36.670        13
36.680        40
36.690        13
36.700        27
36.710         0
36.720        13
36.730         0
36.740        27
36.750        27
36.760        13
36.770         0
36.780         0
36.790        13
36.800        27
36.810        27
36.820        13
36.830        27
36.840        13
36.850         0
36.860        27
36.870         0
36.880        53
36.890        13
36.900        13
36.910        13
36.920         0
36.930        27
36.940        27
36.950        40
36.960        13
36.970        40
36.980        27
36.990        40
37.000        27
37.010        40
37.020        13
37.030        13
37.040        13
37.050        53
37.060        40
37.070        27
37.080        27
37.090         0
37.100        27
37.110        27
37.120        40
37.130        40
37.140        13
37.150        27
37.160        13
37.170        27
37.180        27
37.190        40
37.200        27
37.210        40
37.220        27
37.230        40
37.240         0
37.250        13
37.260        13
37.270        40
37.280        67
37.290        13
37.300        27
37.310        13
37.320        53
37.330         0
37.340        40
37.350        27
37.360        27
37.370        27
37.380         0
37.390        13
37.400        27
37.410        13
37.420        40
37.430        40
37.440        40
37.450        13
37.460        13
37.470        40
37.480        13
37.490        27
37.500        27
37.510        13
37.520         0
37.530        13
37.540        53
37.550        13
37.560        13
37.570        27
37.580        13
37.590        27
37.600        27
37.610        13
37.620        40
37.630        27
37.640        13
37.650        13
37.660        13
37.670        13
37.680        13
37.690        13
37.700        27
37.710        13
37.720        80
37.730        93
37.740       133
37.750       120
37.760       200
37.770       173
37.780       187
37.790        93
37.800        93
37.810        67
37.820        93
37.830        67
37.840        80
37.850       107
37.860        53
37.870        80
37.880        67
37.890        93
37.900        93
37.910        27
37.920        67
37.930        13
37.940        27
37.950        80
37.960        53
37.970        40
37.980        80
37.990        13
38.000         0
38.010        40
38.020        27
38.030        27
38.040        40
38.050        53
38.060         0
38.070        27
38.080        27
38.090        13
38.100        13
38.110        40
38.120        67
38.130        53
38.140        27
38.150        13
38.160        53
38.170        27
38.180        67
38.190         0
38.200        27
38.210        27
38.220        53
38.230         0
38.240        13
38.250         0
38.260        13
38.270        40
38.280         0
38.290        67
38.300        27
38.310        27
38.320        53
38.330         0
38.340        27
38.350         0
38.360        40
38.370        40
38.380        53
38.390        27
38.400        13
38.410        40
38.420        27
38.430        13
38.440        27
38.450        53
38.460        53
38.470        27
38.480        40
38.490        13
38.500         0
38.510        53
38.520         0
38.530        13
38.540         0
38.550         0
38.560        40
38.570        40
38.580        53
38.590        13
38.600        27
38.610        27
38.620        27
38.630        67
38.640        40
38.650        13
38.660         0
38.670        27
38.680        27
38.690        40
38.700        13
38.710        53
38.720        53
38.730        40
38.740        80
38.750        27
38.760        13
38.770        27
38.780        13
38.790        67
38.800        13
38.810         0
38.820        40
38.830        40
38.840        27
38.850        40
38.860        13
38.870        27
38.880        27
38.890        13
38.900        13
38.910        53
38.920        67
38.930        13
38.940        40
38.950        13
38.960        13
38.970        40
38.980        40
38.990         0
39.000        27
39.010        13
39.020        27
39.030        40
39.040        40
39.050         0
39.060        13
39.070        27
39.080        27
39.090        27
39.100        27
39.110        40
39.120        27
39.130        13
39.140        27
39.150        27
39.160         0
39.170         0
39.180        13
39.190        40
39.200        40
39.210        13
39.220        27
39.230        67
39.240        53
39.250        27
39.260        67
39.270        40
39.280        27
39.290        53
39.300        27
39.310        80
39.320        13
39.330        27
39.340        27
39.350        27
39.360        53
39.370        80
39.380         0
39.390        13
39.400        40
39.410        27
39.420        13
39.430        40
39.440        13
39.450        27
39.460        53
39.470        27
39.480         0
39.490        13
39.500        27
39.510        13
39.520        40
39.530        13
39.540        27
39.550        53
39.560        27
39.570         0
39.580        27
39.590        40
39.600        13
39.610        13
39.620        27
39.630        13
39.640        40
39.650        13
39.660       120
39.670        40
39.680        67
39.690       107
39.700        40
39.710        80
39.720       107
39.730        67
39.740       120
39.750        53
39.760       133
39.770        53
39.780       173
39.790        80
39.800       147
39.810        80
39.820        67
39.830       173
39.840       160
39.850       293
39.860       240
39.870       293
39.880       253
39.890       293
39.900       307
39.910       320
39.920       400
39.930       440
39.940       387
39.950       413
39.960       493
39.970       440
39.980       453
39.990       426
40.000       546
40.010       373
40.020       546
40.030       413
40.040       426
40.050       307
40.060       373
40.070       387
40.080       280
40.090       307
40.100       280
40.110       227
40.120       213
40.130       280
40.140       187
40.150       133
40.160       227
40.170       253
40.180       187
40.190        80
40.200        93
40.210        80
40.220        40
40.230        40
40.240        13
40.250        13
40.260        27
40.270        40
40.280        67
40.290        27
40.300        27
40.310        80
40.320        13
40.330        53
40.340        27
40.350        67
40.360        13
40.370        67
40.380        40
40.390        13
40.400        67
40.410        27
40.420        27
40.430        40
40.440        13
40.450        13
40.460         0
40.470        13
40.480        67
40.490        40
40.500        40
40.510        53
40.520        40
40.530        13
40.540         0
40.550        13
40.560        27
40.570        27
40.580        53
40.590        40
40.600        53
40.610        13
40.620        27
40.630        13
40.640        13
40.650        67
40.660        53
40.670        27
40.680        13
40.690        40
40.700        53
40.710        53
40.720        27
40.730        27
40.740        27
40.750         0
40.760        13
40.770        53
40.780        13
40.790         0
40.800        27
40.810        13
40.820        40
40.830        27
40.840        27
40.850        27
40.860        13
40.870         0
40.880        40
40.890        13
40.900        40
40.910        40
40.920        40
40.930        13
40.940        27
40.950        27
40.960        27
40.970        13
40.980        13
40.990        40
41.000        13
41.010        13
41.020        13
41.030        67
41.040        27
41.050        27
41.060         0
41.070         0
41.080        53
41.090         0
41.100        13
41.110        93
41.120        13
41.130        13
41.140        40
41.150         0
41.160        13
41.170        40
41.180        27
41.190        13
41.200        13
41.210        40
41.220        27
41.230        40
41.240        27
41.250        27
41.260        13
41.270        40
41.280        40
41.290        27
41.300        13
41.310        27
41.320        13
41.330        53
41.340        27
41.350         0
41.360         0
41.370        27
41.380        40
41.390        13
41.400        27
41.410        67
41.420        40
41.430        13
41.440        13
41.450        13
41.460        27
41.470        40
41.480        80
41.490        40
41.500        13
41.510        40
41.520        53
41.530        53
41.540        67
41.550        93
41.560        40
41.570        53
41.580       133
41.590        40
41.600       107
41.610        40
41.620       133
41.630       160
41.640       200
41.650       200
41.660       227
41.670       347
41.680       320
41.690       307
41.700       280
41.710       213
41.720       213
41.730       187
41.740       147
41.750       173
41.760       173
41.770       133
41.780       107
41.790       173
41.800       120
41.810       147
41.820       107
41.830       160
41.840        67
41.850       107
41.860        53
41.870        67
41.880        67
41.890        53
41.900        53
41.910        13
41.920        40
41.930        67
41.940        27
41.950        53
41.960        53
41.970        40
41.980        40
41.990        13
42.000        53
42.010        27
42.020        27
42.030        40
42.040        27
42.050        53
42.060        53
42.070        27
42.080        27
42.090        13
42.100        27
42.110        27
42.120        13
42.130        27
42.140        13
42.150        40
42.160        40
42.170        53
42.180        13
42.190        13
42.200        13
42.210        40
42.220        27
42.230        13
42.240        40
42.250        27
42.260        13
42.270        27
42.280        53
42.290        27
42.300        53
42.310        13
42.320        67
42.330        40
42.340        27
42.350        13
42.360        40
42.370         0
42.380         0
42.390        27
42.400         0
42.410        27
42.420        27
42.430        13
42.440        40
42.450         0
42.460        13
42.470        27
42.480         0
42.490        13
42.500        13
42.510        13
42.520        13
42.530        13
42.540        27
42.550        27
42.560        13
42.570        13
42.580        13
42.590        27
42.600        13
42.610        27
42.620         0
42.630        13
42.640        13
42.650        13
42.660        40
42.670        40
42.680         0
42.690        13
42.700        13
42.710        27
42.720        40
42.730        40
42.740        40
42.750         0
42.760        13
42.770        53
42.780        40
42.790        13
42.800        53
42.810        40
42.820        13
42.830        27
42.840        13
42.850        27
42.860        40
42.870        40
42.880        53
42.890        27
42.900        13
42.910         0
42.920        27
42.930         0
42.940        13
42.950        13
42.960        27
42.970         0
42.980        40
42.990        53
43.000        27
43.010         0
43.020        13
43.030         0
43.040        13
43.050        13
43.060        40
43.070         0
43.080        27
43.090        13
43.100        40
43.110        67
43.120        27
43.130        27
43.140        40
43.150        40
43.160        27
43.170        27
43.180        13
43.190        27
43.200        67
43.210        40
43.220        13
43.230         0
43.240        53
43.250       120
43.260        40
43.270        67
43.280        13
43.290        27
43.300        80
43.310        93
43.320       120
43.330       120
43.340       160
43.350       120
43.360        93
43.370       120
43.380       187
43.390       227
43.400       187
43.410       227
43.420       107
43.430        53
43.440        53
43.450       107
43.460        67
43.470        53
43.480       107
43.490        53
43.500       147
43.510       107
43.520        80
43.530        80
43.540        13
43.550        53
43.560        53
43.570         0
43.580        53
43.590        27
43.600        27
43.610        67
43.620        13
43.630        27
43.640        40
43.650         0
43.660        13
43.670        53
43.680        53
43.690        13
43.700        40
43.710        40
43.720        27
43.730        40
43.740        53
43.750        13
43.760         0
43.770        13
43.780        67
43.790         0
43.800        13
43.810        13
43.820        40
43.830        27
43.840         0
43.850        27
43.860        40
43.870        40
43.880         0
43.890        13
43.900        40
43.910        53
43.920        40
43.930        13
43.940        27
43.950         0
43.960        13
43.970        27
43.980         0
43.990        27
44.000        53
44.010        13
44.020        13
44.030        27
44.040        27
44.050        40
44.060         0
44.070        13
44.080         0
44.090        27
44.100        27
44.110        53
44.120        27
44.130        27
44.140        53
44.150        13
44.160        27
44.170        13
44.180        13
44.190        27
44.200        13
44.210        13
44.220        67
44.230        27
44.240        27
44.250        27
44.260        13
44.270        13
44.280        27
44.290        40
44.300        40
44.310        27
44.320        53
44.330        13
44.340        13
44.350        40
44.360        13
44.370         0
44.380         0
44.390         0
44.400        13
44.410         0
44.420        13
44.430        53
44.440        27
44.450        40
44.460        40
44.470        53
44.480        40
44.490        53
44.500        40
44.510        53
44.520        53
44.530        27
44.540        93
44.550        27
44.560        27
44.570        40
44.580        67
44.590         0
44.600        67
44.610        13
44.620        67
44.630        53
44.640        27
44.650        13
44.660        13
44.670        27
44.680        13
44.690        53
44.700        13
44.710        27
44.720        67
44.730        67
44.740        40
44.750        67
44.760        13
44.770         0
44.780        40
44.790        13
44.800        53
44.810        40
44.820        80
44.830         0
44.840        53
44.850        27
44.860        40
44.870        40
44.880       107
44.890        67
44.900        40
44.910        13
44.920        80
44.930        67
44.940        80
44.950       107
44.960        53
44.970        93
44.980        53
44.990        80
45.000        67
45.010        53
45.020        67
45.030         0
45.040        53
45.050       107
45.060        13
45.070        67
45.080        93
45.090        27
45.100        80
45.110        40
45.120        53
45.130        40
45.140        27
45.150        40
45.160        67
45.170        67
45.180        67
45.190        53
45.200        67
45.210        27
45.220        27
45.230        53
45.240        53
45.250        27
45.260        80
45.270        53
45.280        53
45.290        80
45.300        67
45.310        40
45.320        80
45.330        80
45.340        53
45.350        67
45.360       120
45.370        40
45.380        80
45.390        40
45.400        53
45.410        80
45.420        40
45.430        53
45.440        53
45.450        40
45.460        27
45.470        40
45.480       120
45.490        27
45.500       120
45.510       200
45.520       107
45.530        93
45.540       147
45.550        80
45.560        93
45.570        53
45.580       133
45.590       173
45.600       133
45.610       133
45.620       120
45.630        80
45.640        53
45.650        80
45.660       147
45.670       107
45.680       120
45.690        67
45.700       107
45.710       107
45.720       147
45.730        93
45.740       227
45.750       240
45.760       187
45.770       147
45.780       160
45.790       280
45.800       160
45.810       213
45.820       160
45.830       213
45.840       200
45.850       213
45.860       267
45.870       200
45.880       213
45.890       187
45.900       200
45.910       373
45.920       333
45.930       293
45.940       227
45.950       373
45.960       413
45.970       520
45.980       546
45.990       387
46.000       520
46.010       400
46.020       387
46.030       533
46.040       466
46.050       640
46.060       680
46.070       773
46.080       560
46.090       840
46.100       733
46.110       893
46.120       666
46.130      1093
46.140      1093
46.150       960
46.160      1013
46.170      1373
46.180      1266
46.190      1200
46.200      1319
46.210      1319
46.220      1613
46.230      1879
46.240      1853
46.250      1919
46.260      2199
46.270      1959
46.280      1879
46.290      1946
46.300      2199
46.310      2412
46.320      2519
46.330      2679
46.340      2826
46.350      2412
46.360      2972
46.370      2852
46.380      2852
46.390      2879
46.400      3065
46.410      3279
46.420      3199
46.430      3172
46.440      3172
46.450      3492
46.460      3319
46.470      3185
46.480      2572
46.490      3119
46.500      3025
46.510      2945
46.520      3025
46.530      2812
46.540      2306
46.550      2612
46.560      2492
46.570      2292
46.580      2985
46.590      2559
46.600      2452
46.610      2306
46.620      1959
46.630      2252
46.640      1973
46.650      1719
46.660      1773
46.670      1426
46.680      1639
46.690      1546
46.700      1253
46.710      1133
46.720      1146
46.730      1213
46.740      1106
46.750      1066
46.760       960
46.770       880
46.780       746
46.790       800
46.800       720
46.810       760
46.820       720
46.830       666
46.840       506
46.850       640
46.860       626
46.870       320
46.880       586
46.890       360
46.900       373
46.910       320
46.920       373
46.930       320
46.940       347
46.950       347
46.960       280
46.970       333
46.980       293
46.990       267
47.000       200
47.010       307
47.020       227
47.030       267
47.040       160
47.050       187
47.060       187
47.070       253
47.080       160
47.090       187
47.100       173
47.110       147
47.120       200
47.130       133
47.140       147
47.150       133
47.160       227
47.170        27
47.180       147
47.190       147
47.200       107
47.210       147
47.220       107
47.230        67
47.240        53
47.250       120
47.260       133
47.270       107
47.280       120
47.290        53
47.300       120
47.310        93
47.320       107
47.330       107
47.340       107
47.350        93
47.360        67
47.370        80
47.380       147
47.390        93
47.400        93
47.410        27
47.420       133
47.430        67
47.440        53
47.450       120
47.460        53
47.470        53
47.480        80
47.490        80
47.500        67
47.510        53
47.520        93
47.530        40
47.540       133
47.550        40
47.560        40
47.570       107
47.580        93
47.590        53
47.600        93
47.610        13
47.620        67
47.630        80
47.640        40
47.650        67
47.660        67
47.670        40
47.680        67
47.690        53
47.700        67
47.710        80
47.720        67
47.730        53
47.740        27
47.750        40
47.760        40
47.770        27
47.780        40
47.790        40
47.800        27
47.810        27
47.820        40
47.830        27
47.840        80
47.850        80
47.860        53
47.870        27
47.880        13
47.890        40
47.900        53
47.910        80
47.920        40
47.930        27
47.940        40
47.950         0
47.960        13
47.970        40
47.980        13
47.990        27
48.000        13
48.010         0
48.020        67
48.030        27
48.040        40
48.050         0
48.060        53
48.070        53
48.080        80
48.090        93
48.100        53
48.110        53
48.120        27
48.130        53
48.140        27
48.150        40
48.160        13
48.170        40
48.180        40
48.190        80
48.200        67
48.210        13
48.220        53
48.230        80
48.240        53
48.250        40
48.260         0
48.270        40
48.280        13
48.290        40
48.300        40
48.310        40
48.320        93
48.330        53
48.340        40
48.350        40
48.360        13
48.370         0
48.380        67
48.390        27
48.400        27
48.410        67
48.420        67
48.430        67
48.440        40
48.450        40
48.460        13
48.470        40
48.480        53
48.490        40
48.500        27
48.510        13
48.520        67
48.530        53
48.540        53
48.550        40
48.560        27
48.570        40
48.580        93
48.590        40
48.600        27
48.610        40
48.620         0
48.630        13
48.640        13
48.650        40
48.660        27
48.670        13
48.680         0
48.690        13
48.700        27
48.710        53
48.720        13
48.730        13
48.740        27
48.750        27
48.760        53
48.770        53
48.780        27
48.790        27
48.800        67
48.810        40
48.820        27
48.830        40
48.840        13
48.850        40
48.860        40
48.870        67
48.880        27
48.890        53
48.900        13
48.910        13
48.920        13
48.930        80
48.940        13
48.950        13
48.960        13
48.970        27
48.980        53
48.990        13
49.000        27
49.010        40
49.020        27
49.030        27
49.040        27
49.050        53
49.060        13
49.070        53
49.080        27
49.090        53
49.100        27
49.110        67
49.120        53
49.130        67
49.140        13
49.150        27
49.160        27
49.170        27
49.180        13
49.190        40
49.200        13
49.210        53
49.220        27
49.230        27
49.240        40
49.250        27
49.260        27
49.270        53
49.280         0
49.290        53
49.300        80
49.310        27
49.320        13
49.330        13
49.340        67
49.350        13
49.360         0
49.370        27
49.380        13
49.390        40
49.400        27
49.410        53
49.420        13
49.430        13
49.440        53
49.450        27
49.460        40
49.470        13
49.480        40
49.490        53
49.500        13
49.510        53
49.520        67
49.530        13
49.540        13
49.550        13
49.560        27
49.570         0
49.580        13
49.590        40
49.600        13
49.610        53
49.620        13
49.630        13
49.640        67
49.650        53
49.660        13
49.670        27
49.680        27
49.690        53
49.700        40
49.710         0
49.720         0
49.730        40
49.740        27
49.750        40
49.760        13
49.770        27
49.780        13
49.790        27
49.800        27
49.810        27
49.820        40
49.830        13
49.840        13
49.850        40
49.860        40
49.870        27
49.880        27
49.890         0
49.900        13
49.910        27
49.920        13
49.930        40
49.940         0
49.950        27
49.960        27
49.970         0
49.980        27
49.990         0
50.000        13
50.010        67
50.020        13
50.030        93
50.040        40
50.050        40
50.060        13
50.070        27
50.080        53
50.090        40
50.100        40
50.110         0
50.120        13
50.130        40
50.140        93
50.150        27
50.160        40
50.170        40
50.180        40
50.190        27
50.200        40
50.210        53
50.220        13
50.230        27
50.240        27
50.250        13
50.260        40
50.270        13
50.280        40
50.290        40
50.300        13
50.310        13
50.320         0
50.330        27
50.340        13
50.350         0
50.360        27
50.370        13
50.380        13
50.390         0
50.400        67
50.410        27
50.420        40
50.430        13
50.440        40
50.450        27
50.460        13
50.470        13
50.480        27
50.490        13
50.500        27
50.510        40
50.520        27
50.530        13
50.540        13
50.550         0
50.560        27
50.570        40
50.580        13
50.590        53
50.600        53
50.610        13
50.620        53
50.630        27
50.640        27
50.650         0
50.660        27
50.670        40
50.680        40
50.690        27
50.700        80
50.710         0
50.720        27
50.730        27
50.740        13
50.750        27
50.760        53
50.770        40
50.780        13
50.790        40
50.800        40
50.810        40
50.820        40
50.830        13
50.840        27
50.850         0
50.860        13
50.870        13
50.880        40
50.890        13
50.900         0
50.910        13
50.920        13
50.930        27
50.940        40
50.950         0
50.960        13
50.970        40
50.980         0
50.990        27
51.000        13
51.010         0
51.020        27
51.030        13
51.040        13
51.050        53
51.060        27
51.070        27
51.080         0
51.090        13
51.100         0
51.110         0
51.120        27
51.130        13
51.140        53
51.150        13
51.160         0
51.170        27
51.180        13
51.190        13
51.200        27
51.210        40
51.220        93
51.230        27
51.240        13
51.250        27
51.260        40
51.270        67
51.280        13
51.290        27
51.300        13
51.310        40
51.320         0
51.330        13
51.340        27
51.350         0
51.360        40
51.370        27
51.380        27
51.390        13
51.400         0
51.410         0
51.420        53
51.430         0
51.440        67
51.450        13
51.460        13
51.470         0
51.480        13
51.490         0
51.500        13
51.510         0
51.520        27
51.530        13
51.540         0
51.550        53
51.560        13
51.570         0
51.580        13
51.590        13
51.600        27
51.610        40
51.620        13
51.630         0
51.640        27
51.650        27
51.660        13
51.670        67
51.680        13
51.690        27
51.700         0
51.710        13
51.720         0
51.730        53
51.740        13
51.750        13
51.760        13
51.770        13
51.780        27
51.790        13
51.800        13
51.810        40
51.820        13
51.830        67
51.840        40
51.850        53
51.860         0
51.870        13
51.880        40
51.890        40
51.900        53
51.910        13
51.920        27
51.930         0
51.940        13
51.950        27
51.960        40
51.970        27
51.980         0
51.990        13
52.000        40
52.010        27
52.020        13
52.030         0
52.040        27
52.050        13
52.060        27
52.070        13
52.080        13
52.090        13
52.100        53
52.110        13
52.120        13
52.130        27
52.140        53
52.150         0
52.160        13
52.170        53
52.180        13
52.190        27
52.200        27
52.210        13
52.220        40
52.230        27
52.240        13
52.250        40
52.260        40
52.270        80
52.280        13
52.290        13
52.300         0
52.310        13
52.320        13
52.330        13
52.340        27
52.350        27
52.360        27
52.370        40
52.380        27
52.390        40
52.400        53
52.410        40
52.420        27
52.430        13
52.440        27
52.450        40
52.460        53
52.470         0
52.480        27
52.490        27
52.500        27
52.510        80
52.520        13
52.530        27
52.540        67
52.550        27
52.560        80
52.570        27
52.580        40
52.590        53
52.600        40
52.610        40
52.620        13
52.630        13
52.640        53
52.650        40
52.660        27
52.670        40
52.680        13
52.690        27
52.700        40
52.710        80
52.720        27
52.730        40
52.740        27
52.750        80
52.760        13
52.770         0
52.780         0
52.790        13
52.800         0
52.810        27
52.820         0
52.830        27
52.840        67
52.850        27
52.860        40
52.870        13
52.880        27
52.890        27
52.900        13
52.910        13
52.920        27
52.930         0
52.940        40
52.950        40
52.960         0
52.970        27
52.980         0
52.990         0
53.000        13
53.010        40
53.020        13
53.030        27
53.040        40
53.050        13
53.060        93
53.070        27
53.080         0
53.090        40
53.100        13
53.110        13
53.120        27
53.130        40
53.140         0
53.150        40
53.160        27
53.170        13
53.180        13
53.190        40
53.200        40
53.210        53
53.220         0
53.230        27
53.240        13
53.250        27
53.260        40
53.270        13
53.280        27
53.290         0
53.300        27
53.310         0
53.320         0
53.330        13
53.340        27
53.350        13
53.360         0
53.370        27
53.380        27
53.390        40
53.400        13
53.410        13
53.420         0
53.430        13
53.440        13
53.450         0
53.460        13
53.470         0
53.480        13
53.490        13
53.500        27
53.510        13
53.520         0
53.530        40
53.540        40
53.550        13
53.560        40
53.570        13
53.580        27
53.590        27
53.600        13
53.610        53
53.620        40
53.630         0
53.640        27
53.650        13
53.660        13
53.670         0
53.680        13
53.690        13
53.700        13
53.710         0
53.720         0
53.730         0
53.740         0
53.750        13
53.760        40
53.770         0
53.780         0
53.790        40
53.800        80
53.810        40
53.820        13
53.830        13
53.840         0
53.850        27
53.860        40
53.870        27
53.880        40
53.890        40
53.900        13
53.910        27
53.920        27
53.930        40
53.940        13
53.950        27
53.960        13
53.970         0
53.980        27
53.990        13
54.000        40
54.010         0
54.020        27
54.030        27
54.040        13
54.050        13
54.060        13
54.070         0
54.080        13
54.090        27
54.100        80
54.110        27
54.120        13
54.130        13
54.140        27
54.150         0
54.160        13
54.170        13
54.180        40
54.190         0
54.200        40
54.210         0
54.220        27
54.230         0
54.240        13
54.250         0
54.260        13
54.270         0
54.280         0
54.290        40
54.300         0
54.310        27
54.320         0
54.330        27
54.340         0
54.350        13
54.360        27
54.370        13
54.380        53
54.390        13
54.400        27
54.410         0
54.420        27
54.430         0
54.440         0
54.450         0
54.460        27
54.470        13
54.480         0
54.490        27
54.500        27
54.510        27
54.520        67
54.530        27
54.540        27
54.550        13
54.560        27
54.570        53
54.580        27
54.590        13
54.600        40
54.610         0
54.620        27
54.630        13
54.640        40
54.650        40
54.660        13
54.670        27
54.680        13
54.690        27
54.700        53
54.710         0
54.720        13
54.730        27
54.740        13
54.750         0
54.760         0
54.770        13
54.780         0
54.790        80
54.800        27
54.810         0
54.820        13
54.830        13
54.840         0
54.850         0
54.860        27
54.870        40
54.880        27
54.890        40
54.900        40
54.910        13
54.920        27
54.930        40
54.940        40
54.950        40
54.960        40
54.970        53
54.980        13
54.990         0
55.000         0
55.010         0
55.020         0
55.030        40
55.040        67
55.050         0
55.060         0
55.070         0
55.080         0
55.090        53
55.100        13
55.110        53
55.120        13
55.130         0
55.140        40
55.150         0
55.160        13
55.170        27
55.180         0
55.190        27
55.200        40
55.210        40
55.220        13
55.230        13
55.240        13
55.250         0
55.260         0
55.270        13
55.280         0
55.290        53
55.300        13
55.310        13
55.320         0
55.330         0
55.340        13
55.350        40
55.360        27
55.370        13
55.380        27
55.390        13
55.400        13
55.410        27
55.420        27
55.430        40
55.440         0
55.450        13
55.460         0
55.470        13
55.480        27
55.490         0
55.500        27
55.510         0
55.520        40
55.530        27
55.540         0
55.550        13
55.560        27
55.570        27
55.580        13
55.590         0
55.600         0
55.610        27
55.620        13
55.630         0
55.640        27
55.650        40
55.660         0
55.670        13
55.680        40
55.690        13
55.700         0
55.710         0
55.720         0
55.730         0
55.740         0
55.750         0
55.760        27
55.770        13
55.780        27
55.790        13
55.800         0
55.810        53
55.820        40
55.830        67
55.840        27
55.850        13
55.860         0
55.870        40
55.880        40
55.890        27
55.900         0
55.910        13
55.920        13
55.930        27
55.940        27
55.950        27
55.960        13
55.970        67
55.980        53
55.990        27
56.000        13
56.010        13
56.020        13
56.030        27
56.040         0
56.050        13
56.060        13
56.070        13
56.080        80
56.090        13
56.100         0
56.110        67
56.120         0
56.130         0
56.140        40
56.150        40
56.160        27
56.170        13
56.180        13
56.190        27
56.200        13
56.210        27
56.220        27
56.230         0
56.240         0
56.250        53
56.260        13
56.270        13
56.280        40
56.290         0
56.300        13
56.310        53
56.320        27
56.330        13
56.340        27
56.350         0
56.360        13
56.370        27
56.380         0
56.390        27
56.400         0
56.410         0
56.420         0
56.430        13
56.440        27
56.450        13
56.460         0
56.470         0
56.480        27
56.490         0
56.500         0
56.510         0
56.520        40
56.530         0
56.540         0
56.550        40
56.560        13
56.570        27
56.580        13
56.590        27
56.600         0
56.610        40
56.620        27
56.630        27
56.640        27
56.650        13
56.660        27
56.670        13
56.680        40
56.690        13
56.700        27
56.710        13
56.720         0
56.730         0
56.740        13
56.750        13
56.760        53
56.770        53
56.780        13
56.790         0
56.800        13
56.810         0
56.820        27
56.830        40
56.840        13
56.850         0
56.860        27
56.870         0
56.880         0
56.890         0
56.900        27
56.910        13
56.920        53
56.930        40
56.940        27
56.950        13
56.960        40
56.970         0
56.980        13
56.990         0
57.000        13
57.010        13
57.020        13
57.030        27
57.040        13
57.050        67
57.060        13
57.070         0
57.080        13
57.090        13
57.100        13
57.110        27
57.120        53
57.130         0
57.140        13
57.150        13
57.160        40
57.170        13
57.180        13
57.190         0
57.200        40
57.210         0
57.220        27
57.230        27
57.240         0
57.250        27
57.260        27
57.270         0
57.280        53
57.290         0
57.300        40
57.310        13
57.320        27
57.330        27
57.340        53
57.350        27
57.360        53
57.370        13
57.380        13
57.390        13
57.400        93
57.410        67
57.420        53
57.430        40
57.440        40
57.450        80
57.460        53
57.470       160
57.480        93
57.490       240
57.500       120
57.510       200
57.520       213
57.530       240
57.540        53
57.550        93
57.560        67
57.570        93
57.580        80
57.590       120
57.600       120
57.610        53
57.620       200
57.630        80
57.640       147
57.650       147
57.660       147
57.670       133
57.680       160
57.690       147
57.700        80
57.710        53
57.720        93
57.730        80
57.740        27
57.750        53
57.760         0
57.770        27
57.780        27
57.790        53
57.800        27
57.810        67
57.820        40
57.830        53
57.840        53
57.850        13
57.860        40
57.870         0
57.880        40
57.890        80
57.900        27
57.910        80
57.920        27
57.930        40
57.940        53
57.950        40
57.960        40
57.970        13
57.980        13
57.990        40
58.000        27
58.010         0
58.020        40
58.030        40
58.040        40
58.050        27
58.060         0
58.070        27
58.080        40
58.090        27
58.100        40
58.110        40
58.120        27
58.130        13
58.140        13
58.150         0
58.160        27
58.170        27
58.180         0
58.190        13
58.200         0
58.210        27
58.220        27
58.230        40
58.240        27
58.250        40
58.260        27
58.270        40
58.280         0
58.290        27
58.300        13
58.310        13
58.320        13
58.330        27
58.340        13
58.350        27
58.360         0
58.370         0
58.380        13
58.390         0
58.400         0
58.410        13
58.420        13
58.430         0
58.440         0
58.450         0
58.460         0
58.470        13
58.480        13
58.490         0
58.500        13
58.510        27
58.520        27
58.530        40
58.540         0
58.550        13
58.560        27
58.570         0
58.580        67
58.590         0
58.600        27
58.610         0
58.620        27
58.630        13
58.640        13
58.650        13
58.660        53
58.670        13
58.680        13
58.690        13
58.700        13
58.710        27
58.720         0
58.730         0
58.740        13
58.750         0
58.760         0
58.770        40
58.780         0
58.790        13
58.800        13
58.810         0
58.820         0
58.830        27
58.840        13
58.850        13
58.860        13
58.870        13
58.880        27
58.890         0
58.900        13
58.910         0
58.920        27
58.930        13
58.940        27
58.950        13
58.960         0
58.970        40
58.980         0
58.990        13
59.000        13
59.010         0
59.020        27
59.030         0
59.040        27
59.050        27
59.060        13
59.070        27
59.080        13
59.090         0
59.100        13
59.110        40
59.120        13
59.130        27
59.140        13
59.150        53
59.160         0
59.170         0
59.180        13
59.190        40
59.200        27
59.210        27
59.220        13
59.230        13
59.240         0
59.250         0
59.260         0
59.270         0
59.280         0
59.290        27
59.300        13
59.310         0
59.320        13
59.330         0
59.340        13
59.350        27
59.360        13
59.370        27
59.380        27
59.390        13
59.400         0
59.410        40
59.420        13
59.430        27
59.440        13
59.450        13
59.460        53
59.470         0
59.480        27
59.490        13
59.500         0
59.510         0
59.520        27
59.530         0
59.540        27
59.550         0
59.560        13
59.570        13
59.580        13
59.590        27
59.600         0
59.610        40
59.620        40
59.630         0
59.640        13
59.650         0
59.660        53
59.670        27
59.680        27
59.690        27
59.700        53
59.710        13
59.720        27
59.730        40
59.740        27
59.750        40
59.760        27
59.770        13
59.780        53
59.790        13
59.800         0
59.810        27
59.820        13
59.830        27
59.840        27
59.850        13
59.860         0
59.870         0
59.880        13
59.890        13
59.900        13
59.910        27
59.920        27
59.930         0
59.940         0
59.950         0
59.960        13
59.970        13
59.980        13
59.990         0
60.000         0
