20.000         0
20.010         0
20.020        40
20.030         0
20.040        27
20.050        27
20.060        53
20.070        27
20.080        40
20.090        40
20.100        27
20.110        27
20.120        13
20.130        53
20.140        53
20.150        93
20.160        40
20.170        27
20.180        53
20.190        13
20.200        13
20.210         0
20.220        27
20.230        13
20.240        27
20.250        27
20.260        40
20.270        67
20.280        40
20.290        67
20.300        27
20.310         0
20.320        40
20.330        53
20.340        13
20.350        27
20.360        40
20.370        40
20.380        40
20.390        80
20.400        40
20.410        27
20.420        67
20.430        40
20.440        27
20.450        80
20.460        27
20.470        53
20.480        67
20.490        40
20.500        27
20.510        27
20.520        27
20.530        53
20.540        53
20.550         0
20.560        80
20.570        53
20.580        67
20.590        53
20.600        40
20.610        53
20.620        27
20.630        67
20.640        67
20.650        27
20.660        53
20.670        40
20.680        27
20.690        40
20.700        80
20.710        53
20.720        53
20.730        80
20.740        53
20.750        53
20.760        13
20.770        13
20.780        67
20.790        93
20.800        40
20.810        27
20.820        27
20.830        13
20.840        67
20.850        27
20.860        40
20.870        53
20.880         0
20.890        67
20.900        13
20.910        40
20.920        67
20.930        40
20.940        67
20.950        67
20.960        40
20.970        67
20.980        27
20.990        40
21.000        13
21.010        27
21.020        27
21.030        13
21.040        40
21.050         0
21.060        40
21.070        40
21.080        53
21.090        27
21.100        40
21.110        53
21.120         0
21.130        40
21.140        67
21.150        53
21.160        93
21.170        40
21.180         0
21.190        13
21.200        40
21.210        53
21.220        40
21.230        53
21.240        53
21.250        53
21.260        67
21.270        53
21.280        80
21.290        53
21.300        67
21.310        13
21.320        27
21.330        27
21.340        53
21.350        40
21.360        67
21.370        13
21.380        80
21.390        27
21.400        53
21.410        40
21.420        53
21.430         0
21.440        27
21.450        27
21.460        67
21.470        53
21.480        93
21.490        53
21.500        13
21.510        13
21.520        27
21.530         0
21.540        53
21.550        40
21.560        27
21.570        13
21.580        13
21.590        67
21.600        40
21.610        53
21.620        40
21.630         0
21.640        27
21.650        40
21.660        53
21.670        40
21.680        67
21.690        93
21.700        40
21.710        13
21.720        27
21.730        53
21.740        40
21.750        13
21.760        67
21.770        40
21.780        53
21.790        40
21.800        40
21.810        27
21.820        40
21.830        40
21.840        40
21.850        27
21.860        27
21.870        80
21.880        53
21.890        67
21.900        40
21.910        40
21.920        93
21.930        40
21.940        27
21.950         0
21.960         0
21.970        27
21.980        40
21.990       107
22.000        53
22.010        40
22.020        40
22.030         0
22.040        13
22.050        40
22.060        13
22.070        53
22.080        13
22.090        13
22.100        53
22.110        27
22.120        40
22.130         0
22.140        27
22.150        53
22.160        53
22.170        53
22.180        40
22.190        27
22.200        13
22.210        67
22.220        53
22.230        40
22.240        13
22.250        53
22.260        40
22.270        40
22.280        53
22.290        27
22.300        40
22.310        40
22.320        93
22.330        13
22.340        27
22.350        67
22.360        67
22.370        13
22.380        67
22.390        67
22.400         0
22.410        40
22.420        53
22.430        40
22.440        13
22.450        67
22.460         0
22.470         0
22.480        53
22.490        13
22.500        53
22.510        27
22.520        40
22.530        13
22.540        40
22.550        27
22.560        13
22.570        40
22.580        53
22.590        40
22.600        40
22.610        40
22.620        40
22.630        40
22.640        67
22.650        53
22.660        40
22.670        27
22.680        80
22.690       120
22.700        53
22.710        93
22.720        27
22.730        40
22.740        40
22.750        27
22.760         0
22.770        80
22.780        40
22.790        27
22.800        80
22.810        40
22.820         0
22.830        53
22.840        13
22.850        40
22.860        13
22.870        53
22.880        27
22.890        27
22.900        27
22.910        13
22.920        40
22.930        40
22.940        40
22.950        13
22.960        53
22.970        13
22.980         0
22.990        27
23.000        13
23.010        13
23.020        53
23.030        13
23.040        67
23.050        27
23.060        27
23.070        27
23.080        13
23.090        53
23.100        13
23.110        40
23.120        13
23.130        13
23.140        53
23.150         0
23.160        27
23.170        40
23.180        27
23.190        53
23.200        13
23.210        13
23.220        40
23.230        13
23.240         0
23.250        13
23.260        67
23.270        27
23.280        27
23.290        40
23.300        40
23.310        80
23.320        53
23.330       133
23.340        53
23.350        53
23.360        40
23.370        67
23.380        40
23.390        40
23.400        40
23.410        53
23.420        80
23.430        53
23.440        13
23.450        67
23.460         0
23.470         0
23.480        27
23.490        27
23.500        27
23.510        27
23.520        40
23.530        13
23.540        40
23.550        40
23.560        13
23.570        13
23.580         0
23.590        27
23.600         0
23.610        67
23.620        27
23.630        13
23.640        67
23.650        40
23.660        40
23.670        27
23.680        40
23.690        13
23.700        53
23.710        53
23.720        67
23.730         0
23.740        13
23.750        93
23.760        27
23.770        53
23.780        80
23.790        53
23.800        53
23.810        40
23.820        27
23.830        40
23.840        13
23.850        40
23.860        13
23.870        13
23.880        27
23.890        40
23.900        40
23.910        13
23.920        53
23.930        53
23.940        27
23.950        13
23.960        27
23.970        40
23.980        80
23.990        40
24.000        67
24.010        13
24.020        40
24.030        53
24.040        67
24.050        13
24.060         0
24.070        53
24.080        27
24.090        53
24.100        40
24.110        80
24.120        27
24.130        13
24.140        67
24.150        53
24.160        40
24.170        40
24.180        40
24.190        80
24.200        67
24.210        27
24.220        80
24.230        13
24.240        27
24.250         0
24.260        13
24.270        40
24.280        40
24.290        13
24.300        27
24.310        93
24.320        53
24.330        13
24.340        53
24.350        13
24.360        27
24.370        13
24.380        40
24.390        13
24.400        13
24.410        27
24.420        53
24.430        13
24.440        13
24.450        40
24.460        40
24.470        13
24.480        13
24.490        27
24.500        13
24.510        27
24.520        40
24.530        13
24.540        27
24.550        27
24.560        40
24.570        40
24.580        27
24.590        13
24.600        67
24.610        27
24.620         0
24.630        40
24.640        27
24.650        40
24.660         0
24.670        27
24.680        80
24.690        13
24.700        13
24.710        40
24.720        53
24.730         0
24.740        13
24.750        13
24.760        13
24.770        40
24.780        40
24.790        40
24.800        53
24.810        67
24.820        13
24.830        27
24.840        27
24.850        53
24.860         0
24.870        40
24.880        67
24.890        27
24.900        67
24.910         0
24.920        27
24.930        13
24.940        40
24.950        40
24.960        53
24.970         0
24.980        67
24.990         0
25.000         0
25.010        53
25.020         0
25.030        13
25.040        27
25.050        27
25.060        13
25.070        40
25.080        27
25.090        53
25.100        53
25.110        13
25.120        40
25.130        13
25.140        40
25.150        27
25.160        27
25.170        13
25.180        40
25.190         0
25.200        27
25.210        40
25.220        13
25.230        13
25.240        13
25.250        13
25.260        13
25.270        53
25.280        13
25.290        40
25.300        27
25.310        27
25.320        27
25.330        40
25.340        27
25.350        27
25.360        13
25.370         0
25.380        80
25.390        53
25.400        40
25.410        53
25.420        40
25.430        27
25.440        27
25.450        53
25.460        13
25.470        67
25.480        40
25.490        53
25.500        53
25.510        80
25.520        40
25.530        40
25.540       107
25.550        93
25.560       147
25.570       133
25.580       200
25.590       173
25.600       147
25.610       200
25.620       187
25.630        67
25.640        53
25.650        80
25.660        80
25.670        53
25.680        40
25.690        53
25.700        40
25.710        53
25.720        40
25.730        40
25.740        13
25.750        27
25.760        67
25.770        40
25.780        27
25.790        67
25.800        53
25.810        27
25.820        27
25.830        40
25.840        27
25.850         0
25.860        13
25.870        13
25.880        27
25.890        27
25.900         0
25.910        27
25.920        27
25.930        40
25.940        13
25.950        53
25.960        93
25.970        40
25.980        13
25.990         0
26.000        13
26.010        67
26.020        27
26.030         0
26.040        40
26.050        40
26.060        27
26.070        93
26.080        40
26.090        13
26.100        53
26.110        27
26.120        67
26.130        27
26.140        40
26.150        13
26.160        27
26.170        13
26.180        27
26.190        40
26.200         0
26.210        27
26.220        67
26.230        53
26.240        53
26.250        40
26.260         0
26.270        13
26.280        27
26.290        27
26.300        27
26.310        67
26.320        40
26.330        13
26.340        13
26.350        27
26.360        53
26.370        53
26.380        67
26.390        27
26.400        27
26.410        13
26.420        40
26.430        27
26.440        53
26.450        27
26.460        27
26.470        53
26.480        27
26.490         0
26.500        40
26.510        27
26.520         0
26.530        53
26.540        27
26.550        40
26.560        13
26.570        27
26.580         0
26.590        53
26.600        27
26.610        67
26.620        40
26.630        27
26.640        13
26.650        40
26.660        53
26.670        27
26.680        13
26.690        13
26.700        67
26.710        27
26.720        27
26.730        27
26.740        40
26.750        40
26.760        13
26.770        27
26.780        40
26.790        27
26.800         0
26.810        13
26.820        27
26.830         0
26.840        40
26.850        27
26.860        27
26.870        13
26.880         0
26.890        40
26.900        40
26.910        27
26.920         0
26.930        27
26.940        13
26.950        53
26.960        67
26.970         0
26.980        53
26.990         0
27.000        13
27.010        13
27.020        53
27.030         0
27.040        40
27.050        53
27.060        13
27.070        53
27.080         0
27.090        40
27.100        27
27.110        53
27.120        13
27.130        53
27.140        53
27.150        27
27.160        13
27.170        13
27.180        13
27.190        67
27.200        13
27.210        53
27.220        53
27.230        40
27.240        40
27.250        13
27.260        40
27.270        40
27.280        53
27.290        13
27.300        40
27.310        27
27.320        53
27.330        27
27.340        13
27.350        13
27.360        27
27.370        27
27.380         0
27.390        67
27.400        13
27.410        13
27.420        40
27.430        27
27.440        27
27.450        27
27.460        27
27.470        53
27.480        53
27.490        40
27.500        13
27.510        67
27.520        80
27.530        40
27.540        40
27.550        53
27.560        40
27.570         0
27.580        53
27.590        40
27.600         0
27.610        40
27.620        40
27.630         0
27.640        13
27.650         0
27.660        27
27.670        27
27.680        13
27.690        53
27.700         0
27.710        13
27.720        67
27.730        67
27.740         0
27.750        40
27.760        13
27.770        53
27.780        13
27.790        13
27.800        40
27.810        27
27.820        27
27.830        53
27.840        27
27.850        27
27.860        40
27.870        40
27.880        53
27.890        40
27.900        40
27.910        53
27.920        27
27.930        80
27.940        27
27.950         0
27.960        93
27.970        53
27.980         0
27.990        27
28.000        13
28.010        27
28.020        13
28.030        27
28.040         0
28.050        40
28.060        40
28.070        80
28.080        27
28.090        13
28.100        13
28.110        67
28.120        27
28.130        13
28.140         0
28.150        40
28.160        53
28.170        13
28.180        13
28.190        13
28.200        13
28.210         0
28.220         0
28.230        40
28.240        13
28.250        13
28.260        27
28.270        27
28.280        27
28.290        13
28.300        40
28.310        40
28.320        27
28.330        40
28.340         0
28.350        40
28.360        40
28.370        40
28.380        80
28.390        13
28.400        40
28.410        40
28.420        27
28.430        13
28.440        13
28.450         0
28.460        13
28.470        13
28.480        53
28.490        27
28.500        13
28.510        80
28.520        13
28.530        13
28.540        13
28.550         0
28.560        13
28.570        13
28.580        53
28.590        27
28.600        27
28.610         0
28.620        13
28.630         0
28.640        27
28.650        27
28.660        13
28.670        13
28.680        40
28.690        27
28.700        40
28.710        67
28.720        13
28.730        13
28.740        13
28.750         0
28.760        13
28.770        40
28.780        40
28.790        13
28.800        40
28.810        13
28.820        40
28.830        40
28.840        40
28.850        40
28.860        13
28.870        13
28.880        13
28.890        27
28.900        53
28.910        53
28.920        13
28.930        13
28.940        40
28.950         0
28.960        40
28.970        27
28.980        53
28.990        27
29.000        53
29.010        13
29.020        13
29.030         0
29.040        13
29.050        27
29.060        13
29.070        27
29.080        13
29.090        13
29.100        13
29.110        40
29.120        13
29.130        13
29.140        13
29.150        80
29.160        13
29.170        13
29.180        53
29.190         0
29.200        40
29.210        27
29.220        53
29.230        13
29.240        53
29.250        13
29.260        40
29.270         0
29.280        13
29.290        13
29.300        53
29.310        27
29.320         0
29.330        27
29.340        40
29.350        40
29.360        13
29.370        27
29.380        27
29.390        13
29.400        40
29.410        40
29.420        27
29.430         0
29.440         0
29.450        40
29.460        27
29.470        27
29.480        27
29.490         0
29.500        13
29.510        27
29.520        40
29.530        67
29.540        67
29.550        13
29.560        27
29.570        27
29.580        27
29.590        40
29.600        13
29.610         0
29.620        40
29.630        27
29.640        40
29.650         0
29.660         0
29.670        13
29.680         0
29.690        13
29.700        27
29.710         0
29.720        40
29.730        27
29.740        13
29.750        13
29.760        13
29.770        27
29.780        13
29.790         0
29.800        53
29.810        27
29.820        53
29.830         0
29.840        67
29.850         0
29.860        27
29.870        67
29.880        13
29.890        53
29.900        13
29.910        13
29.920        27
29.930        13
29.940        27
29.950        40
29.960        27
29.970        27
29.980        27
29.990        27
30.000        13
30.010        40
30.020        40
30.030        40
30.040         0
30.050        27
30.060         0
30.070        13
30.080        27
30.090        53
30.100        13
30.110        27
30.120        27
30.130        13
30.140        40
30.150         0
30.160        40
30.170         0
30.180        27
30.190        40
30.200         0
30.210        27
30.220        27
30.230         0
30.240        13
30.250        27
30.260        53
30.270        13
30.280        13
30.290        13
30.300        13
30.310        13
30.320        13
30.330        27
30.340         0
30.350        40
30.360        13
30.370        67
30.380        27
30.390        27
30.400         0
30.410         0
30.420        40
30.430        13
30.440        13
30.450        27
30.460         0
30.470        40
30.480        13
30.490        27
30.500        53
30.510        13
30.520         0
30.530        13
30.540        13
30.550         0
30.560         0
30.570         0
30.580        27
30.590        27
30.600        27
30.610        53
30.620        13
30.630        27
30.640        40
30.650        27
30.660         0
30.670        27
30.680        13
30.690        13
30.700        13
30.710        67
30.720        13
30.730        27
30.740        53
30.750         0
30.760        40
30.770        40
30.780         0
30.790        27
30.800        27
30.810        13
30.820        27
30.830         0
30.840        13
30.850        67
30.860        53
30.870        53
30.880        27
30.890         0
30.900        27
30.910        27
30.920        13
30.930        27
30.940        53
30.950        53
30.960        40
30.970         0
30.980        13
30.990        13
31.000        27
31.010        27
31.020        40
31.030        27
31.040        13
31.050        27
31.060        40
31.070        53
31.080         0
31.090        13
31.100        13
31.110        27
31.120         0
31.130        27
31.140        27
31.150         0
31.160        40
31.170        40
31.180        27
31.190        13
31.200        13
31.210        53
31.220        40
31.230        53
31.240        27
31.250         0
31.260        27
31.270        27
31.280        53
31.290        27
31.300        13
31.310        13
31.320        27
31.330        13
31.340        40
31.350        27
31.360        13
31.370        13
31.380        40
31.390        13
31.400        27
31.410         0
31.420        40
31.430        27
31.440        53
31.450        13
31.460        40
31.470        27
31.480        27
31.490        13
31.500         0
31.510         0
31.520        27
31.530        13
31.540         0
31.550        13
31.560         0
31.570         0
31.580        27
31.590        40
31.600        27
31.610        13
31.620        27
31.630        53
31.640         0
31.650        13
31.660        13
31.670        53
31.680        13
31.690        53
31.700        27
31.710        27
31.720        13
31.730        67
31.740        13
31.750        13
31.760        13
31.770        40
31.780         0
31.790        40
31.800        53
31.810        40
31.820        13
31.830        13
31.840        53
31.850        27
31.860        13
31.870         0
31.880         0
31.890        67
31.900        53
31.910         0
31.920        40
31.930         0
31.940        40
31.950        13
31.960        27
31.970        40
31.980        27
31.990        13
32.000        40
32.010       107
32.020        13
32.030        40
32.040        13
32.050         0
32.060         0
32.070        27
32.080        13
32.090        27
32.100        13
32.110        13
32.120        27
32.130        13
32.140        40
32.150        13
32.160        13
32.170        27
32.180        13
32.190        27
32.200         0
32.210         0
32.220        13
32.230        53
32.240        40
32.250        13
32.260        40
32.270        27
32.280        40
32.290        53
32.300        53
32.310        27
32.320        13
32.330        27
32.340        40
32.350        27
32.360        53
32.370        53
32.380        27
32.390         0
32.400        27
32.410        13
32.420        27
32.430        27
32.440        53
32.450        27
32.460        13
32.470        27
32.480        27
32.490        13
32.500        27
32.510         0
32.520        13
32.530        53
32.540        67
32.550         0
32.560         0
32.570         0
32.580         0
32.590        40
32.600         0
32.610        13
32.620        27
32.630        13
32.640        27
32.650        27
32.660        27
32.670        27
32.680         0
32.690        53
32.700        13
32.710         0
32.720        13
32.730         0
32.740        27
32.750         0
32.760        40
32.770        13
32.780        27
32.790        13
32.800         0
32.810        67
32.820        27
32.830        13
32.840        27
32.850        40
32.860         0
32.870        13
32.880        27
32.890        53
32.900        27
32.910         0
32.920        13
32.930        27
32.940        40
32.950        53
32.960        13
32.970        40
32.980        13
32.990        27
33.000        13
33.010        13
33.020        40
33.030        27
33.040        27
33.050        40
33.060        80
33.070        13
33.080        53
33.090        27
33.100         0
33.110         0
33.120        13
33.130        13
33.140        40
33.150        13
33.160        13
33.170         0
33.180        27
33.190        67
33.200        40
33.210        13
33.220        40
33.230        27
33.240        67
33.250        27
33.260        40
33.270        27
33.280        27
33.290         0
33.300        40
33.310        13
33.320         0
33.330         0
33.340        13
33.350        13
33.360        40
33.370         0
33.380        13
33.390        53
33.400        40
33.410        40
33.420        27
33.430        27
33.440        40
33.450         0
33.460        13
33.470        13
33.480        27
33.490         0
33.500        27
33.510        13
33.520        27
33.530        27
33.540        27
33.550        13
33.560         0
33.570         0
33.580        27
33.590        13
33.600        13
33.610        13
33.620        13
33.630        53
33.640        40
33.650        40
33.660        27
33.670        53
33.680        27
33.690        13
33.700        27
33.710         0
33.720        40
33.730         0
33.740        13
33.750        13
33.760        13
33.770        27
33.780        13
33.790        13
33.800        40
33.810         0
33.820         0
33.830        13
33.840        27
33.850         0
33.860        40
33.870        67
33.880        13
33.890         0
33.900        13
33.910        13
33.920        27
33.930         0
33.940        13
33.950        40
33.960        40
33.970        27
33.980         0
33.990        27
34.000         0
34.010        27
34.020        53
34.030        40
34.040        67
34.050        13
34.060         0
34.070        27
34.080        27
34.090        13
34.100        53
34.110        67
34.120        27
34.130        13
34.140        13
34.150        53
34.160        13
34.170        27
34.180        27
34.190         0
34.200        53
34.210        40
34.220        13
34.230        13
34.240        27
34.250        27
34.260         0
34.270        27
34.280        40
34.290         0
34.300        53
34.310        13
34.320        13
34.330        40
34.340         0
34.350        67
34.360        27
34.370        67
34.380        27
34.390        40
34.400         0
34.410        40
34.420         0
34.430        53
34.440        40
34.450        40
34.460         0
34.470        13
34.480         0
34.490        27
34.500        13
34.510        27
34.520        40
34.530        13
34.540         0
34.550        27
34.560        27
34.570        13
34.580        27
34.590        40
34.600        27
34.610        13
34.620        13
34.630        27
34.640        13
34.650        40
34.660        13
34.670         0
34.680        40
34.690        53
34.700        13
34.710        27
34.720        53
34.730        13
34.740         0
34.750        27
34.760        27
34.770        13
34.780        13
34.790         0
34.800        40
34.810        80
34.820        13
34.830        13
34.840        13
34.850        13
34.860         0
34.870        27
34.880        67
34.890        27
34.900        53
34.910        13
34.920        40
34.930        53
34.940        27
34.950         0
34.960        40
34.970        27
34.980        40
34.990        80
35.000         0
35.010        80
35.020        40
35.030        40
35.040        27
35.050        40
35.060        40
35.070       107
35.080        53
35.090        80
35.100       107
35.110       133
35.120       173
35.130       160
35.140       160
35.150       267
35.160       200
35.170       227
35.180       307
35.190       453
35.200       453
35.210       400
35.220       480
35.230       586
35.240       466
35.250       373
35.260       413
35.270       213
35.280       267
35.290       240
35.300       320
35.310       333
35.320       213
35.330       173
35.340       133
35.350       133
35.360        80
35.370        53
35.380        40
35.390        13
35.400        80
35.410        27
35.420        40
35.430         0
35.440        27
35.450         0
35.460        27
35.470        67
35.480        13
35.490        13
35.500        13
35.510        13
35.520         0
35.530        40
35.540        27
35.550        13
35.560        67
35.570        13
35.580        53
35.590        27
35.600        27
35.610         0
35.620        67
35.630        13
35.640         0
35.650        27
35.660        40
35.670        13
35.680        27
35.690        27
35.700        27
35.710        27
35.720        27
35.730        27
35.740        40
35.750        13
35.760        27
35.770        13
35.780         0
35.790         0
35.800        13
35.810        27
35.820         0
35.830        67
35.840        40
35.850         0
35.860        13
35.870        13
35.880        27
35.890        53
35.900        13
35.910        27
35.920        27
35.930        13
35.940        13
35.950        40
35.960         0
35.970        13
35.980        27
35.990        40
36.000        40
36.010        13
36.020        40
36.030         0
36.040        13
36.050        40
36.060        13
36.070        27
36.080        27
36.090        40
36.100        27
36.110        40
36.120        27
36.130        40
36.140        13
36.150        13
36.160        67
36.170        13
36.180        40
36.190        13
36.200        67
36.210        27
36.220        13
36.230        27
36.240        13
36.250        80
36.260        40
36.270         0
36.280        13
36.290         0
36.300        13
36.310        40
36.320         0
36.330        13
36.340        13
36.350         0
36.360         0
36.370        13
36.380        13
36.390        13
36.400         0
36.410        40
36.420        13
36.430        53
36.440        27
36.450         0
36.460         0
36.470        13
36.480        27
36.490        13
36.500        40
36.510        27
36.520        13
36.530         0
36.540        13
36.550        53
36.560        40
36.570         0
36.580        13
36.590        13
36.600        27
36.610        53
36.620        40
36.630        13
36.640        13
36.650         0
36.660        67
36.670        13
36.680        40
36.690        13
36.700        40
36.710        13
36.720        27
36.730         0
36.740        13
36.750        27
36.760        27
36.770        13
36.780        13
36.790        40
36.800        53
36.810        13
36.820        27
36.830        27
36.840        13
36.850        40
36.860        13
36.870        13
36.880        13
36.890        53
36.900        67
36.910        13
36.920        27
36.930        40
36.940        27
36.950         0
36.960         0
36.970        27
36.980        67
36.990        27
37.000        53
37.010        13
37.020        40
37.030        27
37.040         0
37.050        27
37.060        27
37.070        27
37.080        27
37.090         0
37.100        40
37.110        40
37.120        13
37.130        27
37.140         0
37.150        27
37.160        13
37.170        13
37.180        27
37.190        13
37.200        13
37.210        40
37.220         0
37.230        53
37.240        13
37.250        27
37.260        27
37.270         0
37.280        27
37.290        13
37.300         0
37.310        27
37.320        13
37.330        13
37.340         0
37.350        13
37.360        67
37.370        13
37.380        13
37.390        13
37.400        80
37.410        13
37.420        27
37.430         0
37.440        53
37.450        13
37.460        13
37.470        27
37.480        27
37.490        40
37.500         0
37.510        13
37.520        27
37.530        13
37.540        27
37.550        53
37.560         0
37.570        13
37.580        27
37.590        13
37.600         0
37.610        27
37.620        13
37.630        40
37.640        13
37.650        13
37.660         0
37.670        13
37.680        13
37.690        40
37.700        27
37.710        40
37.720        53
37.730        13
37.740        13
37.750        27
37.760        67
37.770        27
37.780         0
37.790        13
37.800        67
37.810        67
37.820        13
37.830        67
37.840        40
37.850        13
37.860        40
37.870        53
37.880        40
37.890        67
37.900        40
37.910        67
37.920        67
37.930        53
37.940        40
37.950        27
37.960        40
37.970        40
37.980        53
37.990        13
38.000        40
38.010        13
38.020        93
38.030         0
38.040        27
38.050        13
38.060        53
38.070        40
38.080         0
38.090        13
38.100        27
38.110        27
38.120        13
38.130        40
38.140        53
38.150         0
38.160        13
38.170        27
38.180        13
38.190        27
38.200        13
38.210        13
38.220        53
38.230        27
38.240        13
38.250        13
38.260        13
38.270        27
38.280         0
38.290         0
38.300         0
38.310        13
38.320        13
38.330        13
38.340        27
38.350         0
38.360         0
38.370         0
38.380        40
38.390        27
38.400        13
38.410        53
38.420         0
38.430        13
38.440        27
38.450        53
38.460        13
38.470        13
38.480        40
38.490        13
38.500        13
38.510        13
38.520        13
38.530        27
38.540        13
38.550        27
38.560        13
38.570        67
38.580        13
38.590         0
38.600         0
38.610        13
38.620        13
38.630         0
38.640        27
38.650        13
38.660        27
38.670         0
38.680        13
38.690        27
38.700         0
38.710        13
38.720        27
38.730        13
38.740        27
38.750        13
38.760        13
38.770        27
38.780         0
38.790        27
38.800         0
38.810        27
38.820        13
38.830        13
38.840         0
38.850        13
38.860        13
38.870        27
38.880        53
38.890         0
38.900        27
38.910        13
38.920         0
38.930         0
38.940         0
38.950        40
38.960         0
38.970        27
38.980         0
38.990         0
39.000         0
39.010        13
39.020        27
39.030        40
39.040         0
39.050        27
39.060        40
39.070         0
39.080        13
39.090        27
39.100        53
39.110        27
39.120        13
39.130         0
39.140        13
39.150         0
39.160        13
39.170         0
39.180        13
39.190        40
39.200        40
39.210        40
39.220        27
39.230        13
39.240        40
39.250        53
39.260        27
39.270        13
39.280        27
39.290        53
39.300        27
39.310        13
39.320        67
39.330        13
39.340         0
39.350         0
39.360         0
39.370        13
39.380        27
39.390        13
39.400        27
39.410        27
39.420         0
39.430        13
39.440        27
39.450         0
39.460        13
39.470        13
39.480        27
39.490        27
39.500        13
39.510        40
39.520        13
39.530        40
39.540        13
39.550        40
39.560        27
39.570         0
39.580         0
39.590        13
39.600         0
39.610        13
39.620        13
39.630        13
39.640        27
39.650        27
39.660        40
39.670        40
39.680        27
39.690        27
39.700         0
39.710        40
39.720        13
39.730        13
39.740        27
39.750         0
39.760        27
39.770        53
39.780        13
39.790        27
39.800        40
39.810        27
39.820        40
39.830        40
39.840        13
39.850        53
39.860        13
39.870        27
39.880         0
39.890        40
39.900        27
39.910        13
39.920        27
39.930        40
39.940        27
39.950         0
39.960         0
39.970        40
39.980         0
39.990         0
40.000        13
40.010        27
40.020        27
40.030         0
40.040        13
40.050        27
40.060        27
40.070        40
40.080        13
40.090        67
40.100        13
40.110        13
40.120         0
40.130        13
40.140        13
40.150        13
40.160        13
40.170        40
40.180        27
40.190        13
40.200        13
40.210        13
40.220         0
40.230        27
40.240        13
40.250         0
40.260        13
40.270        40
40.280        27
40.290        13
40.300        40
40.310        13
40.320         0
40.330        13
40.340        13
40.350        40
40.360         0
40.370        27
40.380        13
40.390        13
40.400        13
40.410        27
40.420        27
40.430        13
40.440        27
40.450        27
40.460        13
40.470        13
40.480        13
40.490        40
40.500        27
40.510        27
40.520         0
40.530        53
40.540        13
40.550         0
40.560        27
40.570        40
40.580        40
40.590         0
40.600         0
40.610         0
40.620        27
40.630        27
40.640        13
40.650        13
40.660        53
40.670         0
40.680        53
40.690        67
40.700        13
40.710        27
40.720         0
40.730        27
40.740        27
40.750        13
40.760        13
40.770        40
40.780         0
40.790        40
40.800         0
40.810        27
40.820        27
40.830        13
40.840        27
40.850         0
40.860        13
40.870         0
40.880         0
40.890        40
40.900        27
40.910        53
40.920         0
40.930        13
40.940        27
40.950        13
40.960         0
40.970        40
40.980        40
40.990        27
41.000        13
41.010        27
41.020        27
41.030         0
41.040        53
41.050        13
41.060        53
41.070         0
41.080        13
41.090        27
41.100        53
41.110        27
41.120        40
41.130        27
41.140         0
41.150         0
41.160         0
41.170        13
41.180        13
41.190        27
41.200        13
41.210        13
41.220        13
41.230        13
41.240        13
41.250        27
41.260        40
41.270         0
41.280        13
41.290        40
41.300        13
41.310        13
41.320         0
41.330        13
41.340        13
41.350         0
41.360        27
41.370        27
41.380        13
41.390        13
41.400        27
41.410        13
41.420        40
41.430        13
41.440         0
41.450        13
41.460        40
41.470        53
41.480        67
41.490        13
41.500        13
41.510        53
41.520         0
41.530        27
41.540        40
41.550        53
41.560        13
41.570        40
41.580        67
41.590        80
41.600        40
41.610        40
41.620        27
41.630        53
41.640        80
41.650        93
41.660        53
41.670       133
41.680        93
41.690       187
41.700       160
41.710       200
41.720       160
41.730       213
41.740       227
41.750       173
41.760       253
41.770       253
41.780       200
41.790       293
41.800       253
41.810       280
41.820       160
41.830        80
41.840       213
41.850        93
41.860       213
41.870       147
41.880       173
41.890       107
41.900        93
41.910       120
41.920       187
41.930        53
41.940        27
41.950        27
41.960        27
41.970        27
41.980        27
41.990        13
42.000        53
42.010         0
42.020        27
42.030        27
42.040        13
42.050         0
42.060        13
42.070        13
42.080        13
42.090        27
42.100        13
42.110        13
42.120        40
42.130         0
42.140         0
42.150        27
42.160         0
42.170         0
42.180        27
42.190         0
42.200        40
42.210        13
42.220        13
42.230        27
42.240        80
42.250        13
42.260         0
42.270         0
42.280         0
42.290         0
42.300         0
42.310        13
42.320         0
42.330        13
42.340        40
42.350        13
42.360        53
42.370        53
42.380        13
42.390        13
42.400        13
42.410         0
42.420        27
42.430        27
42.440        53
42.450        40
42.460        13
42.470        27
42.480        13
42.490        13
42.500        27
42.510        53
42.520        13
42.530        27
42.540         0
42.550         0
42.560        13
42.570        40
42.580        13
42.590        40
42.600         0
42.610         0
42.620        27
42.630        27
42.640        40
42.650        13
42.660        27
42.670        13
42.680         0
42.690        13
42.700        13
42.710        40
42.720        13
42.730         0
42.740         0
42.750         0
42.760        53
42.770        13
42.780        27
42.790        13
42.800        40
42.810        13
42.820        13
42.830        13
42.840        13
42.850         0
42.860         0
42.870         0
42.880        27
42.890        27
42.900        27
42.910        27
42.920        13
42.930        13
42.940        13
42.950         0
42.960        53
42.970        40
42.980        13
42.990         0
43.000        27
43.010        80
43.020         0
43.030         0
43.040        27
43.050        27
43.060        13
43.070         0
43.080         0
43.090        27
43.100         0
43.110         0
43.120        13
43.130         0
43.140         0
43.150        13
43.160        40
43.170         0
43.180        13
43.190         0
43.200        53
43.210        40
43.220        27
43.230        13
43.240        13
43.250        13
43.260        27
43.270         0
43.280        27
43.290        13
43.300        13
43.310        27
43.320        27
43.330        53
43.340        53
43.350        40
43.360        67
43.370        27
43.380        40
43.390        40
43.400        27
43.410        93
43.420        93
43.430        93
43.440        93
43.450       120
43.460        93
43.470       120
43.480       133
43.490        80
43.500        80
43.510        13
43.520        40
43.530        13
43.540        80
43.550        40
43.560        80
43.570       107
43.580        80
43.590        80
43.600        40
43.610        40
43.620        13
43.630        80
43.640        40
43.650         0
43.660        27
43.670        27
43.680        13
43.690        13
43.700         0
43.710        53
43.720        40
43.730        13
43.740         0
43.750         0
43.760        13
43.770         0
43.780         0
43.790        53
43.800        27
43.810        13
43.820        13
43.830        13
43.840        13
43.850        13
43.860        27
43.870        13
43.880        27
43.890         0
43.900        13
43.910        13
43.920        40
43.930        13
43.940        13
43.950        27
43.960        13
43.970        13
43.980        13
43.990        27
44.000        67
44.010        40
44.020        27
44.030        13
44.040        27
44.050         0
44.060        13
44.070        13
44.080        13
44.090        27
44.100        27
44.110         0
44.120        27
44.130         0
44.140        40
44.150        40
44.160        13
44.170        13
44.180        27
44.190         0
44.200        27
44.210        13
44.220        40
44.230        13
44.240        27
44.250         0
44.260        13
44.270        13
44.280        13
44.290         0
44.300        27
44.310         0
44.320        13
44.330         0
44.340         0
44.350        13
44.360        13
44.370        13
44.380        27
44.390        13
44.400        40
44.410        27
44.420         0
44.430        53
44.440         0
44.450        27
44.460        27
44.470        13
44.480        27
44.490        53
44.500        27
44.510        53
44.520         0
44.530        40
44.540        27
44.550         0
44.560        40
44.570        13
44.580         0
44.590         0
44.600        40
44.610        40
44.620        13
44.630        27
44.640        27
44.650         0
44.660        40
44.670        13
44.680        27
44.690        13
44.700        27
44.710        13
44.720         0
44.730        13
44.740         0
44.750         0
44.760        13
44.770        40
44.780        13
44.790         0
44.800        27
44.810        13
44.820         0
44.830        27
44.840        13
44.850        13
44.860         0
44.870         0
44.880        13
44.890        13
44.900        13
44.910        13
44.920        13
44.930         0
44.940        13
44.950        27
44.960        27
44.970         0
44.980         0
44.990         0
45.000         0
45.010        13
45.020        40
45.030        27
45.040         0
45.050        13
45.060         0
45.070        13
45.080         0
45.090         0
45.100        13
45.110        27
45.120        27
45.130        27
45.140        13
45.150        27
45.160         0
45.170        13
45.180        27
45.190        27
45.200        13
45.210        13
45.220        13
45.230        13
45.240         0
45.250        40
45.260         0
45.270        13
45.280        40
45.290         0
45.300        13
45.310         0
45.320        27
45.330        67
45.340        40
45.350         0
45.360         0
45.370        40
45.380        13
45.390        27
45.400         0
45.410        27
45.420        13
45.430        13
45.440         0
45.450        27
45.460         0
45.470         0
45.480        13
45.490        13
45.500        13
45.510        40
45.520         0
45.530         0
45.540        27
45.550         0
45.560         0
45.570         0
45.580        13
45.590         0
45.600         0
45.610        27
45.620        27
45.630        13
45.640         0
45.650        53
45.660        27
45.670         0
45.680        27
45.690         0
45.700        13
45.710         0
45.720         0
45.730        27
45.740         0
45.750         0
45.760         0
45.770         0
45.780        27
45.790         0
45.800         0
45.810         0
45.820         0
45.830        13
45.840        13
45.850        27
45.860         0
45.870        27
45.880        13
45.890        13
45.900         0
45.910        13
45.920        13
45.930         0
45.940        40
45.950        27
45.960        13
45.970        40
45.980         0
45.990        13
46.000        27
46.010        13
46.020         0
46.030         0
46.040        13
46.050        27
46.060        13
46.070        40
46.080        27
46.090        13
46.100        13
46.110        13
46.120        13
46.130         0
46.140        13
46.150         0
46.160        13
46.170        13
46.180        13
46.190        27
46.200         0
46.210        27
46.220        13
46.230         0
46.240        53
46.250        27
46.260        13
46.270        13
46.280        13
46.290        27
46.300        13
46.310        27
46.320        13
46.330        27
46.340         0
46.350        13
46.360        53
46.370        27
46.380        13
46.390        13
46.400        27
46.410        13
46.420        80
46.430        13
46.440        27
46.450        27
46.460        40
46.470        80
46.480        27
46.490        13
46.500        27
46.510         0
46.520        27
46.530        27
46.540        40
46.550        53
46.560        53
46.570        27
46.580        13
46.590        27
46.600        40
46.610        27
46.620        13
46.630        40
46.640        13
46.650        40
46.660        53
46.670         0
46.680         0
46.690        27
46.700        40
46.710         0
46.720        27
46.730        27
46.740        27
46.750         0
46.760        13
46.770        27
46.780        13
46.790        13
46.800        13
46.810        13
46.820         0
46.830         0
46.840        27
46.850        40
46.860        13
46.870        13
46.880         0
46.890         0
46.900         0
46.910        27
46.920        27
46.930        13
46.940        13
46.950         0
46.960        13
46.970         0
46.980         0
46.990         0
47.000        13
47.010        27
47.020        27
47.030        13
47.040        13
47.050        13
47.060         0
47.070         0
47.080         0
47.090         0
47.100         0
47.110        13
47.120        13
47.130        13
47.140        40
47.150        13
47.160        27
47.170        27
47.180        13
47.190        13
47.200        27
47.210        13
47.220        13
47.230        27
47.240         0
47.250        27
47.260        13
47.270         0
47.280        27
47.290        13
47.300        27
47.310         0
47.320         0
47.330        27
47.340         0
47.350         0
47.360        13
47.370        40
47.380         0
47.390        13
47.400        13
47.410         0
47.420        27
47.430         0
47.440         0
47.450        13
47.460        13
47.470         0
47.480         0
47.490         0
47.500        13
47.510        53
47.520        13
47.530        13
47.540        13
47.550        40
47.560        40
47.570         0
47.580         0
47.590         0
47.600        27
47.610        13
47.620        27
47.630        27
47.640         0
47.650        13
47.660        27
47.670        13
47.680        13
47.690        13
47.700        27
47.710        13
47.720        27
47.730        13
47.740         0
47.750        40
47.760         0
47.770        27
47.780        40
47.790         0
47.800        40
47.810        13
47.820        13
47.830        40
47.840         0
47.850         0
47.860         0
47.870        13
47.880        13
47.890        27
47.900        13
47.910         0
47.920        13
47.930         0
47.940        27
47.950         0
47.960        13
47.970        13
47.980        13
47.990        13
48.000        13
48.010        27
48.020        13
48.030        27
48.040         0
48.050         0
48.060         0
48.070        27
48.080        13
48.090         0
48.100         0
48.110         0
48.120         0
48.130        27
48.140        13
48.150        13
48.160         0
48.170        27
48.180         0
48.190        67
48.200         0
48.210         0
48.220        27
48.230        13
48.240        53
48.250        53
48.260        13
48.270        13
48.280        13
48.290        40
48.300        13
48.310        27
48.320        27
48.330        13
48.340         0
48.350        13
48.360        40
48.370        13
48.380         0
48.390         0
48.400         0
48.410        13
48.420        27
48.430        40
48.440        13
48.450        27
48.460        27
48.470        27
48.480        27
48.490         0
48.500        13
48.510        13
48.520        40
48.530         0
48.540         0
48.550        13
48.560        27
48.570        27
48.580         0
48.590        27
48.600        13
48.610        13
48.620        13
48.630        27
48.640         0
48.650        13
48.660        27
48.670        27
48.680        53
48.690        40
48.700        27
48.710        40
48.720        13
48.730         0
48.740        13
48.750        13
48.760        13
48.770        27
48.780         0
48.790        13
48.800         0
48.810         0
48.820        13
48.830        27
48.840         0
48.850        13
48.860        13
48.870        13
48.880        27
48.890         0
48.900        27
48.910         0
48.920        40
48.930        13
48.940         0
48.950        13
48.960        53
48.970         0
48.980        27
48.990        13
49.000        13
49.010        13
49.020        13
49.030        40
49.040        13
49.050        13
49.060        27
49.070         0
49.080         0
49.090        27
49.100        27
49.110         0
49.120        40
49.130         0
49.140        13
49.150         0
49.160         0
49.170        27
49.180         0
49.190        27
49.200        27
49.210         0
49.220         0
49.230        27
49.240        27
49.250         0
49.260        40
49.270        40
49.280        13
49.290        27
49.300         0
49.310         0
49.320         0
49.330        27
49.340         0
49.350         0
49.360        13
49.370         0
49.380        53
49.390        13
49.400        27
49.410         0
49.420        13
49.430        13
49.440        13
49.450        13
49.460        13
49.470        13
49.480        27
49.490        13
49.500        27
49.510        13
49.520        13
49.530        13
49.540        13
49.550        27
49.560         0
49.570        13
49.580         0
49.590         0
49.600         0
49.610         0
49.620         0
49.630         0
49.640        13
49.650        27
49.660         0
49.670         0
49.680         0
49.690        40
49.700         0
49.710         0
49.720        27
49.730        13
49.740        13
49.750         0
49.760         0
49.770        40
49.780        13
49.790        13
49.800        40
49.810        13
49.820        13
49.830         0
49.840         0
49.850        40
49.860        27
49.870         0
49.880         0
49.890        27
49.900         0
49.910         0
49.920         0
49.930        13
49.940        40
49.950         0
49.960        27
49.970        27
49.980         0
49.990        13
50.000         0
50.010        13
50.020         0
50.030        13
50.040        13
50.050         0
50.060        13
50.070        40
50.080        27
50.090        13
50.100         0
50.110        13
50.120         0
50.130         0
50.140        13
50.150        13
50.160         0
50.170         0
50.180        27
50.190        40
50.200        13
50.210         0
50.220        27
50.230        13
50.240        13
50.250         0
50.260        13
50.270        13
50.280        27
50.290         0
50.300        13
50.310        13
50.320        13
50.330         0
50.340        13
50.350         0
50.360        27
50.370         0
50.380        27
50.390         0
50.400         0
50.410        27
50.420         0
50.430        13
50.440        13
50.450        13
50.460        13
50.470        40
50.480         0
50.490         0
50.500        27
50.510         0
50.520         0
50.530         0
50.540        13
50.550         0
50.560        13
50.570        13
50.580         0
50.590        13
50.600        13
50.610         0
50.620        13
50.630        13
50.640         0
50.650         0
50.660        13
50.670        13
50.680        13
50.690         0
50.700         0
50.710        13
50.720         0
50.730         0
50.740        13
50.750         0
50.760         0
50.770         0
50.780        27
50.790        13
50.800        13
50.810        27
50.820        13
50.830         0
50.840        13
50.850         0
50.860        40
50.870        53
50.880         0
50.890         0
50.900        13
50.910         0
50.920         0
50.930        13
50.940         0
50.950         0
50.960        13
50.970        13
50.980        13
50.990        13
51.000        40
51.010        13
51.020        13
51.030         0
51.040         0
51.050         0
51.060        13
51.070        13
51.080        13
51.090        13
51.100         0
51.110        40
51.120        40
51.130        13
51.140         0
51.150        13
51.160        13
51.170        13
51.180        27
51.190        13
51.200        13
51.210         0
51.220         0
51.230        40
51.240         0
51.250        13
51.260        13
51.270        27
51.280        13
51.290        13
51.300         0
51.310         0
51.320        13
51.330        13
51.340        13
51.350         0
51.360         0
51.370        13
51.380        13
51.390         0
51.400        27
51.410         0
51.420        27
51.430         0
51.440        13
51.450        53
51.460        13
51.470         0
51.480        13
51.490        53
51.500        27
51.510        13
51.520        27
51.530        27
51.540        13
51.550        27
51.560         0
51.570         0
51.580        40
51.590         0
51.600        13
51.610         0
51.620        27
51.630        27
51.640        13
51.650        13
51.660        13
51.670         0
51.680         0
51.690         0
51.700        27
51.710         0
51.720        27
51.730         0
51.740        27
51.750         0
51.760        27
51.770         0
51.780         0
51.790        27
51.800         0
51.810        27
51.820        13
51.830         0
51.840         0
51.850        27
51.860        13
51.870        27
51.880        13
51.890        13
51.900         0
51.910         0
51.920         0
51.930         0
51.940        13
51.950        27
51.960        40
51.970         0
51.980        13
51.990         0
52.000        27
52.010        13
52.020         0
52.030         0
52.040        13
52.050         0
52.060        13
52.070        27
52.080        13
52.090        13
52.100        13
52.110         0
52.120        40
52.130        13
52.140         0
52.150         0
52.160         0
52.170        13
52.180         0
52.190         0
52.200         0
52.210        40
52.220        13
52.230        13
52.240        40
52.250        13
52.260        13
52.270        13
52.280         0
52.290         0
52.300         0
52.310        13
52.320        13
52.330        13
52.340        27
52.350        27
52.360        27
52.370        27
52.380         0
52.390        13
52.400        13
52.410         0
52.420         0
52.430         0
52.440         0
52.450        27
52.460        27
52.470        40
52.480         0
52.490        13
52.500        13
52.510        13
52.520        40
52.530         0
52.540        13
52.550        13
52.560         0
52.570        27
52.580        13
52.590        13
52.600        40
52.610         0
52.620        13
52.630        40
52.640        27
52.650        53
52.660        27
52.670       107
52.680        53
52.690        27
52.700        27
52.710        27
52.720        27
52.730        40
52.740        53
52.750         0
52.760        40
52.770        40
52.780        13
52.790        13
52.800        53
52.810        27
52.820        67
52.830        40
52.840        13
52.850        40
52.860        40
52.870        13
52.880         0
52.890        27
52.900        13
52.910        13
52.920        13
52.930        13
52.940        13
52.950        13
52.960        13
52.970        27
52.980        13
52.990         0
53.000        13
53.010         0
53.020        13
53.030         0
53.040         0
53.050         0
53.060        40
53.070        27
53.080        27
53.090         0
53.100         0
53.110        13
53.120         0
53.130        27
53.140         0
53.150         0
53.160        13
53.170         0
53.180        13
53.190         0
53.200         0
53.210         0
53.220        13
53.230         0
53.240         0
53.250        13
53.260         0
53.270        13
53.280        13
53.290         0
53.300        40
53.310        13
53.320        13
53.330         0
53.340         0
53.350         0
53.360        53
53.370        13
53.380        13
53.390        27
53.400         0
53.410         0
53.420         0
53.430         0
53.440        27
53.450         0
53.460         0
53.470        13
53.480        13
53.490         0
53.500        13
53.510        13
53.520         0
53.530         0
53.540        27
53.550         0
53.560        27
53.570         0
53.580        13
53.590         0
53.600         0
53.610         0
53.620        13
53.630        13
53.640        13
53.650        27
53.660        13
53.670        13
53.680        13
53.690        40
53.700        13
53.710        13
53.720        27
53.730         0
53.740        13
53.750        27
53.760         0
53.770        13
53.780        13
53.790         0
53.800         0
53.810        13
53.820        27
53.830        13
53.840        13
53.850         0
53.860        13
53.870        13
53.880         0
53.890         0
53.900         0
53.910         0
53.920        13
53.930        40
53.940        13
53.950         0
53.960        13
53.970         0
53.980        13
53.990        13
54.000         0
54.010        13
54.020         0
54.030        13
54.040        13
54.050         0
54.060         0
54.070        13
54.080         0
54.090         0
54.100         0
54.110         0
54.120        13
54.130        13
54.140         0
54.150        13
54.160         0
54.170         0
54.180        13
54.190        40
54.200         0
54.210        13
54.220        13
54.230         0
54.240         0
54.250        13
54.260        13
54.270        13
54.280        13
54.290        13
54.300        13
54.310        13
54.320        13
54.330         0
54.340        13
54.350        27
54.360         0
54.370        27
54.380        40
54.390        40
54.400         0
54.410         0
54.420        13
54.430         0
54.440        40
54.450        13
54.460        27
54.470        27
54.480         0
54.490        27
54.500         0
54.510         0
54.520        13
54.530        13
54.540        27
54.550        13
54.560         0
54.570        13
54.580         0
54.590        13
54.600        13
54.610        27
54.620         0
54.630        13
54.640        27
54.650        40
54.660        27
54.670         0
54.680         0
54.690        13
54.700        13
54.710         0
54.720        13
54.730         0
54.740        27
54.750        13
54.760        13
54.770         0
54.780        13
54.790        40
54.800         0
54.810        27
54.820         0
54.830        27
54.840        13
54.850         0
54.860         0
54.870        13
54.880         0
54.890        13
54.900         0
54.910        27
54.920        13
54.930        13
54.940        27
54.950        13
54.960        13
54.970        27
54.980        27
54.990        13
55.000        27
55.010        27
55.020         0
55.030         0
55.040        67
55.050        13
55.060        13
55.070         0
55.080         0
55.090        27
55.100        13
55.110        27
55.120        13
55.130        13
55.140        13
55.150         0
55.160        13
55.170        27
55.180        13
55.190        13
55.200         0
55.210         0
55.220        53
55.230         0
55.240         0
55.250        13
55.260        13
55.270        13
55.280        13
55.290        27
55.300        13
55.310        27
55.320        13
55.330        27
55.340        13
55.350         0
55.360        13
55.370         0
55.380         0
55.390        13
55.400         0
55.410        27
55.420         0
55.430        13
55.440        27
55.450        40
55.460         0
55.470        13
55.480        13
55.490        13
55.500        27
55.510         0
55.520        27
55.530        27
55.540        13
55.550        27
55.560        13
55.570        27
55.580        27
55.590        27
55.600         0
55.610         0
55.620        13
55.630         0
55.640        13
55.650         0
55.660        27
55.670         0
55.680        13
55.690         0
55.700        27
55.710        27
55.720         0
55.730        13
55.740         0
55.750        13
55.760         0
55.770        13
55.780         0
55.790         0
55.800        27
55.810        13
55.820        13
55.830         0
55.840         0
55.850        27
55.860        27
55.870         0
55.880         0
55.890        27
55.900         0
55.910        13
55.920        13
55.930        27
55.940        13
55.950        27
55.960         0
55.970        13
55.980         0
55.990        27
56.000        27
56.010        13
56.020        13
56.030        53
56.040        27
56.050        13
56.060         0
56.070        27
56.080        13
56.090        40
56.100         0
56.110        13
56.120        40
56.130         0
56.140         0
56.150        13
56.160        27
56.170         0
56.180         0
56.190        53
56.200        13
56.210        13
56.220        27
56.230         0
56.240         0
56.250        13
56.260        13
56.270         0
56.280         0
56.290        13
56.300         0
56.310        13
56.320         0
56.330         0
56.340        13
56.350        27
56.360        27
56.370        40
56.380         0
56.390        27
56.400         0
56.410        13
56.420        13
56.430        13
56.440        53
56.450        40
56.460        27
56.470        27
56.480         0
56.490         0
56.500        13
56.510         0
56.520        27
56.530        13
56.540         0
56.550         0
56.560        13
56.570         0
56.580        13
56.590        13
56.600         0
56.610        40
56.620        13
56.630        13
56.640         0
56.650        13
56.660        27
56.670         0
56.680        13
56.690         0
56.700        27
56.710        13
56.720         0
56.730         0
56.740         0
56.750        27
56.760        13
56.770        13
56.780         0
56.790        13
56.800        40
56.810         0
56.820        27
56.830         0
56.840         0
56.850        13
56.860        40
56.870         0
56.880         0
56.890         0
56.900        13
56.910        40
56.920         0
56.930        27
56.940         0
56.950         0
56.960         0
56.970         0
56.980        13
56.990        27
57.000        13
57.010        13
57.020        13
57.030        13
57.040         0
57.050        13
57.060        13
57.070        13
57.080         0
57.090        27
57.100         0
57.110         0
57.120        13
57.130        13
57.140        13
57.150         0
57.160        13
57.170         0
57.180         0
57.190        13
57.200        13
57.210        13
57.220         0
57.230        27
57.240        40
57.250        13
57.260        27
57.270        13
57.280         0
57.290        53
57.300        27
57.310         0
57.320        13
57.330        13
57.340        13
57.350        27
57.360        27
57.370        67
57.380         0
57.390        27
57.400         0
57.410        40
57.420        27
57.430        27
57.440        67
57.450        27
57.460        27
57.470        13
57.480        80
57.490        13
57.500        67
57.510        80
57.520        27
57.530        40
57.540        27
57.550         0
57.560        27
57.570        40
57.580       200
57.590       133
57.600        93
57.610       160
57.620       120
57.630       213
57.640       253
57.650       160
57.660       173
57.670       213
57.680       147
57.690       120
57.700        93
57.710        53
57.720        40
57.730        40
57.740        53
57.750        40
57.760       147
57.770       120
57.780        93
57.790        80
57.800       107
57.810       173
57.820       160
57.830        40
57.840        40
57.850        67
57.860        53
57.870        53
57.880        13
57.890        40
57.900        13
57.910        27
57.920        13
57.930         0
57.940        40
57.950        13
57.960        13
57.970        27
57.980        13
57.990        27
58.000        40
58.010        40
58.020        13
58.030         0
58.040        40
58.050         0
58.060        13
58.070         0
58.080         0
58.090         0
58.100        27
58.110        13
58.120        13
58.130         0
58.140        27
58.150         0
58.160         0
58.170        27
58.180         0
58.190        27
58.200        13
58.210        13
58.220         0
58.230        13
58.240        27
58.250        27
58.260        40
58.270         0
58.280        27
58.290         0
58.300         0
58.310        40
58.320        27
58.330         0
58.340         0
58.350         0
58.360        13
58.370        27
58.380        13
58.390        13
58.400         0
58.410         0
58.420        13
58.430         0
58.440        13
58.450        53
58.460         0
58.470         0
58.480         0
58.490        27
58.500        13
58.510         0
58.520        13
58.530         0
58.540        13
58.550        13
58.560        13
58.570        27
58.580         0
58.590        13
58.600         0
58.610        27
58.620        13
58.630         0
58.640        27
58.650        13
58.660         0
58.670        13
58.680         0
58.690         0
58.700        13
58.710         0
58.720        13
58.730        13
58.740        13
58.750         0
58.760         0
58.770        27
58.780        27
58.790        40
58.800         0
58.810        13
58.820        13
58.830         0
58.840         0
58.850         0
58.860        27
58.870        13
58.880        13
58.890         0
58.900         0
58.910         0
58.920         0
58.930        13
58.940         0
58.950         0
58.960        27
58.970        13
58.980        13
58.990         0
59.000         0
59.010        27
59.020        13
59.030         0
59.040        27
59.050        13
59.060        27
59.070        13
59.080         0
59.090         0
59.100        13
59.110        13
59.120         0
59.130         0
59.140        13
59.150        27
59.160         0
59.170        13
59.180         0
59.190        13
59.200        13
59.210        13
59.220        13
59.230        13
59.240         0
59.250        27
59.260         0
59.270         0
59.280         0
59.290         0
59.300        40
59.310        13
59.320         0
59.330        13
59.340         0
59.350        40
59.360         0
59.370         0
59.380         0
59.390         0
59.400         0
59.410        27
59.420        27
59.430        13
59.440        13
59.450         0
59.460        13
59.470         0
59.480         0
59.490        13
59.500        27
59.510         0
59.520        13
59.530         0
59.540        53
59.550        13
59.560        13
59.570        40
59.580        27
59.590        27
59.600         0
59.610        40
59.620        13
59.630         0
59.640        27
59.650        13
59.660         0
59.670        13
59.680        67
59.690        13
59.700         0
59.710         0
59.720        27
59.730         0
59.740         0
59.750         0
59.760        27
59.770        13
59.780        27
59.790        13
59.800         0
59.810        13
59.820         0
59.830         0
59.840         0
59.850         0
59.860        13
59.870        13
59.880        13
59.890         0
59.900        27
59.910         0
59.920        27
59.930         0
59.940         0
59.950        27
59.960         0
59.970         0
59.980        13
59.990         0
60.000        13
