20.000         7
20.010         7
20.020        33
20.030        53
20.040        53
20.050        67
20.060        73
20.070        33
20.080        27
20.090        47
20.100        20
20.110        47
20.120        40
20.130        20
20.140        40
20.150        47
20.160        33
20.170        13
20.180        33
20.190        27
20.200        40
20.210        60
20.220        33
20.230        40
20.240        60
20.250        33
20.260         7
20.270        33
20.280        27
20.290        27
20.300        13
20.310        80
20.320        33
20.330        27
20.340        47
20.350        53
20.360        33
20.370        47
20.380        47
20.390        20
20.400        40
20.410        13
20.420        47
20.430        33
20.440        27
20.450        27
20.460        27
20.470        47
20.480        47
20.490        27
20.500        33
20.510        53
20.520        27
20.530        20
20.540        27
20.550        20
20.560        33
20.570        27
20.580        40
20.590        67
20.600        60
20.610        47
20.620        60
20.630        20
20.640        47
20.650        40
20.660        33
20.670        20
20.680        60
20.690        53
20.700        40
20.710        40
20.720        53
20.730        67
20.740        73
20.750        40
20.760        13
20.770        60
20.780        33
20.790        73
20.800        73
20.810        33
20.820        20
20.830        47
20.840        40
20.850        53
20.860        60
20.870        20
20.880        53
20.890        60
20.900        27
20.910        20
20.920        53
20.930        33
20.940        73
20.950        40
20.960        27
20.970        33
20.980        67
20.990        67
21.000        20
21.010        40
21.020        20
21.030        20
21.040        33
21.050        40
21.060        40
21.070        33
21.080        33
21.090        60
21.100        27
21.110        53
21.120        47
21.130        27
21.140        33
21.150        27
21.160        33
21.170        47
21.180        53
21.190        13
21.200        40
21.210        13
21.220        33
21.230        60
21.240        27
21.250        33
21.260        27
21.270        27
21.280        47
21.290        33
21.300        53
21.310        13
21.320        33
21.330        20
21.340        73
21.350        53
21.360        20
21.370        40
21.380        13
21.390        47
21.400        33
21.410        27
21.420        27
21.430        53
21.440        40
21.450        20
21.460        67
21.470        53
21.480        33
21.490        20
21.500        33
21.510         0
21.520        40
21.530        20
21.540        47
21.550        60
21.560        47
21.570        33
21.580        47
21.590        13
21.600        40
21.610        33
21.620        60
21.630        33
21.640        20
21.650        27
21.660        67
21.670        47
21.680        60
21.690        40
21.700        33
21.710        33
21.720        13
21.730        40
21.740        40
21.750        33
21.760        33
21.770        13
21.780        40
21.790        20
21.800        13
21.810        40
21.820        33
21.830        47
21.840        33
21.850        40
21.860        60
21.870        53
21.880        47
21.890        33
21.900        13
21.910        20
21.920        73
21.930        33
21.940        33
21.950        60
21.960        13
21.970        20
21.980        40
21.990        60
22.000        27
22.010        27
22.020        33
22.030        20
22.040        53
22.050        33
22.060        40
22.070        20
22.080        20
22.090        40
22.100        27
22.110        47
22.120        40
22.130        20
22.140        40
22.150        33
22.160        33
22.170        13
22.180        13
22.190        33
22.200        33
22.210        20
22.220        53
22.230        47
22.240         7
22.250        47
22.260        33
22.270        13
22.280        20
22.290        27
22.300        13
22.310        53
22.320        27
22.330        20
22.340        53
22.350        47
22.360         0
22.370        33
22.380        33
22.390        47
22.400        33
22.410        13
22.420        47
22.430        47
22.440         7
22.450        27
22.460        53
22.470        47
22.480        40
22.490        13
22.500        33
22.510        13
22.520        40
22.530        33
22.540        27
22.550        33
22.560        60
22.570        40
22.580        33
22.590        33
22.600        60
22.610        20
22.620        53
22.630        33
22.640        47
22.650        27
22.660        27
22.670        13
22.680        33
22.690        40
22.700        33
22.710        27
22.720        47
22.730        40
22.740        33
22.750        27
22.760        20
22.770        27
22.780        27
22.790        33
22.800        73
22.810        53
22.820        33
22.830        20
22.840        40
22.850        27
22.860        33
22.870        60
22.880        13
22.890        27
22.900        27
22.910        33
22.920        13
22.930        47
22.940        47
22.950        47
22.960        13
22.970        13
22.980        33
22.990        27
23.000         7
23.010        27
23.020         7
23.030        13
23.040        53
23.050        47
23.060        40
23.070        33
23.080        40
23.090        33
23.100         0
23.110        40
23.120        20
23.130        20
23.140        47
23.150        20
23.160        33
23.170        33
23.180        20
23.190        27
23.200        13
23.210        33
23.220        73
23.230        33
23.240        47
23.250        73
23.260        20
23.270        33
23.280        33
23.290        33
23.300        60
23.310        13
23.320        33
23.330        27
23.340        53
23.350        47
23.360        60
23.370        20
23.380        13
23.390        27
23.400        60
23.410        27
23.420        40
23.430        47
23.440        60
23.450        33
23.460        40
23.470        20
23.480        47
23.490        47
23.500        13
23.510        27
23.520        20
23.530        73
23.540         0
23.550        47
23.560        33
23.570        40
23.580        60
23.590        33
23.600        47
23.610        27
23.620        33
23.630        27
23.640        33
23.650        27
23.660        13
23.670        47
23.680        33
23.690        53
23.700        27
23.710         7
23.720        20
23.730        33
23.740        33
23.750        67
23.760        40
23.770        47
23.780        13
23.790        13
23.800        40
23.810        53
23.820        33
23.830        20
23.840        20
23.850        33
23.860        27
23.870        13
23.880        27
23.890        60
23.900        40
23.910        60
23.920         7
23.930        13
23.940        40
23.950        40
23.960        13
23.970        27
23.980        40
23.990        20
24.000        20
24.010        27
24.020         7
24.030        27
24.040        20
24.050        13
24.060        40
24.070        27
24.080        27
24.090        53
24.100        47
24.110        33
24.120        20
24.130        40
24.140        27
24.150        20
24.160        27
24.170        33
24.180        33
24.190        13
24.200        47
24.210        47
24.220         7
24.230        13
24.240        53
24.250        20
24.260        20
24.270        47
24.280        20
24.290        33
24.300        33
24.310        40
24.320        27
24.330        53
24.340        27
24.350        13
24.360        20
24.370        47
24.380        27
24.390        60
24.400        13
24.410        27
24.420        53
24.430        20
24.440        27
24.450        13
24.460        13
24.470        27
24.480        27
24.490        13
24.500        47
24.510        33
24.520        27
24.530        40
24.540        20
24.550        27
24.560        20
24.570        47
24.580        20
24.590        27
24.600        27
24.610        40
24.620        40
24.630        33
24.640        47
24.650         7
24.660        20
24.670        53
24.680        27
24.690        20
24.700        33
24.710        20
24.720        27
24.730        27
24.740        47
24.750        47
24.760        47
24.770        33
24.780        33
24.790        27
24.800         7
24.810        60
24.820        27
24.830        33
24.840        33
24.850        27
24.860        53
24.870        53
24.880        13
24.890        27
24.900        13
24.910        20
24.920        27
24.930        20
24.940        20
24.950         7
24.960        20
24.970        33
24.980        33
24.990        20
25.000        27
25.010        27
25.020        27
25.030        27
25.040        53
25.050        20
25.060        27
25.070        40
25.080         7
25.090        53
25.100        27
25.110        33
25.120        33
25.130        27
25.140         7
25.150        13
25.160        33
25.170        20
25.180        20
25.190        47
25.200        40
25.210        47
25.220        20
25.230        40
25.240        33
25.250        13
25.260        40
25.270        33
25.280        20
25.290        47
25.300        47
25.310        60
25.320        13
25.330        47
25.340        20
25.350        33
25.360        53
25.370        33
25.380        47
25.390        33
25.400        33
25.410        60
25.420        27
25.430        40
25.440        27
25.450        40
25.460        47
25.470        47
25.480        47
25.490        53
25.500        13
25.510        47
25.520        33
25.530        20
25.540        53
25.550        47
25.560        33
25.570        60
25.580        60
25.590        47
25.600        73
25.610        60
25.620        53
25.630        33
25.640        40
25.650        33
25.660        60
25.670        60
25.680        33
25.690        47
25.700        27
25.710        20
25.720        27
25.730        33
25.740        40
25.750        20
25.760        27
25.770        33
25.780        47
25.790        20
25.800        20
25.810        13
25.820        33
25.830        13
25.840        67
25.850        33
25.860        13
25.870        27
25.880        53
25.890        13
25.900        33
25.910        40
25.920        20
25.930        27
25.940        27
25.950        40
25.960        40
25.970        33
25.980        40
25.990        33
26.000        13
26.010        47
26.020        27
26.030        33
26.040        27
26.050        40
26.060         7
26.070        27
26.080        40
26.090        27
26.100        53
26.110        47
26.120         7
26.130        13
26.140        27
26.150        47
26.160        20
26.170        13
26.180        40
26.190        20
26.200        13
26.210        47
26.220        27
26.230        20
26.240        27
26.250        13
26.260        20
26.270        20
26.280        33
26.290        33
26.300        20
26.310        40
26.320        13
26.330        27
26.340         7
26.350        40
26.360        60
26.370        33
26.380        27
26.390        33
26.400        13
26.410        47
26.420        13
26.430        27
26.440        27
26.450        47
26.460        33
26.470        27
26.480         7
26.490        33
26.500        40
26.510        40
26.520        53
26.530        27
26.540         7
26.550        33
26.560        20
26.570        20
26.580         7
26.590        40
26.600        33
26.610        33
26.620        20
26.630        33
26.640        40
26.650        27
26.660         7
26.670        20
26.680        20
26.690        33
26.700        33
26.710        20
26.720        13
26.730        13
26.740        20
26.750        13
26.760        27
26.770         7
26.780        33
26.790        20
26.800        20
26.810        40
26.820        13
26.830        20
26.840         0
26.850        27
26.860        47
26.870        13
26.880        27
26.890        20
26.900        33
26.910        20
26.920        13
26.930        20
26.940        47
26.950        13
26.960        33
26.970        27
26.980         0
26.990        47
27.000        20
27.010        33
27.020         0
27.030        13
27.040        27
27.050        40
27.060        40
27.070        27
27.080        27
27.090        20
27.100        33
27.110        47
27.120        33
27.130        53
27.140        13
27.150        13
27.160        13
27.170        13
27.180        20
27.190        47
27.200        20
27.210        13
27.220         0
27.230        33
27.240        33
27.250        40
27.260        27
27.270        47
27.280        33
27.290        13
27.300        40
27.310        13
27.320        20
27.330        27
27.340        27
27.350        20
27.360        47
27.370        27
27.380        40
27.390        47
27.400        33
27.410        27
27.420        13
27.430        13
27.440        33
27.450        20
27.460        13
27.470        33
27.480        27
27.490        40
27.500        13
27.510        20
27.520        13
27.530        27
27.540        27
27.550        20
27.560        20
27.570        13
27.580        20
27.590        20
27.600        20
27.610        13
27.620        20
27.630        20
27.640        13
27.650        47
27.660        13
27.670        27
27.680        13
27.690        47
27.700        27
27.710        20
27.720        27
27.730        20
27.740        20
27.750        27
27.760        27
27.770        20
27.780        40
27.790        40
27.800        20
27.810        20
27.820         7
27.830        47
27.840        13
27.850        33
27.860        20
27.870        27
27.880        33
27.890        13
27.900        27
27.910        20
27.920         7
27.930        20
27.940        40
27.950         7
27.960         0
27.970        33
27.980        20
27.990         0
28.000        13
28.010        20
28.020        13
28.030        33
28.040        27
28.050        20
28.060         7
28.070        13
28.080        20
28.090        13
28.100        47
28.110        20
28.120        13
28.130        27
28.140         7
28.150        13
28.160        20
28.170        13
28.180        13
28.190        13
28.200        27
28.210         7
28.220        27
28.230        33
28.240        13
28.250        13
28.260         7
28.270        20
28.280        20
28.290        33
28.300        13
28.310        20
28.320        40
28.330         7
28.340         0
28.350        13
28.360         7
28.370        33
28.380        13
28.390        13
28.400        20
28.410         7
28.420         7
28.430        13
28.440        27
28.450        20
28.460        47
28.470        20
28.480        20
28.490        40
28.500        13
28.510        47
28.520        40
28.530        27
28.540        13
28.550         7
28.560        33
28.570        27
28.580         0
28.590        53
28.600        20
28.610        27
28.620        33
28.630        27
28.640        20
28.650        20
28.660         7
28.670        40
28.680        20
28.690         7
28.700        27
28.710        33
28.720        20
28.730        53
28.740        40
28.750         0
28.760        20
28.770        20
28.780         7
28.790        33
28.800        40
28.810        27
28.820        20
28.830        13
28.840        47
28.850        13
28.860         7
28.870        27
28.880        47
28.890        13
28.900        20
28.910        47
28.920        13
28.930        13
28.940        20
28.950        60
28.960         7
28.970        20
28.980        13
28.990        27
29.000        33
29.010        13
29.020        13
29.030        27
29.040        27
29.050        33
29.060        20
29.070        27
29.080        20
29.090        20
29.100        27
29.110        47
29.120         7
29.130        33
29.140        53
29.150        27
29.160        33
29.170        13
29.180        40
29.190        40
29.200        20
29.210        27
29.220        47
29.230        47
29.240        33
29.250         7
29.260        20
29.270        27
29.280         7
29.290        27
29.300        27
29.310        20
29.320        20
29.330        20
29.340        13
29.350        13
29.360        20
29.370        27
29.380        40
29.390         0
29.400        47
29.410         7
29.420        33
29.430        20
29.440         7
29.450         7
29.460        33
29.470        13
29.480         0
29.490        20
29.500        13
29.510         7
29.520        27
29.530        27
29.540        20
29.550         7
29.560        40
29.570        20
29.580        40
29.590        27
29.600        40
29.610         7
29.620        33
29.630        40
29.640        13
29.650         7
29.660        13
29.670         7
29.680        33
29.690        20
29.700        40
29.710        33
29.720        27
29.730        20
29.740        13
29.750         7
29.760        33
29.770         0
29.780        20
29.790        40
29.800        20
29.810         7
29.820         7
29.830        13
29.840        20
29.850        27
29.860        20
29.870         7
29.880         7
29.890        20
29.900        20
29.910        13
29.920        27
29.930         7
29.940        27
29.950        27
29.960         7
29.970        27
29.980        13
29.990        27
30.000        40
30.010        20
30.020        47
30.030        20
30.040        33
30.050        33
30.060        13
30.070         0
30.080        13
30.090        20
30.100        13
30.110        20
30.120         0
30.130        20
30.140         7
30.150        20
30.160        13
30.170        20
30.180        33
30.190        27
30.200        33
30.210        20
30.220        13
30.230         7
30.240        33
30.250        13
30.260        13
30.270        20
30.280         7
30.290        13
30.300         7
30.310        27
30.320        20
30.330        20
30.340        13
30.350        27
30.360        13
30.370        13
30.380        20
30.390        33
30.400        13
30.410        47
30.420         7
30.430        20
30.440        27
30.450         7
30.460        40
30.470        27
30.480         0
30.490        27
30.500         0
30.510         7
30.520         0
30.530        20
30.540         7
30.550        33
30.560        33
30.570        33
30.580        13
30.590        53
30.600        27
30.610        20
30.620        20
30.630        13
30.640        47
30.650        27
30.660        27
30.670        20
30.680        13
30.690        13
30.700         7
30.710        33
30.720        40
30.730        40
30.740        27
30.750         0
30.760        33
30.770        13
30.780        33
30.790        20
30.800        40
30.810        27
30.820        13
30.830        60
30.840        47
30.850         7
30.860        27
30.870        53
30.880        20
30.890         7
30.900        27
30.910        33
30.920        13
30.930        27
30.940        13
30.950         0
30.960        27
30.970        27
30.980         0
30.990        20
31.000        33
31.010         7
31.020        13
31.030        20
31.040         7
31.050        33
31.060         7
31.070        13
31.080        27
31.090         7
31.100        13
31.110        13
31.120        40
31.130        27
31.140        33
31.150         7
31.160        33
31.170        20
31.180        67
31.190         7
31.200        33
31.210        20
31.220         7
31.230        33
31.240        27
31.250        27
31.260        13
31.270        33
31.280        20
31.290         7
31.300        33
31.310        27
31.320        13
31.330        33
31.340        20
31.350        27
31.360        13
31.370        27
31.380        33
31.390        33
31.400         7
31.410        13
31.420        33
31.430        33
31.440        13
31.450        20
31.460        20
31.470        27
31.480        40
31.490        27
31.500        13
31.510        27
31.520        27
31.530        47
31.540        27
31.550        20
31.560        33
31.570        20
31.580        33
31.590        13
31.600        27
31.610        40
31.620        13
31.630        13
31.640        13
31.650         7
31.660        40
31.670        13
31.680         7
31.690         7
31.700        40
31.710         7
31.720        27
31.730         7
31.740        13
31.750         0
31.760        13
31.770        40
31.780        13
31.790         7
31.800        20
31.810        20
31.820        27
31.830        27
31.840        27
31.850        27
31.860        27
31.870        33
31.880        13
31.890        20
31.900        20
31.910         7
31.920        33
31.930        13
31.940         0
31.950        40
31.960        20
31.970        33
31.980        27
31.990        20
32.000        33
32.010         0
32.020        20
32.030        33
32.040        27
32.050        13
32.060        20
32.070        27
32.080        47
32.090        33
32.100        13
32.110        27
32.120        20
32.130        60
32.140        33
32.150        40
32.160        33
32.170        20
32.180        47
32.190        40
32.200        33
32.210        13
32.220        60
32.230        47
32.240        33
32.250        60
32.260        53
32.270        73
32.280        60
32.290        93
32.300        73
32.310        73
32.320        73
32.330        40
32.340       120
32.350        93
32.360        80
32.370        53
32.380        60
32.390       113
32.400       100
32.410        87
32.420        47
32.430        73
32.440        20
32.450        53
32.460        60
32.470         7
32.480        13
32.490        27
32.500        40
32.510        40
32.520        33
32.530        40
32.540        13
32.550        20
32.560        33
32.570        33
32.580        33
32.590        47
32.600        60
32.610        20
32.620        27
32.630        27
32.640        13
32.650        20
32.660        13
32.670        13
32.680        20
32.690        20
32.700        47
32.710        33
32.720         7
32.730        13
32.740        13
32.750        20
32.760        13
32.770         0
32.780         7
32.790         0
32.800        13
32.810        33
32.820        13
32.830        13
32.840        20
32.850        20
32.860        13
32.870        27
32.880         7
32.890        13
32.900        40
32.910        27
32.920        20
32.930        73
32.940        40
32.950        40
32.960         7
32.970        13
32.980        33
32.990         7
33.000        33
33.010         7
33.020         0
33.030        33
33.040        20
33.050        20
33.060        47
33.070        27
33.080         7
33.090        40
33.100        33
33.110         7
33.120        13
33.130        40
33.140         0
33.150        13
33.160        20
33.170         7
33.180        27
33.190         7
33.200        27
33.210        27
33.220         7
33.230        27
33.240         7
33.250        27
33.260        27
33.270         7
33.280        33
33.290         7
33.300        13
33.310         7
33.320        20
33.330        20
33.340        40
33.350        13
33.360        20
33.370        13
33.380        13
33.390        13
33.400        27
33.410        20
33.420        27
33.430        13
33.440        27
33.450         7
33.460        27
33.470         7
33.480        20
33.490        20
33.500        20
33.510        20
33.520        13
33.530         0
33.540        13
33.550        33
33.560        20
33.570        20
33.580        20
33.590        27
33.600        13
33.610        27
33.620        33
33.630        20
33.640        33
33.650        13
33.660         7
33.670        27
33.680        33
33.690        20
33.700         7
33.710         7
33.720        13
33.730        27
33.740        47
33.750        27
33.760        20
33.770        27
33.780        20
33.790        27
33.800         0
33.810         7
33.820         7
33.830        13
33.840        27
33.850        27
33.860        13
33.870        33
33.880        20
33.890        47
33.900        27
33.910        40
33.920        40
33.930        13
33.940        27
33.950        27
33.960        27
33.970        13
33.980        20
33.990        13
34.000        33
34.010        13
34.020        27
34.030        13
34.040        40
34.050        13
34.060         7
34.070         7
34.080        40
34.090        13
34.100        20
34.110         7
34.120        20
34.130        13
34.140        20
34.150        20
34.160         7
34.170        47
34.180        13
34.190        20
34.200        33
34.210        33
34.220        33
34.230        13
34.240        20
34.250         7
34.260        13
34.270        20
34.280        27
34.290        33
34.300         7
34.310         0
34.320        33
34.330        20
34.340        20
34.350        20
34.360        33
34.370         0
34.380         7
34.390        27
34.400        20
34.410        13
34.420        13
34.430        13
34.440        13
34.450        33
34.460        13
34.470        13
34.480        40
34.490        20
34.500        33
34.510        13
34.520        13
34.530        13
34.540        27
34.550        20
34.560        20
34.570         7
34.580        33
34.590        33
34.600        27
34.610        20
34.620        27
34.630        33
34.640        27
34.650         0
34.660         7
34.670        20
34.680         7
34.690        40
34.700        33
34.710        27
34.720        13
34.730        27
34.740        40
34.750         7
34.760        20
34.770        27
34.780        13
34.790         7
34.800        20
34.810        13
34.820        40
34.830        20
34.840        20
34.850         0
34.860        20
34.870         0
34.880         7
34.890        20
34.900         7
34.910         7
34.920        27
34.930        13
34.940        27
34.950        40
34.960        33
34.970        60
34.980        20
34.990        53
35.000        33
35.010        20
35.020        20
35.030        33
35.040        13
35.050        93
35.060        53
35.070        53
35.080        67
35.090        40
35.100        53
35.110        53
35.120       107
35.130        87
35.140       160
35.150       213
35.160       267
35.170       273
35.180       260
35.190       300
35.200       193
35.210       220
35.220       160
35.230       173
35.240       213
35.250       167
35.260       153
35.270       213
35.280       100
35.290       147
35.300       100
35.310        80
35.320        60
35.330        73
35.340        20
35.350        20
35.360        13
35.370        20
35.380         7
35.390        27
35.400        47
35.410        40
35.420        27
35.430        40
35.440        27
35.450        27
35.460        13
35.470        13
35.480         7
35.490        40
35.500        20
35.510         7
35.520        20
35.530        27
35.540        13
35.550        33
35.560        13
35.570        27
35.580        27
35.590        13
35.600         7
35.610        20
35.620        13
35.630        20
35.640        20
35.650        20
35.660        33
35.670         0
35.680        13
35.690        27
35.700        20
35.710        27
35.720         7
35.730         0
35.740        20
35.750         0
35.760        20
35.770        20
35.780        13
35.790        27
35.800         7
35.810        20
35.820        33
35.830        13
35.840         7
35.850         7
35.860        13
35.870        20
35.880        20
35.890        13
35.900        27
35.910        47
35.920        13
35.930        20
35.940        13
35.950        13
35.960        40
35.970        13
35.980        33
35.990        13
36.000        13
36.010        13
36.020        13
36.030        20
36.040        20
36.050         7
36.060        47
36.070         0
36.080        27
36.090        20
36.100        27
36.110        33
36.120         7
36.130        33
36.140        13
36.150        40
36.160        13
36.170        53
36.180        20
36.190        20
36.200         7
36.210        13
36.220        27
36.230        20
36.240        33
36.250        13
36.260        27
36.270        47
36.280        13
36.290        20
36.300        27
36.310        13
36.320        27
36.330        13
36.340        13
36.350        27
36.360         7
36.370         7
36.380         7
36.390        20
36.400         7
36.410        13
36.420        40
36.430        27
36.440        33
36.450         0
36.460         7
36.470         7
36.480        13
36.490        20
36.500         7
36.510        27
36.520        20
36.530         7
36.540        40
36.550         7
36.560        13
36.570        13
36.580        20
36.590         7
36.600        20
36.610        20
36.620        27
36.630        13
36.640        40
36.650         0
36.660         7
36.670         7
36.680        13
36.690        27
36.700        13
36.710        27
36.720        13
36.730        13
36.740         0
36.750        20
36.760        33
36.770        13
36.780        13
36.790         7
36.800        20
36.810        20
36.820        27
36.830         7
36.840        27
36.850        40
36.860        20
36.870        13
36.880        13
36.890        33
36.900        13
36.910        13
36.920         7
36.930         7
36.940         0
36.950        20
36.960        20
36.970        20
36.980        27
36.990        53
37.000        33
37.010        27
37.020        20
37.030        53
37.040        13
37.050        40
37.060        27
37.070        13
37.080        27
37.090        33
37.100        20
37.110        13
37.120        33
37.130        13
37.140        20
37.150        13
37.160        27
37.170        40
37.180        20
37.190         7
37.200        27
37.210        20
37.220        27
37.230        33
37.240        13
37.250         0
37.260        13
37.270        33
37.280        20
37.290        27
37.300        13
37.310        20
37.320         7
37.330         7
37.340        47
37.350        40
37.360        13
37.370        20
37.380        13
37.390        13
37.400        20
37.410        13
37.420        20
37.430        40
37.440        13
37.450        13
37.460        20
37.470        13
37.480        20
37.490         7
37.500        13
37.510        20
37.520         7
37.530        13
37.540        27
37.550        20
37.560        27
37.570        33
37.580        13
37.590        13
37.600        27
37.610        33
37.620        40
37.630         7
37.640        53
37.650        13
37.660        20
37.670        13
37.680        20
37.690        27
37.700        60
37.710        27
37.720        40
37.730        47
37.740        53
37.750        27
37.760        53
37.770        40
37.780        40
37.790        33
37.800        47
37.810        60
37.820        60
37.830        53
37.840        47
37.850        73
37.860        40
37.870        20
37.880        27
37.890         7
37.900        40
37.910        47
37.920        53
37.930        33
37.940        33
37.950        33
37.960         7
37.970        13
37.980        40
37.990        27
38.000         0
38.010        40
38.020        20
38.030        20
38.040        13
38.050        27
38.060        13
38.070        20
38.080         7
38.090         7
38.100        13
38.110         7
38.120         7
38.130        13
38.140        13
38.150        20
38.160         7
38.170        20
38.180         0
38.190         7
38.200        40
38.210         7
38.220         7
38.230         0
38.240        47
38.250         0
38.260        27
38.270         0
38.280        13
38.290         0
38.300         0
38.310        13
38.320        27
38.330        33
38.340        13
38.350         7
38.360        20
38.370        33
38.380        20
38.390         7
38.400        20
38.410        20
38.420        53
38.430        33
38.440        27
38.450        13
38.460        33
38.470        27
38.480         7
38.490        20
38.500         7
38.510        33
38.520         7
38.530        20
38.540        13
38.550         7
38.560         7
38.570         7
38.580        13
38.590        20
38.600        13
38.610        33
38.620        33
38.630        13
38.640        47
38.650        20
38.660        27
38.670        20
38.680        33
38.690        47
38.700        27
38.710        20
38.720        33
38.730        20
38.740        40
38.750        13
38.760        27
38.770        13
38.780        27
38.790         0
38.800        33
38.810        20
38.820        13
38.830         7
38.840        20
38.850        20
38.860        27
38.870        20
38.880         7
38.890         7
38.900        27
38.910        13
38.920        27
38.930        40
38.940        27
38.950         7
38.960        20
38.970        20
38.980        13
38.990        33
39.000        27
39.010         7
39.020        40
39.030        20
39.040        13
39.050         7
39.060        47
39.070        13
39.080         0
39.090        20
39.100         0
39.110         0
39.120         7
39.130        13
39.140        20
39.150        20
39.160        20
39.170        40
39.180        20
39.190        13
39.200        20
39.210        13
39.220        33
39.230        27
39.240        27
39.250         7
39.260        20
39.270        13
39.280        13
39.290        20
39.300        20
39.310         7
39.320         7
39.330        13
39.340        40
39.350        73
39.360         7
39.370        40
39.380         0
39.390        27
39.400        13
39.410         7
39.420         7
39.430        27
39.440        27
39.450         7
39.460        27
39.470         7
39.480         0
39.490        27
39.500        27
39.510        27
39.520        13
39.530         7
39.540        33
39.550        27
39.560        20
39.570        20
39.580        13
39.590        47
39.600        13
39.610        53
39.620        20
39.630        13
39.640        27
39.650        20
39.660        20
39.670         0
39.680        20
39.690        20
39.700        27
39.710        27
39.720        53
39.730        33
39.740        33
39.750        40
39.760        67
39.770        47
39.780        60
39.790        33
39.800        33
39.810        47
39.820        67
39.830        60
39.840        67
39.850        80
39.860        73
39.870        40
39.880        47
39.890        87
39.900        53
39.910       107
39.920        60
39.930        33
39.940        27
39.950        73
39.960        73
39.970        53
39.980       120
39.990        60
40.000        33
40.010        27
40.020        47
40.030        67
40.040        53
40.050        27
40.060        47
40.070        60
40.080        40
40.090        53
40.100        27
40.110        33
40.120        27
40.130        20
40.140        20
40.150         7
40.160        20
40.170        13
40.180        20
40.190        20
40.200        13
40.210        20
40.220        40
40.230        40
40.240        47
40.250        20
40.260        47
40.270        27
40.280        27
40.290        13
40.300        20
40.310        33
40.320        53
40.330        40
40.340         0
40.350        27
40.360        27
40.370         7
40.380         7
40.390        20
40.400        60
40.410        13
40.420        27
40.430        13
40.440        13
40.450         7
40.460         7
40.470        40
40.480        13
40.490        33
40.500        27
40.510        27
40.520         7
40.530         7
40.540        20
40.550        33
40.560        47
40.570        27
40.580        13
40.590        13
40.600        40
40.610        20
40.620        20
40.630        47
40.640         0
40.650        13
40.660         7
40.670        13
40.680        27
40.690        13
40.700        33
40.710        27
40.720         7
40.730        20
40.740        33
40.750        13
40.760        33
40.770        27
40.780         0
40.790        40
40.800        13
40.810        27
40.820        40
40.830        33
40.840        13
40.850        40
40.860        40
40.870        13
40.880        20
40.890        20
40.900        20
40.910        47
40.920         0
40.930        13
40.940         7
40.950         7
40.960        13
40.970        13
40.980         7
40.990        27
41.000        20
41.010        20
41.020        13
41.030        20
41.040        27
41.050         0
41.060        40
41.070        13
41.080        13
41.090        20
41.100         0
41.110        40
41.120         0
41.130        13
41.140        27
41.150        47
41.160        33
41.170        20
41.180        20
41.190        33
41.200         7
41.210        13
41.220        20
41.230        20
41.240        20
41.250         7
41.260        20
41.270        20
41.280        20
41.290        33
41.300        27
41.310        20
41.320         7
41.330        33
41.340        33
41.350        13
41.360        20
41.370        33
41.380        13
41.390        40
41.400        20
41.410        13
41.420        47
41.430        13
41.440        13
41.450        20
41.460        20
41.470        13
41.480         7
41.490        40
41.500        20
41.510        13
41.520        27
41.530        20
41.540        33
41.550        40
41.560        13
41.570        20
41.580        33
41.590        40
41.600        33
41.610        53
41.620        40
41.630        47
41.640        20
41.650        93
41.660        73
41.670        60
41.680        73
41.690        60
41.700       147
41.710       120
41.720        60
41.730        80
41.740        67
41.750        87
41.760        60
41.770        53
41.780        53
41.790        73
41.800        27
41.810        33
41.820        67
41.830        60
41.840        27
41.850        27
41.860        60
41.870        60
41.880        33
41.890        33
41.900        13
41.910         0
41.920        20
41.930        20
41.940        20
41.950        27
41.960        20
41.970        20
41.980        27
41.990         7
42.000        47
42.010        13
42.020        40
42.030        40
42.040        27
42.050        13
42.060        33
42.070        13
42.080        20
42.090         7
42.100        27
42.110        27
42.120        27
42.130         7
42.140        53
42.150        13
42.160        27
42.170        33
42.180        27
42.190        13
42.200        40
42.210         0
42.220        20
42.230         0
42.240         7
42.250        27
42.260        27
42.270        27
42.280        20
42.290        33
42.300        20
42.310        13
42.320        20
42.330        20
42.340        13
42.350         7
42.360         7
42.370         7
42.380        33
42.390        33
42.400        13
42.410        40
42.420        13
42.430        13
42.440        27
42.450        27
42.460         7
42.470         0
42.480        33
42.490        20
42.500        27
42.510        20
42.520        13
42.530         7
42.540        27
42.550        33
42.560        60
42.570        40
42.580        27
42.590        27
42.600         0
42.610        27
42.620        33
42.630        33
42.640        27
42.650        27
42.660        20
42.670        53
42.680        20
42.690         7
42.700        20
42.710        13
42.720        20
42.730        13
42.740        27
42.750         7
42.760        13
42.770         7
42.780        13
42.790        33
42.800        27
42.810        27
42.820        27
42.830         7
42.840        13
42.850        20
42.860        27
42.870        20
42.880        13
42.890        20
42.900        27
42.910        27
42.920        20
42.930         7
42.940        27
42.950        20
42.960        27
42.970        40
42.980         7
42.990        13
43.000        20
43.010        20
43.020         0
43.030         7
43.040        47
43.050        27
43.060        13
43.070        13
43.080        27
43.090        33
43.100         7
43.110        53
43.120        20
43.130         7
43.140        27
43.150         7
43.160        40
43.170        13
43.180        20
43.190         7
43.200        13
43.210        47
43.220        53
43.230        27
43.240        20
43.250        67
43.260        67
43.270        47
43.280        27
43.290        80
43.300       113
43.310        87
43.320        93
43.330       120
43.340       167
43.350       120
43.360       147
43.370        87
43.380       193
43.390       267
43.400       273
43.410       247
43.420       187
43.430       193
43.440       180
43.450       160
43.460        87
43.470        67
43.480        87
43.490       127
43.500       127
43.510       100
43.520       160
43.530        93
43.540       113
43.550        60
43.560        67
43.570        20
43.580         7
43.590        20
43.600        67
43.610        20
43.620         7
43.630         7
43.640        13
43.650         7
43.660        40
43.670        27
43.680        13
43.690        20
43.700        40
43.710         7
43.720        27
43.730        40
43.740        20
43.750        27
43.760        20
43.770        27
43.780        20
43.790        33
43.800         7
43.810         7
43.820         7
43.830         7
43.840        20
43.850        20
43.860        27
43.870        20
43.880        33
43.890        40
43.900        27
43.910         0
43.920        13
43.930        33
43.940        27
43.950        40
43.960        20
43.970        13
43.980         7
43.990        13
44.000         0
44.010        13
44.020         0
44.030        20
44.040         7
44.050        20
44.060         7
44.070         7
44.080        13
44.090        13
44.100         7
44.110        27
44.120        27
44.130        20
44.140        13
44.150        13
44.160         7
44.170        33
44.180         7
44.190         7
44.200        27
44.210        20
44.220        20
44.230         7
44.240        33
44.250        20
44.260         7
44.270        40
44.280         7
44.290        13
44.300         0
44.310        33
44.320        13
44.330        13
44.340        20
44.350        13
44.360        13
44.370        20
44.380        27
44.390        13
44.400        33
44.410        13
44.420         0
44.430        13
44.440        20
44.450        13
44.460        20
44.470         7
44.480        20
44.490         7
44.500        13
44.510        20
44.520        20
44.530        27
44.540        13
44.550        27
44.560        20
44.570        20
44.580         7
44.590        20
44.600        40
44.610        20
44.620        27
44.630         0
44.640        27
44.650        13
44.660        13
44.670        20
44.680         7
44.690        40
44.700        13
44.710         0
44.720        33
44.730        27
44.740         0
44.750        27
44.760        20
44.770        20
44.780        13
44.790        20
44.800        33
44.810         7
44.820         7
44.830        20
44.840         0
44.850        20
44.860        20
44.870         0
44.880        13
44.890        13
44.900        20
44.910        27
44.920         7
44.930         7
44.940        33
44.950        20
44.960        27
44.970        13
44.980        40
44.990        47
45.000        47
45.010        47
45.020        27
45.030        40
45.040        20
45.050        53
45.060        20
45.070        53
45.080        27
45.090        33
45.100        13
45.110        13
45.120        33
45.130        20
45.140        13
45.150        20
45.160        20
45.170        20
45.180         7
45.190        47
45.200        20
45.210         7
45.220         7
45.230        20
45.240         0
45.250        13
45.260        27
45.270        13
45.280         7
45.290         0
45.300        20
45.310         0
45.320        13
45.330        40
45.340        33
45.350         7
45.360        13
45.370        13
45.380         7
45.390         7
45.400        13
45.410        20
45.420        27
45.430        13
45.440        20
45.450        13
45.460        20
45.470        27
45.480        20
45.490        27
45.500        20
45.510        27
45.520        13
45.530        27
45.540        33
45.550        20
45.560        47
45.570        40
45.580        13
45.590        33
45.600         7
45.610        20
45.620        47
45.630        27
45.640        27
45.650        53
45.660        33
45.670        20
45.680        40
45.690        40
45.700        20
45.710        33
45.720        27
45.730        33
45.740        27
45.750        40
45.760        20
45.770        13
45.780         0
45.790        33
45.800        27
45.810        27
45.820        20
45.830         0
45.840        27
45.850        13
45.860        27
45.870         7
45.880        27
45.890        27
45.900        13
45.910        27
45.920        33
45.930        40
45.940        20
45.950        33
45.960        40
45.970        33
45.980        53
45.990        40
46.000        33
46.010        60
46.020        33
46.030        40
46.040        47
46.050        33
46.060        40
46.070        60
46.080        53
46.090        27
46.100        40
46.110        20
46.120        27
46.130        80
46.140        33
46.150        53
46.160        47
46.170        13
46.180        27
46.190        13
46.200        13
46.210        67
46.220        53
46.230       100
46.240        33
46.250        33
46.260        47
46.270        20
46.280        40
46.290        67
46.300        67
46.310        33
46.320        33
46.330        27
46.340        20
46.350         7
46.360        33
46.370        20
46.380        13
46.390        67
46.400        27
46.410        27
46.420        53
46.430        47
46.440        27
46.450        20
46.460        13
46.470        40
46.480        13
46.490        27
46.500        13
46.510        47
46.520        33
46.530        40
46.540        27
46.550        27
46.560        33
46.570        27
46.580         7
46.590        33
46.600        40
46.610         0
46.620        20
46.630        27
46.640        27
46.650        13
46.660        13
46.670        20
46.680        20
46.690        40
46.700        47
46.710        47
46.720        20
46.730        27
46.740        13
46.750        13
46.760         0
46.770        13
46.780        27
46.790        13
46.800        47
46.810        27
46.820        33
46.830        20
46.840        13
46.850         7
46.860        20
46.870        27
46.880        13
46.890         0
46.900        20
46.910        20
46.920        27
46.930        27
46.940        33
46.950        13
46.960        27
46.970        40
46.980        20
46.990        33
47.000         7
47.010        33
47.020        27
47.030        13
47.040        27
47.050        40
47.060        20
47.070        20
47.080        33
47.090         0
47.100        13
47.110        20
47.120         0
47.130        20
47.140        27
47.150        20
47.160        40
47.170         7
47.180        33
47.190        33
47.200        20
47.210        33
47.220        27
47.230        20
47.240         7
47.250        13
47.260        13
47.270        13
47.280        13
47.290         7
47.300        20
47.310        20
47.320         7
47.330        33
47.340        27
47.350        13
47.360        13
47.370         7
47.380         0
47.390         7
47.400        13
47.410        40
47.420        13
47.430        20
47.440        13
47.450        33
47.460        27
47.470        27
47.480         0
47.490        20
47.500        20
47.510         7
47.520        20
47.530        20
47.540        20
47.550        13
47.560        27
47.570        20
47.580         0
47.590        33
47.600         0
47.610        20
47.620         7
47.630         7
47.640        20
47.650        33
47.660        13
47.670        27
47.680        20
47.690        20
47.700         7
47.710         7
47.720        13
47.730        20
47.740        20
47.750        33
47.760        13
47.770        27
47.780         7
47.790        20
47.800         7
47.810        40
47.820        27
47.830         7
47.840        13
47.850        27
47.860        20
47.870        27
47.880        27
47.890         7
47.900        27
47.910        13
47.920        20
47.930        13
47.940        27
47.950        27
47.960        33
47.970        33
47.980        13
47.990         7
48.000        20
48.010        13
48.020        27
48.030        27
48.040        27
48.050        20
48.060        20
48.070        20
48.080        13
48.090        33
48.100        33
48.110        13
48.120        13
48.130        13
48.140         7
48.150         7
48.160        33
48.170        13
48.180        20
48.190         7
48.200        13
48.210        20
48.220        20
48.230        20
48.240        47
48.250        33
48.260        27
48.270        13
48.280        27
48.290        13
48.300        47
48.310        20
48.320         7
48.330         0
48.340        13
48.350        33
48.360         7
48.370         7
48.380        27
48.390        20
48.400        13
48.410        20
48.420        27
48.430        13
48.440        27
48.450        27
48.460        20
48.470        33
48.480        13
48.490         0
48.500        13
48.510        13
48.520        13
48.530         7
48.540         7
48.550        33
48.560        27
48.570         0
48.580        13
48.590        27
48.600        20
48.610        13
48.620         0
48.630        20
48.640        20
48.650        20
48.660        20
48.670        13
48.680         0
48.690        20
48.700        27
48.710        33
48.720        20
48.730        20
48.740        13
48.750         7
48.760        13
48.770        20
48.780         0
48.790        13
48.800        13
48.810        27
48.820        33
48.830        20
48.840         7
48.850         7
48.860        33
48.870         7
48.880        27
48.890        13
48.900        13
48.910        20
48.920        40
48.930         0
48.940        20
48.950         0
48.960         7
48.970        13
48.980        27
48.990        20
49.000         7
49.010         7
49.020         7
49.030        40
49.040        13
49.050        27
49.060        13
49.070         7
49.080        20
49.090        13
49.100        13
49.110        27
49.120        13
49.130        20
49.140        13
49.150         7
49.160         7
49.170         7
49.180        13
49.190        27
49.200         7
49.210        13
49.220        13
49.230         7
49.240        20
49.250        20
49.260        33
49.270        40
49.280        13
49.290        20
49.300        13
49.310        20
49.320         0
49.330        20
49.340         7
49.350        13
49.360        27
49.370        27
49.380        20
49.390        13
49.400        13
49.410        40
49.420         0
49.430        13
49.440        13
49.450        33
49.460         7
49.470        13
49.480         7
49.490        13
49.500        13
49.510        20
49.520        13
49.530        20
49.540        27
49.550        33
49.560         7
49.570        40
49.580        40
49.590        13
49.600        13
49.610         7
49.620        20
49.630        20
49.640        33
49.650        13
49.660        13
49.670        27
49.680        13
49.690         0
49.700         0
49.710         7
49.720         7
49.730        27
49.740        27
49.750         0
49.760        20
49.770        27
49.780        13
49.790        20
49.800        27
49.810        33
49.820        13
49.830        20
49.840         7
49.850         7
49.860        27
49.870        13
49.880         0
49.890        13
49.900         7
49.910         7
49.920        20
49.930        13
49.940         0
49.950        20
49.960        27
49.970        13
49.980        33
49.990        33
50.000         7
50.010        13
50.020         7
50.030        20
50.040        40
50.050        13
50.060        20
50.070        27
50.080         7
50.090        13
50.100        20
50.110         7
50.120         0
50.130        20
50.140        27
50.150        13
50.160         0
50.170        13
50.180        20
50.190         7
50.200         7
50.210        13
50.220         7
50.230        20
50.240         0
50.250        27
50.260        20
50.270        13
50.280        20
50.290         7
50.300         7
50.310        27
50.320         7
50.330         0
50.340        20
50.350        20
50.360        27
50.370         7
50.380         7
50.390        20
50.400        20
50.410         7
50.420        33
50.430        13
50.440        27
50.450        20
50.460        27
50.470         7
50.480        13
50.490        20
50.500         7
50.510         0
50.520         0
50.530        13
50.540        27
50.550         0
50.560        20
50.570        27
50.580         7
50.590        13
50.600         7
50.610        27
50.620        33
50.630        13
50.640         7
50.650        27
50.660        20
50.670         7
50.680        13
50.690        13
50.700        20
50.710         0
50.720         7
50.730         7
50.740        13
50.750         7
50.760         0
50.770        27
50.780        20
50.790        13
50.800        27
50.810        20
50.820        27
50.830         7
50.840        27
50.850        27
50.860        27
50.870        20
50.880         0
50.890        20
50.900        20
50.910        27
50.920        20
50.930        20
50.940        13
50.950        20
50.960        27
50.970        47
50.980        40
50.990         0
51.000        27
51.010        13
51.020         0
51.030        20
51.040        20
51.050        27
51.060         7
51.070         0
51.080        33
51.090        20
51.100         7
51.110         7
51.120        13
51.130        20
51.140        13
51.150        33
51.160        13
51.170        13
51.180        13
51.190        13
51.200         7
51.210        20
51.220         7
51.230        13
51.240        13
51.250         7
51.260        27
51.270         7
51.280        20
51.290        27
51.300        20
51.310         7
51.320        33
51.330         7
51.340        20
51.350         7
51.360         7
51.370        27
51.380        13
51.390        20
51.400        13
51.410        33
51.420         7
51.430        13
51.440        13
51.450         7
51.460        33
51.470         7
51.480         7
51.490        13
51.500        20
51.510        13
51.520         7
51.530         7
51.540         0
51.550        33
51.560         7
51.570        20
51.580        27
51.590        20
51.600        27
51.610        27
51.620         0
51.630        13
51.640        20
51.650        20
51.660        20
51.670        40
51.680        47
51.690        20
51.700         7
51.710        13
51.720        27
51.730        20
51.740        20
51.750        13
51.760        13
51.770         7
51.780        27
51.790        13
51.800         7
51.810         0
51.820        20
51.830         7
51.840         7
51.850        20
51.860        13
51.870        27
51.880        20
51.890         7
51.900        13
51.910        13
51.920        27
51.930        20
51.940         7
51.950         7
51.960         7
51.970        13
51.980         7
51.990        20
52.000        13
52.010        20
52.020         7
52.030        13
52.040        40
52.050         0
52.060        20
52.070         7
52.080        20
52.090         7
52.100        20
52.110        33
52.120         7
52.130        27
52.140        27
52.150        33
52.160         0
52.170        53
52.180        20
52.190         7
52.200        27
52.210         7
52.220        33
52.230        20
52.240         0
52.250        13
52.260        27
52.270        20
52.280        13
52.290        13
52.300        53
52.310         0
52.320        13
52.330        13
52.340        13
52.350         7
52.360        13
52.370        13
52.380        13
52.390         7
52.400        13
52.410        27
52.420        20
52.430         7
52.440         7
52.450         7
52.460        27
52.470        13
52.480        27
52.490        40
52.500        53
52.510        33
52.520        53
52.530        20
52.540        47
52.550        53
52.560        67
52.570        40
52.580        40
52.590        53
52.600        47
52.610        73
52.620        47
52.630        47
52.640        27
52.650        47
52.660        33
52.670         7
52.680        20
52.690        13
52.700        40
52.710        20
52.720        47
52.730        33
52.740        13
52.750        73
52.760        13
52.770        27
52.780        27
52.790        20
52.800         7
52.810        33
52.820        20
52.830         0
52.840        27
52.850         7
52.860        20
52.870        20
52.880         0
52.890        20
52.900        20
52.910        20
52.920        20
52.930        13
52.940         7
52.950        13
52.960        33
52.970        13
52.980        20
52.990        13
53.000        27
53.010         7
53.020         0
53.030        13
53.040        27
53.050        13
53.060         7
53.070         7
53.080        13
53.090        13
53.100        27
53.110        20
53.120        20
53.130        27
53.140         0
53.150         7
53.160        27
53.170        20
53.180        20
53.190         0
53.200        20
53.210        27
53.220        27
53.230        20
53.240        27
53.250         0
53.260         7
53.270        40
53.280         7
53.290         7
53.300         7
53.310        20
53.320        20
53.330         0
53.340        27
53.350         7
53.360        13
53.370         7
53.380        20
53.390        20
53.400        20
53.410         7
53.420        27
53.430        40
53.440        40
53.450        33
53.460        13
53.470        20
53.480         7
53.490         7
53.500        13
53.510         0
53.520        13
53.530         0
53.540        13
53.550        20
53.560         7
53.570         7
53.580        33
53.590        33
53.600       180
53.610         7
53.620        27
53.630         0
53.640        13
53.650        13
53.660         7
53.670        20
53.680        13
53.690        27
53.700        20
53.710         7
53.720         7
53.730         7
53.740        20
53.750        13
53.760         7
53.770        33
53.780         7
53.790        20
53.800         7
53.810        33
53.820        13
53.830        13
53.840        27
53.850        20
53.860        13
53.870        13
53.880        13
53.890         7
53.900        13
53.910        20
53.920         7
53.930         7
53.940        20
53.950        13
53.960         7
53.970        13
53.980         0
53.990        20
54.000         7
54.010         7
54.020        27
54.030        20
54.040        27
54.050        13
54.060        13
54.070        13
54.080        27
54.090        40
54.100         7
54.110         7
54.120        33
54.130         7
54.140         0
54.150        13
54.160        13
54.170         7
54.180         7
54.190        13
54.200        13
54.210        20
54.220        27
54.230        20
54.240         7
54.250        33
54.260        20
54.270        13
54.280        13
54.290        13
54.300         0
54.310        20
54.320        27
54.330         7
54.340        33
54.350         0
54.360        53
54.370         7
54.380        13
54.390         7
54.400        20
54.410         7
54.420        13
54.430        20
54.440        33
54.450         0
54.460        13
54.470         7
54.480         7
54.490        13
54.500        20
54.510        13
54.520        33
54.530        13
54.540         0
54.550        20
54.560         7
54.570         0
54.580        20
54.590         0
54.600        13
54.610        13
54.620         0
54.630         7
54.640        20
54.650        13
54.660         7
54.670        20
54.680         7
54.690        13
54.700         7
54.710         7
54.720        20
54.730        13
54.740        13
54.750        13
54.760        13
54.770        13
54.780         7
54.790         7
54.800        27
54.810         7
54.820         7
54.830         7
54.840        13
54.850        13
54.860        13
54.870         7
54.880        27
54.890        13
54.900        20
54.910        33
54.920         0
54.930        13
54.940        20
54.950        27
54.960         0
54.970        40
54.980         0
54.990        27
55.000        13
55.010        33
55.020        13
55.030         0
55.040         7
55.050        13
55.060        20
55.070         0
55.080         0
55.090        13
55.100         7
55.110         7
55.120        13
55.130         7
55.140        13
55.150        33
55.160        13
55.170         0
55.180         7
55.190         7
55.200        13
55.210        40
55.220         0
55.230        13
55.240        13
55.250         7
55.260        27
55.270         7
55.280        20
55.290        13
55.300         7
55.310         0
55.320         7
55.330         7
55.340        20
55.350        13
55.360        20
55.370        13
55.380        13
55.390        27
55.400         0
55.410         7
55.420         7
55.430        33
55.440        13
55.450        20
55.460         7
55.470        20
55.480         7
55.490         7
55.500         0
55.510        13
55.520         7
55.530        33
55.540         7
55.550         7
55.560        13
55.570        13
55.580        33
55.590        13
55.600        13
55.610         7
55.620        13
55.630        13
55.640         7
55.650        13
55.660        13
55.670         0
55.680        13
55.690        13
55.700        20
55.710        33
55.720         7
55.730        33
55.740        13
55.750        20
55.760        13
55.770        20
55.780        27
55.790        27
55.800        40
55.810         0
55.820        13
55.830         7
55.840         7
55.850        13
55.860         0
55.870        33
55.880        13
55.890        20
55.900         7
55.910        20
55.920        13
55.930        13
55.940         7
55.950        27
55.960        20
55.970         7
55.980        13
55.990        13
56.000        13
56.010        13
56.020         7
56.030        13
56.040         7
56.050         7
56.060        47
56.070        20
56.080         7
56.090        33
56.100        13
56.110        20
56.120        20
56.130        20
56.140        13
56.150         7
56.160         7
56.170        40
56.180        27
56.190        20
56.200        13
56.210        20
56.220         7
56.230        20
56.240        20
56.250        20
56.260        33
56.270         0
56.280        20
56.290        13
56.300         7
56.310        27
56.320        40
56.330        20
56.340        20
56.350        20
56.360        27
56.370         7
56.380         7
56.390        20
56.400         7
56.410         7
56.420        20
56.430        13
56.440        13
56.450        13
56.460        13
56.470        27
56.480         7
56.490         7
56.500         7
56.510         7
56.520        20
56.530         7
56.540        13
56.550        20
56.560        27
56.570        20
56.580        27
56.590        20
56.600        13
56.610         7
56.620         7
56.630         7
56.640        27
56.650         0
56.660         0
56.670        13
56.680        20
56.690        27
56.700         7
56.710        27
56.720         7
56.730        20
56.740        20
56.750        13
56.760        13
56.770         7
56.780        13
56.790        20
56.800        27
56.810         7
56.820        13
56.830         7
56.840        13
56.850        20
56.860        13
56.870         7
56.880         0
56.890        33
56.900         7
56.910        47
56.920        27
56.930        20
56.940        13
56.950        27
56.960        13
56.970        13
56.980         7
56.990        27
57.000         0
57.010        20
57.020        20
57.030        20
57.040        40
57.050        20
57.060        33
57.070        20
57.080         0
57.090        13
57.100        53
57.110        20
57.120        33
57.130        20
57.140        20
57.150        20
57.160        13
57.170        20
57.180         7
57.190        13
57.200        33
57.210        20
57.220        53
57.230        40
57.240        13
57.250        13
57.260        13
57.270         0
57.280        27
57.290        20
57.300        20
57.310        20
57.320        53
57.330        20
57.340        27
57.350        27
57.360        73
57.370        40
57.380        20
57.390        27
57.400        47
57.410        40
57.420        53
57.430        47
57.440        60
57.450       133
57.460       133
57.470       120
57.480        80
57.490       213
57.500       187
57.510       233
57.520       260
57.530       313
57.540       340
57.550       280
57.560       280
57.570       240
57.580       220
57.590       200
57.600       100
57.610       113
57.620       120
57.630       167
57.640       133
57.650       113
57.660        80
57.670       160
57.680       193
57.690       120
57.700       173
57.710       160
57.720       160
57.730       153
57.740       167
57.750       107
57.760        60
57.770        53
57.780        20
57.790         7
57.800        53
57.810        27
57.820        47
57.830        13
57.840        40
57.850        27
57.860        13
57.870        20
57.880        33
57.890        13
57.900        20
57.910        60
57.920        33
57.930        13
57.940        13
57.950        20
57.960        13
57.970         7
57.980        13
57.990        13
58.000        20
58.010        13
58.020        20
58.030        27
58.040        27
58.050        27
58.060         7
58.070         7
58.080        47
58.090        27
58.100        27
58.110         7
58.120        33
58.130        20
58.140        27
58.150        33
58.160        27
58.170        13
58.180         7
58.190        47
58.200        13
58.210        33
58.220         7
58.230         7
58.240         7
58.250        47
58.260         0
58.270        27
58.280        27
58.290        13
58.300        33
58.310        27
58.320        27
58.330        27
58.340         0
58.350        33
58.360        13
58.370        13
58.380        20
58.390         7
58.400        27
58.410        20
58.420        20
58.430         7
58.440        13
58.450         7
58.460        40
58.470        13
58.480        20
58.490        20
58.500        33
58.510        13
58.520         7
58.530         0
58.540        20
58.550        27
58.560        13
58.570         0
58.580        20
58.590        13
58.600        13
58.610        27
58.620        27
58.630         0
58.640        33
58.650         7
58.660        20
58.670         7
58.680        13
58.690        13
58.700        13
58.710        20
58.720        13
58.730        20
58.740         7
58.750         7
58.760        20
58.770        40
58.780        13
58.790         7
58.800        13
58.810        27
58.820        27
58.830         0
58.840         0
58.850        40
58.860        33
58.870        27
58.880         7
58.890         7
58.900         0
58.910        20
58.920         0
58.930        13
58.940         7
58.950         7
58.960         7
58.970         0
58.980        40
58.990         7
59.000        13
59.010        13
59.020        27
59.030        13
59.040         7
59.050         7
59.060        13
59.070        13
59.080        20
59.090        20
59.100        13
59.110         7
59.120        27
59.130         7
59.140        13
59.150        20
59.160        13
59.170        13
59.180        27
59.190        20
59.200        20
59.210         7
59.220        13
59.230        13
59.240        13
59.250        20
59.260        13
59.270        13
59.280         7
59.290         7
59.300        20
59.310         7
59.320         7
59.330        13
59.340        13
59.350        47
59.360         0
59.370        40
59.380        20
59.390        40
59.400        20
59.410         7
59.420        13
59.430        13
59.440        20
59.450         7
59.460         7
59.470        33
59.480         7
59.490        13
59.500         0
59.510         7
59.520        40
59.530        13
59.540        13
59.550        33
59.560        20
59.570        13
59.580        20
59.590        20
59.600        20
59.610         7
59.620        20
59.630        40
59.640        20
59.650        40
59.660        13
59.670        13
59.680        33
59.690         0
59.700        20
59.710        40
59.720         7
59.730         7
59.740        40
59.750        20
59.760        13
59.770         0
59.780        27
59.790        40
59.800        33
59.810        27
59.820         7
59.830        20
59.840        27
59.850         7
59.860        27
59.870         0
59.880        13
59.890        20
59.900        33
59.910        13
59.920        20
59.930         7
59.940         0
59.950         0
59.960        13
59.970        27
59.980        20
59.990         7
60.000        13
