20.000        20
20.010        20
20.020        73
20.030        53
20.040        53
20.050        33
20.060        60
20.070         7
20.080        33
20.090        20
20.100        47
20.110        33
20.120        33
20.130        27
20.140        33
20.150        27
20.160        60
20.170        27
20.180        40
20.190        33
20.200        13
20.210        33
20.220        47
20.230        40
20.240        33
20.250        60
20.260        40
20.270        53
20.280        20
20.290        67
20.300        33
20.310        33
20.320        33
20.330        40
20.340        47
20.350        33
20.360        60
20.370        53
20.380        73
20.390        40
20.400        33
20.410        67
20.420        47
20.430        40
20.440        27
20.450        53
20.460        53
20.470        47
20.480        60
20.490        27
20.500        60
20.510        40
20.520        53
20.530        60
20.540        47
20.550        40
20.560        13
20.570        33
20.580        40
20.590        53
20.600        53
20.610        33
20.620        33
20.630        27
20.640        40
20.650        40
20.660        40
20.670        40
20.680        20
20.690        27
20.700        40
20.710        27
20.720        33
20.730        20
20.740        87
20.750        73
20.760        20
20.770        47
20.780        33
20.790        53
20.800        73
20.810        13
20.820        33
20.830        40
20.840        33
20.850        53
20.860        40
20.870        60
20.880        47
20.890        67
20.900        53
20.910        53
20.920        53
20.930        67
20.940        47
20.950        33
20.960        47
20.970        47
20.980        40
20.990        40
21.000        20
21.010        27
21.020        60
21.030        47
21.040        40
21.050        47
21.060        33
21.070        40
21.080        33
21.090        93
21.100        53
21.110        80
21.120        20
21.130        33
21.140        27
21.150        40
21.160        20
21.170         0
21.180        53
21.190        53
21.200        60
21.210        60
21.220        33
21.230        87
21.240        33
21.250        40
21.260        53
21.270        27
21.280        20
21.290        67
21.300        40
21.310        47
21.320        27
21.330        60
21.340        47
21.350        13
21.360        33
21.370        20
21.380        47
21.390        33
21.400        20
21.410        47
21.420        40
21.430        40
21.440        40
21.450        33
21.460        67
21.470        20
21.480        40
21.490        47
21.500        40
21.510        47
21.520        53
21.530        40
21.540        40
21.550        47
21.560        27
21.570        27
21.580        27
21.590        40
21.600        40
21.610        73
21.620        47
21.630        20
21.640        27
21.650        47
21.660        27
21.670        60
21.680        53
21.690        53
21.700        53
21.710        33
21.720        73
21.730        40
21.740        20
21.750        53
21.760        53
21.770        20
21.780        60
21.790        13
21.800        47
21.810        33
21.820        73
21.830        13
21.840        53
21.850        53
21.860        53
21.870        47
21.880        67
21.890        27
21.900        73
21.910        60
21.920        47
21.930        33
21.940        40
21.950        20
21.960        47
21.970        33
21.980        20
21.990        73
22.000        33
22.010        33
22.020        33
22.030        33
22.040        53
22.050        40
22.060        47
22.070        40
22.080        47
22.090        40
22.100        73
22.110        33
22.120        40
22.130        73
22.140        53
22.150        60
22.160        20
22.170        13
22.180        33
22.190        47
22.200        27
22.210        53
22.220        20
22.230        53
22.240        73
22.250        47
22.260        40
22.270        40
22.280        47
22.290        40
22.300        67
22.310        20
22.320        47
22.330        27
22.340        27
22.350        60
22.360        47
22.370        80
22.380        60
22.390        27
22.400        80
22.410        40
22.420        33
22.430        33
22.440        27
22.450        60
22.460        73
22.470        40
22.480        53
22.490        67
22.500        47
22.510        73
22.520        80
22.530        53
22.540        40
22.550        27
22.560        80
22.570        53
22.580       120
22.590        93
22.600        93
22.610       120
22.620        93
22.630       127
22.640        47
22.650        87
22.660       153
22.670       127
22.680       113
22.690       200
22.700       100
22.710       173
22.720       173
22.730       127
22.740       147
22.750       107
22.760       107
22.770       147
22.780       133
22.790       153
22.800       107
22.810       133
22.820        80
22.830       100
22.840       107
22.850        87
22.860        87
22.870        73
22.880        67
22.890        73
22.900        73
22.910         7
22.920        67
22.930        53
22.940        53
22.950        80
22.960        53
22.970        47
22.980        60
22.990        40
23.000        33
23.010        67
23.020        20
23.030        53
23.040        73
23.050        33
23.060        27
23.070        20
23.080        27
23.090        33
23.100        33
23.110        67
23.120        67
23.130        67
23.140        40
23.150        33
23.160        73
23.170        47
23.180        47
23.190        67
23.200        33
23.210        33
23.220        73
23.230        53
23.240        53
23.250        40
23.260        40
23.270        47
23.280        27
23.290        53
23.300        33
23.310        53
23.320        33
23.330        47
23.340        40
23.350        47
23.360        27
23.370        20
23.380        40
23.390        33
23.400        20
23.410        33
23.420        33
23.430        40
23.440        27
23.450        33
23.460        33
23.470        40
23.480        13
23.490        47
23.500        33
23.510        67
23.520        47
23.530        40
23.540        33
23.550        33
23.560        27
23.570        27
23.580         7
23.590        47
23.600        27
23.610        33
23.620        40
23.630        27
23.640        20
23.650        33
23.660        27
23.670        53
23.680        20
23.690        27
23.700        60
23.710        47
23.720        33
23.730        60
23.740        47
23.750        40
23.760        53
23.770        13
23.780        40
23.790        47
23.800        27
23.810        40
23.820        40
23.830        33
23.840        27
23.850        53
23.860        60
23.870        33
23.880        33
23.890        53
23.900        33
23.910        27
23.920        27
23.930        33
23.940        20
23.950        47
23.960        53
23.970        20
23.980        20
23.990        60
24.000        27
24.010         7
24.020        40
24.030        27
24.040        27
24.050        73
24.060        80
24.070        20
24.080        47
24.090        47
24.100        47
24.110        40
24.120        27
24.130        40
24.140        40
24.150        33
24.160        53
24.170        60
24.180        27
24.190        20
24.200        53
24.210        33
24.220        20
24.230        47
24.240        60
24.250        20
24.260        20
24.270        33
24.280        27
24.290        40
24.300        27
24.310        20
24.320        27
24.330        73
24.340        27
24.350        33
24.360        40
24.370        47
24.380        33
24.390        53
24.400        33
24.410        20
24.420        47
24.430        60
24.440        13
24.450        40
24.460        20
24.470        47
24.480        33
24.490        27
24.500        60
24.510        40
24.520        20
24.530        13
24.540        33
24.550        27
24.560        40
24.570        27
24.580        40
24.590        33
24.600        47
24.610        27
24.620        47
24.630        53
24.640        47
24.650        33
24.660        20
24.670        40
24.680        53
24.690        33
24.700        33
24.710        20
24.720        33
24.730        27
24.740        73
24.750        20
24.760        60
24.770        53
24.780        13
24.790        67
24.800        40
24.810        33
24.820        20
24.830         7
24.840        13
24.850        27
24.860        40
24.870        40
24.880        33
24.890        33
24.900        73
24.910        27
24.920         7
24.930        20
24.940        20
24.950        27
24.960        33
24.970        47
24.980        47
24.990        33
25.000        27
25.010        33
25.020        27
25.030        13
25.040        27
25.050        33
25.060        40
25.070        33
25.080        13
25.090        53
25.100        27
25.110        20
25.120        40
25.130        27
25.140        53
25.150        40
25.160        13
25.170        40
25.180        40
25.190        47
25.200        20
25.210        47
25.220        13
25.230        27
25.240        60
25.250        27
25.260        20
25.270        33
25.280        53
25.290        13
25.300        33
25.310        20
25.320        13
25.330        27
25.340        27
25.350        53
25.360        27
25.370        20
25.380        27
25.390        60
25.400        20
25.410        20
25.420        27
25.430        13
25.440        33
25.450        53
25.460        47
25.470        60
25.480        67
25.490        40
25.500        67
25.510        47
25.520        53
25.530       120
25.540       213
25.550       227
25.560       173
25.570       313
25.580       273
25.590       173
25.600       220
25.610       167
25.620       200
25.630       140
25.640       127
25.650       107
25.660        93
25.670       100
25.680       107
25.690        20
25.700        67
25.710        33
25.720        47
25.730        67
25.740        20
25.750        27
25.760        20
25.770        67
25.780        27
25.790        40
25.800        27
25.810        20
25.820        33
25.830        47
25.840        33
25.850        27
25.860        40
25.870        20
25.880        20
25.890        13
25.900        60
25.910        27
25.920        33
25.930        20
25.940        33
25.950        20
25.960        33
25.970        13
25.980        40
25.990        20
26.000        33
26.010         0
26.020        27
26.030        33
26.040        20
26.050        53
26.060        33
26.070        27
26.080        27
26.090        13
26.100        27
26.110        13
26.120        27
26.130        20
26.140        33
26.150        40
26.160        60
26.170        20
26.180        33
26.190        20
26.200        13
26.210        40
26.220        53
26.230        13
26.240        20
26.250        53
26.260        13
26.270        27
26.280        47
26.290        33
26.300        13
26.310        33
26.320        20
26.330        27
26.340        47
26.350        20
26.360        13
26.370        60
26.380        20
26.390        60
26.400        27
26.410        67
26.420        33
26.430        33
26.440        20
26.450        27
26.460        33
26.470        27
26.480        33
26.490        33
26.500         7
26.510         0
26.520        60
26.530        33
26.540        47
26.550        27
26.560        27
26.570        13
26.580        33
26.590        87
26.600        33
26.610        47
26.620        47
26.630        40
26.640        20
26.650        27
26.660        53
26.670        20
26.680        47
26.690        20
26.700        20
26.710        20
26.720        47
26.730        60
26.740        20
26.750        27
26.760         0
26.770        53
26.780        20
26.790        20
26.800        47
26.810        80
26.820        40
26.830        20
26.840        33
26.850         7
26.860        33
26.870        40
26.880        13
26.890        40
26.900        27
26.910        33
26.920        53
26.930        60
26.940        33
26.950        40
26.960        33
26.970        27
26.980        13
26.990        13
27.000        40
27.010        47
27.020        53
27.030        27
27.040        33
27.050        13
27.060        33
27.070        33
27.080        33
27.090        20
27.100        27
27.110        20
27.120        60
27.130        27
27.140        20
27.150        20
27.160        13
27.170         0
27.180        20
27.190        40
27.200        13
27.210        13
27.220        47
27.230         0
27.240        20
27.250        47
27.260        20
27.270        27
27.280        20
27.290        27
27.300        20
27.310        33
27.320        13
27.330        20
27.340        27
27.350        13
27.360        20
27.370        47
27.380        33
27.390        33
27.400        13
27.410        40
27.420        27
27.430        27
27.440        27
27.450        33
27.460        40
27.470        27
27.480        40
27.490        33
27.500        33
27.510        27
27.520        33
27.530        33
27.540        13
27.550        27
27.560         7
27.570        13
27.580         7
27.590        33
27.600        53
27.610        27
27.620        13
27.630        33
27.640        47
27.650        13
27.660        47
27.670        33
27.680         7
27.690        33
27.700        47
27.710        20
27.720        33
27.730        33
27.740        33
27.750        33
27.760        13
27.770        33
27.780        47
27.790        40
27.800        33
27.810        33
27.820        13
27.830        20
27.840        40
27.850        20
27.860        53
27.870        27
27.880        27
27.890         7
27.900        40
27.910        40
27.920        20
27.930         0
27.940        60
27.950        20
27.960        20
27.970        20
27.980        33
27.990        13
28.000        13
28.010        33
28.020        33
28.030        20
28.040        20
28.050        13
28.060        33
28.070        60
28.080        27
28.090        27
28.100        47
28.110        20
28.120        27
28.130        13
28.140        27
28.150        27
28.160        27
28.170        33
28.180        40
28.190        33
28.200        20
28.210        13
28.220        40
28.230        60
28.240        27
28.250         0
28.260        20
28.270        60
28.280        33
28.290        20
28.300        20
28.310        47
28.320        27
28.330        33
28.340        27
28.350        20
28.360        33
28.370        13
28.380        53
28.390        33
28.400        40
28.410        13
28.420        27
28.430        27
28.440        33
28.450        40
28.460        20
28.470        27
28.480        27
28.490        27
28.500        47
28.510        13
28.520        33
28.530        53
28.540        33
28.550        13
28.560        53
28.570        13
28.580        27
28.590        27
28.600        33
28.610        20
28.620        27
28.630        33
28.640        33
28.650        27
28.660         7
28.670        13
28.680         7
28.690        40
28.700        20
28.710         7
28.720        40
28.730        53
28.740        33
28.750        27
28.760        27
28.770        20
28.780         7
28.790        40
28.800         7
28.810        27
28.820        40
28.830        27
28.840        27
28.850        13
28.860        40
28.870        47
28.880        20
28.890        27
28.900        53
28.910        27
28.920        40
28.930        33
28.940        47
28.950        33
28.960        20
28.970         7
28.980        47
28.990        20
29.000        27
29.010        20
29.020        20
29.030        20
29.040        20
29.050        20
29.060        40
29.070        40
29.080        33
29.090        47
29.100        27
29.110        47
29.120        13
29.130        20
29.140        13
29.150        27
29.160        13
29.170        53
29.180        20
29.190        33
29.200        33
29.210        20
29.220        47
29.230        20
29.240        13
29.250        33
29.260        33
29.270        67
29.280        53
29.290         7
29.300        13
29.310        33
29.320        40
29.330        40
29.340        47
29.350        20
29.360        47
29.370        13
29.380        33
29.390        40
29.400        27
29.410         7
29.420        20
29.430        33
29.440        27
29.450         7
29.460        27
29.470        13
29.480        20
29.490        20
29.500        60
29.510        27
29.520        13
29.530        20
29.540        13
29.550        27
29.560        20
29.570        13
29.580        40
29.590         7
29.600        20
29.610        20
29.620        27
29.630        27
29.640        27
29.650        13
29.660         7
29.670        47
29.680        47
29.690        40
29.700        20
29.710        27
29.720        33
29.730         7
29.740        20
29.750        33
29.760        13
29.770        33
29.780        33
29.790        40
29.800        27
29.810        27
29.820        33
29.830        27
29.840        20
29.850        33
29.860        27
29.870        33
29.880        80
29.890        40
29.900        53
29.910        27
29.920        40
29.930        27
29.940        20
29.950        13
29.960         7
29.970        20
29.980         7
29.990        40
30.000        20
30.010        33
30.020        13
30.030        20
30.040        13
30.050        20
30.060        13
30.070        13
30.080        13
30.090        27
30.100        27
30.110        13
30.120        27
30.130        20
30.140        27
30.150        47
30.160         7
30.170        33
30.180        13
30.190        33
30.200        20
30.210        47
30.220        13
30.230        13
30.240         7
30.250       147
30.260        33
30.270        47
30.280        20
30.290        40
30.300        33
30.310        27
30.320        27
30.330        40
30.340        47
30.350         7
30.360        33
30.370        33
30.380        53
30.390        27
30.400         7
30.410        33
30.420        13
30.430        13
30.440        27
30.450        27
30.460         7
30.470        20
30.480        33
30.490        20
30.500         7
30.510        33
30.520        60
30.530        27
30.540        33
30.550        13
30.560        27
30.570        27
30.580        47
30.590        33
30.600        13
30.610        20
30.620        20
30.630        27
30.640        20
30.650        13
30.660        27
30.670        47
30.680        60
30.690        27
30.700        27
30.710        53
30.720        13
30.730         0
30.740        47
30.750        27
30.760        33
30.770        27
30.780        20
30.790        33
30.800        33
30.810        20
30.820        27
30.830        13
30.840        13
30.850        20
30.860        20
30.870        27
30.880        27
30.890        13
30.900        33
30.910        27
30.920        20
30.930        20
30.940        40
30.950        33
30.960        47
30.970        47
30.980        47
30.990        20
31.000        33
31.010        33
31.020        20
31.030        27
31.040        20
31.050        40
31.060         7
31.070        33
31.080        27
31.090        47
31.100         7
31.110        13
31.120        20
31.130        13
31.140        27
31.150        40
31.160        13
31.170        20
31.180        60
31.190        20
31.200         7
31.210        33
31.220        33
31.230        13
31.240        13
31.250        13
31.260        33
31.270        40
31.280        40
31.290         7
31.300         7
31.310        27
31.320        27
31.330        47
31.340        33
31.350        47
31.360        27
31.370        40
31.380        47
31.390        20
31.400        27
31.410        20
31.420        53
31.430        40
31.440        13
31.450        33
31.460         7
31.470         7
31.480        40
31.490        27
31.500        33
31.510        27
31.520        20
31.530         7
31.540        13
31.550        20
31.560        13
31.570        13
31.580        27
31.590        27
31.600        33
31.610        33
31.620        20
31.630        33
31.640         7
31.650         0
31.660        60
31.670        13
31.680        27
31.690        13
31.700        20
31.710        20
31.720        27
31.730        20
31.740        27
31.750        40
31.760        13
31.770        27
31.780        13
31.790        13
31.800        27
31.810        60
31.820         7
31.830        13
31.840        20
31.850        13
31.860        33
31.870        33
31.880        27
31.890        20
31.900        40
31.910        20
31.920         7
31.930        13
31.940        27
31.950        13
31.960        13
31.970        20
31.980        33
31.990        20
32.000        33
32.010        13
32.020        67
32.030        13
32.040        20
32.050        33
32.060        20
32.070        60
32.080        20
32.090        33
32.100        33
32.110        40
32.120        33
32.130        33
32.140        67
32.150        27
32.160        40
32.170        40
32.180        33
32.190        47
32.200        60
32.210        40
32.220        33
32.230        60
32.240        47
32.250        53
32.260        60
32.270        67
32.280        93
32.290        40
32.300        93
32.310        87
32.320        73
32.330       140
32.340       113
32.350       100
32.360       113
32.370       113
32.380        67
32.390       100
32.400       133
32.410       127
32.420        87
32.430       113
32.440        60
32.450        60
32.460       140
32.470        73
32.480       127
32.490        60
32.500        47
32.510        73
32.520       100
32.530        80
32.540        87
32.550        73
32.560        80
32.570        40
32.580        60
32.590        67
32.600        67
32.610        33
32.620        60
32.630        53
32.640        33
32.650        13
32.660        47
32.670        27
32.680        60
32.690        40
32.700        13
32.710        40
32.720        60
32.730        47
32.740        40
32.750        60
32.760        27
32.770        33
32.780        47
32.790        20
32.800        20
32.810        33
32.820        20
32.830        40
32.840        13
32.850        60
32.860        47
32.870         7
32.880        20
32.890        27
32.900        20
32.910        40
32.920        13
32.930        47
32.940        13
32.950        27
32.960         7
32.970        33
32.980        20
32.990        27
33.000        40
33.010         7
33.020        40
33.030        20
33.040         7
33.050        33
33.060        20
33.070        13
33.080        20
33.090        27
33.100        73
33.110        40
33.120        27
33.130        33
33.140        27
33.150         7
33.160         7
33.170        13
33.180        27
33.190        27
33.200        27
33.210         0
33.220         7
33.230        20
33.240        33
33.250        40
33.260         7
33.270        53
33.280        47
33.290        27
33.300        27
33.310        27
33.320        13
33.330        13
33.340        27
33.350        33
33.360        20
33.370        33
33.380        20
33.390        13
33.400        13
33.410        13
33.420        33
33.430        13
33.440        27
33.450        47
33.460        33
33.470        27
33.480        13
33.490        33
33.500        33
33.510        20
33.520        33
33.530        40
33.540         7
33.550        20
33.560        27
33.570        33
33.580        13
33.590        33
33.600        27
33.610        40
33.620        13
33.630        27
33.640        20
33.650         7
33.660        27
33.670        27
33.680         7
33.690        27
33.700        13
33.710        20
33.720        20
33.730        33
33.740        40
33.750        20
33.760        27
33.770        20
33.780        20
33.790        13
33.800         0
33.810        13
33.820         7
33.830        13
33.840        27
33.850        20
33.860        67
33.870        33
33.880        20
33.890        27
33.900        20
33.910        20
33.920        20
33.930        20
33.940        13
33.950        27
33.960        20
33.970         0
33.980         7
33.990        40
34.000        27
34.010         7
34.020        33
34.030        27
34.040        27
34.050        13
34.060        47
34.070         7
34.080        27
34.090        33
34.100         0
34.110        13
34.120         7
34.130        27
34.140        33
34.150        13
34.160         7
34.170         7
34.180        33
34.190        33
34.200        13
34.210        13
34.220        33
34.230        40
34.240        27
34.250        33
34.260        13
34.270        20
34.280        20
34.290        33
34.300        13
34.310        27
34.320        27
34.330        40
34.340        20
34.350         7
34.360        20
34.370        27
34.380        27
34.390        13
34.400        13
34.410        27
34.420        60
34.430        27
34.440        20
34.450        27
34.460         7
34.470        13
34.480        27
34.490         0
34.500         0
34.510         7
34.520         7
34.530        20
34.540         7
34.550        13
34.560        33
34.570        27
34.580        40
34.590        27
34.600        27
34.610        33
34.620        27
34.630        20
34.640        20
34.650        33
34.660        27
34.670        20
34.680         7
34.690        13
34.700        20
34.710        13
34.720        13
34.730        27
34.740         0
34.750        20
34.760        33
34.770        20
34.780        27
34.790        13
34.800        40
34.810        40
34.820        20
34.830        40
34.840        20
34.850        20
34.860         7
34.870        47
34.880        27
34.890        47
34.900        13
34.910        40
34.920         7
34.930        60
34.940        47
34.950        20
34.960        53
34.970        47
34.980        67
34.990        33
35.000        73
35.010        27
35.020        47
35.030        40
35.040        67
35.050       100
35.060        93
35.070        73
35.080        60
35.090        87
35.100        73
35.110        60
35.120        27
35.130        80
35.140       120
35.150        67
35.160       153
35.170       173
35.180       113
35.190       133
35.200       153
35.210       133
35.220       100
35.230        47
35.240        73
35.250        47
35.260        27
35.270        47
35.280        60
35.290        67
35.300        40
35.310        73
35.320        60
35.330        33
35.340        33
35.350        40
35.360        47
35.370        13
35.380        40
35.390        20
35.400        33
35.410         0
35.420        27
35.430        13
35.440        27
35.450        40
35.460        53
35.470        47
35.480        20
35.490        27
35.500        33
35.510        40
35.520        27
35.530         7
35.540        40
35.550        20
35.560        40
35.570        27
35.580        40
35.590        13
35.600        47
35.610        20
35.620         7
35.630        47
35.640        20
35.650        20
35.660        13
35.670        20
35.680        20
35.690        20
35.700        27
35.710        53
35.720        33
35.730        20
35.740        20
35.750        20
35.760        20
35.770         7
35.780        13
35.790        40
35.800        40
35.810        53
35.820        27
35.830        20
35.840        27
35.850        20
35.860        33
35.870        20
35.880        27
35.890        13
35.900        20
35.910        20
35.920        47
35.930        33
35.940        27
35.950        40
35.960         0
35.970        33
35.980        47
35.990        27
36.000        13
36.010         7
36.020        27
36.030        27
36.040        13
36.050        13
36.060        13
36.070         0
36.080        20
36.090         7
36.100        13
36.110        20
36.120        20
36.130        33
36.140        27
36.150        13
36.160         7
36.170        20
36.180        13
36.190        27
36.200        47
36.210         7
36.220        33
36.230        33
36.240        27
36.250         0
36.260        20
36.270        13
36.280        20
36.290        40
36.300        33
36.310         7
36.320        20
36.330        27
36.340        20
36.350        20
36.360        13
36.370        20
36.380        13
36.390        27
36.400        47
36.410        13
36.420        13
36.430        13
36.440        47
36.450        20
36.460        13
36.470        27
36.480        13
36.490        13
36.500         0
36.510        20
36.520        27
36.530        20
36.540        20
36.550        20
36.560        13
36.570        47
36.580        33
36.590         7
36.600         0
36.610         7
36.620        20
36.630         7
36.640        40
36.650        13
36.660        33
36.670        40
36.680         0
36.690         0
36.700         0
36.710        27
36.720        27
36.730        53
36.740        13
36.750        33
36.760        13
36.770        20
36.780        33
36.790        20
36.800         7
36.810        13
36.820        13
36.830        13
36.840        13
36.850        53
36.860        27
36.870        40
36.880        13
36.890         7
36.900        20
36.910        33
36.920        27
36.930        20
36.940         0
36.950         7
36.960        20
36.970        27
36.980        27
36.990        20
37.000        20
37.010        27
37.020        13
37.030        20
37.040        20
37.050        47
37.060        40
37.070        33
37.080        20
37.090         0
37.100        20
37.110        40
37.120        33
37.130         0
37.140        33
37.150         7
37.160        13
37.170        20
37.180        20
37.190        20
37.200        13
37.210        13
37.220        27
37.230        13
37.240         7
37.250        13
37.260        27
37.270        27
37.280        20
37.290        20
37.300         0
37.310        27
37.320        13
37.330        20
37.340        27
37.350        20
37.360        13
37.370        33
37.380        20
37.390        20
37.400        27
37.410        33
37.420         0
37.430        47
37.440        27
37.450        20
37.460        27
37.470        27
37.480        13
37.490        27
37.500        13
37.510         7
37.520        47
37.530        33
37.540        20
37.550         0
37.560        33
37.570        27
37.580        27
37.590        27
37.600        13
37.610        27
37.620        33
37.630        27
37.640        27
37.650        53
37.660        20
37.670        33
37.680        27
37.690        13
37.700        13
37.710        27
37.720        40
37.730        13
37.740         7
37.750        33
37.760        27
37.770        40
37.780        27
37.790        13
37.800        73
37.810       113
37.820       100
37.830       140
37.840       140
37.850        87
37.860        80
37.870        40
37.880        67
37.890       107
37.900        60
37.910        80
37.920        73
37.930        47
37.940        27
37.950        53
37.960        40
37.970        47
37.980         0
37.990        33
38.000        47
38.010        40
38.020        33
38.030         7
38.040        27
38.050         0
38.060        20
38.070         7
38.080        13
38.090        13
38.100         7
38.110        13
38.120        27
38.130        20
38.140        40
38.150        20
38.160        20
38.170        33
38.180        27
38.190        13
38.200         7
38.210        20
38.220        33
38.230         7
38.240        13
38.250         0
38.260        20
38.270        20
38.280        33
38.290        13
38.300        13
38.310        33
38.320        20
38.330        53
38.340        40
38.350        20
38.360        20
38.370        33
38.380        20
38.390         7
38.400        20
38.410        20
38.420        20
38.430        13
38.440        13
38.450        40
38.460        33
38.470        20
38.480        20
38.490        20
38.500        47
38.510        13
38.520        13
38.530        33
38.540        40
38.550         7
38.560        13
38.570        40
38.580        33
38.590        33
38.600        13
38.610        13
38.620         7
38.630        40
38.640        20
38.650        27
38.660        40
38.670        27
38.680        13
38.690        33
38.700         7
38.710         7
38.720        20
38.730        20
38.740         0
38.750        53
38.760        40
38.770        33
38.780        13
38.790        27
38.800         7
38.810         7
38.820        13
38.830        13
38.840        13
38.850        20
38.860        47
38.870        13
38.880         7
38.890        33
38.900        27
38.910         7
38.920         7
38.930        27
38.940        20
38.950        47
38.960        27
38.970        33
38.980        20
38.990        20
39.000        27
39.010        27
39.020        27
39.030        33
39.040        40
39.050        33
39.060        27
39.070        60
39.080        27
39.090        27
39.100        27
39.110        27
39.120        27
39.130        13
39.140         7
39.150        20
39.160        33
39.170        33
39.180        13
39.190        27
39.200        20
39.210        13
39.220        40
39.230        53
39.240        40
39.250         0
39.260        13
39.270        53
39.280         7
39.290        20
39.300        20
39.310        33
39.320        20
39.330        47
39.340        20
39.350         7
39.360        47
39.370        40
39.380        27
39.390        40
39.400        13
39.410        40
39.420        27
39.430        33
39.440        20
39.450        13
39.460        33
39.470        47
39.480        40
39.490        33
39.500        40
39.510        27
39.520        27
39.530        40
39.540        20
39.550        33
39.560        33
39.570        27
39.580        27
39.590        13
39.600        27
39.610        27
39.620        27
39.630        60
39.640        40
39.650        20
39.660        53
39.670        40
39.680        33
39.690        20
39.700        27
39.710        33
39.720        60
39.730        27
39.740        47
39.750        93
39.760        47
39.770        87
39.780        67
39.790        60
39.800        73
39.810        53
39.820       100
39.830       113
39.840       153
39.850       180
39.860       107
39.870       193
39.880       147
39.890       233
39.900       173
39.910       187
39.920       287
39.930       220
39.940       287
39.950       327
39.960       387
39.970       420
39.980       360
39.990       293
40.000       353
40.010       340
40.020       460
40.030       380
40.040       387
40.050       393
40.060       400
40.070       420
40.080       387
40.090       373
40.100       253
40.110       213
40.120       227
40.130       227
40.140       247
40.150       213
40.160       213
40.170       193
40.180       160
40.190       107
40.200       120
40.210       107
40.220       113
40.230        60
40.240        80
40.250        93
40.260        67
40.270        53
40.280        40
40.290        27
40.300        53
40.310        47
40.320        67
40.330        33
40.340        40
40.350        40
40.360        53
40.370        53
40.380        47
40.390        60
40.400        13
40.410        13
40.420        27
40.430        20
40.440        47
40.450         7
40.460        20
40.470        20
40.480        20
40.490        27
40.500        47
40.510        27
40.520        47
40.530        40
40.540        13
40.550        40
40.560         7
40.570         7
40.580        40
40.590        13
40.600        27
40.610        13
40.620        40
40.630        13
40.640         7
40.650        13
40.660        27
40.670        33
40.680        27
40.690        47
40.700        20
40.710        20
40.720        40
40.730         7
40.740        27
40.750        40
40.760        20
40.770        13
40.780        13
40.790        47
40.800        60
40.810        20
40.820        33
40.830         7
40.840        27
40.850        27
40.860        20
40.870        27
40.880        40
40.890        40
40.900        13
40.910        27
40.920        20
40.930        33
40.940        20
40.950        47
40.960        13
40.970        20
40.980        20
40.990        27
41.000        40
41.010        13
41.020        20
41.030        13
41.040        40
41.050         7
41.060        13
41.070        33
41.080        33
41.090        33
41.100        20
41.110        27
41.120        27
41.130        13
41.140         7
41.150        47
41.160        33
41.170        33
41.180        33
41.190        20
41.200        13
41.210        40
41.220        13
41.230        13
41.240         7
41.250        40
41.260        40
41.270        27
41.280        33
41.290        27
41.300        33
41.310        27
41.320        13
41.330        40
41.340        13
41.350        13
41.360        33
41.370         7
41.380        20
41.390        20
41.400        13
41.410        67
41.420        33
41.430        27
41.440        20
41.450        13
41.460        27
41.470        33
41.480        53
41.490        27
41.500        40
41.510        27
41.520        20
41.530        73
41.540        53
41.550        20
41.560        33
41.570        33
41.580        20
41.590        33
41.600        80
41.610        53
41.620        40
41.630        93
41.640       127
41.650       153
41.660       107
41.670        93
41.680       140
41.690       227
41.700       180
41.710       173
41.720       207
41.730       173
41.740       153
41.750       147
41.760       113
41.770       140
41.780       127
41.790       107
41.800       140
41.810       167
41.820       127
41.830       120
41.840       107
41.850        87
41.860        40
41.870        73
41.880        53
41.890        33
41.900        33
41.910        53
41.920        60
41.930        40
41.940        27
41.950         0
41.960        33
41.970        53
41.980        60
41.990        33
42.000        20
42.010        47
42.020         7
42.030        20
42.040        13
42.050        33
42.060        33
42.070        60
42.080        33
42.090         7
42.100        20
42.110        20
42.120        33
42.130         7
42.140        13
42.150         7
42.160        33
42.170        33
42.180        20
42.190        20
42.200        40
42.210        13
42.220        40
42.230        13
42.240        60
42.250        27
42.260        27
42.270        27
42.280        13
42.290        33
42.300        20
42.310        33
42.320        40
42.330        33
42.340        13
42.350        33
42.360        20
42.370        13
42.380        47
42.390        27
42.400        20
42.410        20
42.420        53
42.430        20
42.440        13
42.450        27
42.460        20
42.470         7
42.480        20
42.490        27
42.500        27
42.510        27
42.520        27
42.530        13
42.540        13
42.550         7
42.560        27
42.570        13
42.580        47
42.590        33
42.600         7
42.610        20
42.620        13
42.630        27
42.640        40
42.650         7
42.660        13
42.670        13
42.680        27
42.690         7
42.700        27
42.710        27
42.720        27
42.730        13
42.740        33
42.750        27
42.760        13
42.770        40
42.780        27
42.790        27
42.800        20
42.810        20
42.820        13
42.830        33
42.840        53
42.850        33
42.860        13
42.870        20
42.880        47
42.890        33
42.900        13
42.910        67
42.920        20
42.930        27
42.940         7
42.950        20
42.960        20
42.970        20
42.980        20
42.990        27
43.000        40
43.010         7
43.020        27
43.030        33
43.040         0
43.050        13
43.060        40
43.070        13
43.080        60
43.090        13
43.100        33
43.110        13
43.120        27
43.130        33
43.140        20
43.150        13
43.160        13
43.170        27
43.180        27
43.190        13
43.200        33
43.210        20
43.220        27
43.230        33
43.240        53
43.250        33
43.260        40
43.270        73
43.280        40
43.290        87
43.300       100
43.310       127
43.320       100
43.330       107
43.340        87
43.350       147
43.360        67
43.370        40
43.380        47
43.390        73
43.400        67
43.410       100
43.420        40
43.430       100
43.440        80
43.450        60
43.460        47
43.470        53
43.480        73
43.490        27
43.500        33
43.510        20
43.520        27
43.530        20
43.540        13
43.550        53
43.560        40
43.570        13
43.580        33
43.590        40
43.600        13
43.610        20
43.620        53
43.630        27
43.640        13
43.650        13
43.660        33
43.670        40
43.680         7
43.690        27
43.700         7
43.710         0
43.720        27
43.730        33
43.740        33
43.750        67
43.760        27
43.770        13
43.780        20
43.790        20
43.800        20
43.810        13
43.820        33
43.830        20
43.840         0
43.850        20
43.860        20
43.870        27
43.880         7
43.890        13
43.900        33
43.910         7
43.920        20
43.930        27
43.940        20
43.950        33
43.960        20
43.970         0
43.980        27
43.990        47
44.000        40
44.010        33
44.020        13
44.030        20
44.040        47
44.050        20
44.060        33
44.070        20
44.080        20
44.090        27
44.100        13
44.110        33
44.120        20
44.130         7
44.140         0
44.150        20
44.160        40
44.170         0
44.180         7
44.190        20
44.200         0
44.210        40
44.220        13
44.230        20
44.240        13
44.250         7
44.260        27
44.270        27
44.280        13
44.290        27
44.300        13
44.310         7
44.320         7
44.330        13
44.340        27
44.350        40
44.360        27
44.370        27
44.380        13
44.390        20
44.400        20
44.410        47
44.420        20
44.430        27
44.440        20
44.450        20
44.460        20
44.470        13
44.480        20
44.490        40
44.500        27
44.510         7
44.520        13
44.530        27
44.540        33
44.550        27
44.560        27
44.570        67
44.580        20
44.590        13
44.600        27
44.610        33
44.620        40
44.630        33
44.640        20
44.650        47
44.660        47
44.670         7
44.680        40
44.690        20
44.700        20
44.710        20
44.720        40
44.730        27
44.740        20
44.750        13
44.760        47
44.770        20
44.780        27
44.790        27
44.800        27
44.810        40
44.820        33
44.830        20
44.840        33
44.850        27
44.860        27
44.870        27
44.880        47
44.890         7
44.900        20
44.910        27
44.920        53
44.930        20
44.940        33
44.950         7
44.960        53
44.970        67
44.980        13
44.990        27
45.000        40
45.010        20
45.020        20
45.030        20
45.040        47
45.050        27
45.060        20
45.070        40
45.080        47
45.090        33
45.100        53
45.110        27
45.120        33
45.130        20
45.140         0
45.150        20
45.160        40
45.170        33
45.180        60
45.190        33
45.200        27
45.210        47
45.220        13
45.230         7
45.240        47
45.250        80
45.260        47
45.270        47
45.280        53
45.290        53
45.300        13
45.310        33
45.320        53
45.330        33
45.340        33
45.350        47
45.360        47
45.370        33
45.380        33
45.390        40
45.400        40
45.410        20
45.420        53
45.430        33
45.440        47
45.450        40
45.460        60
45.470        40
45.480        40
45.490        33
45.500        20
45.510        27
45.520        40
45.530        27
45.540        53
45.550        67
45.560        60
45.570        27
45.580        80
45.590        60
45.600        53
45.610        40
45.620        33
45.630        47
45.640        47
45.650        33
45.660        60
45.670        47
45.680        60
45.690        53
45.700        40
45.710        80
45.720        80
45.730        67
45.740        67
45.750        73
45.760        47
45.770       120
45.780        67
45.790        80
45.800        53
45.810        60
45.820        80
45.830       100
45.840        93
45.850       133
45.860       133
45.870       100
45.880       127
45.890       100
45.900       120
45.910        73
45.920       173
45.930       133
45.940       207
45.950       167
45.960       147
45.970       220
45.980       200
45.990       233
46.000       287
46.010       280
46.020       187
46.030       273
46.040       247
46.050       280
46.060       280
46.070       307
46.080       373
46.090       393
46.100       327
46.110       393
46.120       333
46.130       360
46.140       400
46.150       486
46.160       433
46.170       546
46.180       540
46.190       540
46.200       560
46.210       553
46.220       706
46.230       640
46.240       713
46.250       753
46.260       773
46.270       933
46.280       746
46.290       806
46.300       800
46.310       880
46.320       880
46.330       906
46.340       846
46.350       786
46.360       953
46.370      1126
46.380      1006
46.390       966
46.400       920
46.410       793
46.420      1020
46.430       920
46.440      1073
46.450      1040
46.460       893
46.470       966
46.480       986
46.490       860
46.500       820
46.510       860
46.520       913
46.530       766
46.540       666
46.550       766
46.560       653
46.570       613
46.580       673
46.590       606
46.600       700
46.610       786
46.620       526
46.630       600
46.640       613
46.650       506
46.660       520
46.670       540
46.680       433
46.690       453
46.700       307
46.710       367
46.720       347
46.730       293
46.740       233
46.750       307
46.760       253
46.770       267
46.780       300
46.790       293
46.800       273
46.810       240
46.820       273
46.830       173
46.840       193
46.850       187
46.860       140
46.870       120
46.880       153
46.890       187
46.900       153
46.910       147
46.920       120
46.930       153
46.940        73
46.950       167
46.960       127
46.970       107
46.980       127
46.990       107
47.000        87
47.010       140
47.020        87
47.030        73
47.040        73
47.050        47
47.060        60
47.070        73
47.080        80
47.090        87
47.100       100
47.110        67
47.120        40
47.130        73
47.140        47
47.150        73
47.160        27
47.170        47
47.180        33
47.190        53
47.200        60
47.210        60
47.220        47
47.230        47
47.240        53
47.250        33
47.260        47
47.270        60
47.280        60
47.290        47
47.300        27
47.310        40
47.320        60
47.330        40
47.340        67
47.350        40
47.360        40
47.370        60
47.380        27
47.390        40
47.400        67
47.410        53
47.420        33
47.430        73
47.440        80
47.450        40
47.460        33
47.470         7
47.480        40
47.490        47
47.500        27
47.510        40
47.520        53
47.530        27
47.540        33
47.550        53
47.560        47
47.570        27
47.580        53
47.590        53
47.600        27
47.610        20
47.620        13
47.630        27
47.640        40
47.650        40
47.660        33
47.670        20
47.680        20
47.690        53
47.700        27
47.710        33
47.720        47
47.730        47
47.740        40
47.750        20
47.760        53
47.770        53
47.780        20
47.790        40
47.800        13
47.810        53
47.820        33
47.830        13
47.840        40
47.850        40
47.860        40
47.870        20
47.880        20
47.890        33
47.900        20
47.910        13
47.920        33
47.930        47
47.940        33
47.950        27
47.960        20
47.970        20
47.980         0
47.990         7
48.000        47
48.010        47
48.020        47
48.030        33
48.040        40
48.050        47
48.060        20
48.070        33
48.080        47
48.090        53
48.100        27
48.110        20
48.120        40
48.130        27
48.140         7
48.150        27
48.160        20
48.170        47
48.180        47
48.190        33
48.200        20
48.210        20
48.220        33
48.230        40
48.240        67
48.250        33
48.260        53
48.270        40
48.280         7
48.290        40
48.300        33
48.310        40
48.320         7
48.330        27
48.340         7
48.350        13
48.360         0
48.370        40
48.380         7
48.390        27
48.400        27
48.410        33
48.420        47
48.430        27
48.440        27
48.450        47
48.460        53
48.470        27
48.480        40
48.490        13
48.500        27
48.510         7
48.520        60
48.530        27
48.540        40
48.550         0
48.560        53
48.570        13
48.580        13
48.590         0
48.600        20
48.610        20
48.620        40
48.630        13
48.640        20
48.650        20
48.660        27
48.670        33
48.680        33
48.690        27
48.700        20
48.710        13
48.720        27
48.730        40
48.740        20
48.750        13
48.760        47
48.770        13
48.780        20
48.790        20
48.800        27
48.810        27
48.820        27
48.830        20
48.840        27
48.850        20
48.860        27
48.870        27
48.880        13
48.890        13
48.900        33
48.910        27
48.920        20
48.930        27
48.940        33
48.950        27
48.960        27
48.970        40
48.980        20
48.990        47
49.000         0
49.010        20
49.020        13
49.030        33
49.040        47
49.050        27
49.060        13
49.070        27
49.080        13
49.090        27
49.100        27
49.110        27
49.120        27
49.130        20
49.140        20
49.150        33
49.160        13
49.170        20
49.180         0
49.190         7
49.200        13
49.210        33
49.220        20
49.230        20
49.240        20
49.250        13
49.260        40
49.270        33
49.280        33
49.290        40
49.300        27
49.310        27
49.320        20
49.330        13
49.340        13
49.350        33
49.360        40
49.370        33
49.380        13
49.390         0
49.400        20
49.410        33
49.420        27
49.430        27
49.440        27
49.450        27
49.460        33
49.470        20
49.480        27
49.490         7
49.500        13
49.510        20
49.520        20
49.530         7
49.540        27
49.550        40
49.560        27
49.570        27
49.580        13
49.590         7
49.600        27
49.610        13
49.620        13
49.630        40
49.640        27
49.650        27
49.660        20
49.670        27
49.680        20
49.690        40
49.700        27
49.710        20
49.720        13
49.730        33
49.740        13
49.750        13
49.760        53
49.770         7
49.780        20
49.790        47
49.800        20
49.810        20
49.820         7
49.830        13
49.840        27
49.850        13
49.860        40
49.870        33
49.880        13
49.890        33
49.900        20
49.910        33
49.920        13
49.930        13
49.940        13
49.950        13
49.960        20
49.970         7
49.980        33
49.990        27
50.000         7
50.010        40
50.020        27
50.030         7
50.040        20
50.050         7
50.060        33
50.070        53
50.080        13
50.090        20
50.100        13
50.110        20
50.120        13
50.130        20
50.140        27
50.150        27
50.160        20
50.170        13
50.180        20
50.190        13
50.200        33
50.210        13
50.220        13
50.230         7
50.240         7
50.250        33
50.260        20
50.270        27
50.280        27
50.290        13
50.300        20
50.310        20
50.320        33
50.330        27
50.340        20
50.350        33
50.360        33
50.370        20
50.380         7
50.390         7
50.400        13
50.410        13
50.420        13
50.430         7
50.440        13
50.450         0
50.460        20
50.470        13
50.480        47
50.490        33
50.500        40
50.510        27
50.520        13
50.530        27
50.540        13
50.550        13
50.560        27
50.570        40
50.580        20
50.590        33
50.600        33
50.610        20
50.620        13
50.630        33
50.640       187
50.650        20
50.660        20
50.670        47
50.680        20
50.690        13
50.700         7
50.710        20
50.720        20
50.730        20
50.740        40
50.750        13
50.760         0
50.770        20
50.780        27
50.790        27
50.800        27
50.810        33
50.820        27
50.830        13
50.840        20
50.850        20
50.860         7
50.870        40
50.880        20
50.890        47
50.900        13
50.910        33
50.920        27
50.930        13
50.940        20
50.950        40
50.960        20
50.970        27
50.980        13
50.990         7
51.000         7
51.010        40
51.020        20
51.030        20
51.040        20
51.050        13
51.060        33
51.070        13
51.080        27
51.090        40
51.100        13
51.110        67
51.120        13
51.130        33
51.140        20
51.150        13
51.160        27
51.170         7
51.180        20
51.190        20
51.200        20
51.210        27
51.220        20
51.230        20
51.240        13
51.250        20
51.260        40
51.270        27
51.280        13
51.290        20
51.300        40
51.310        13
51.320         7
51.330        27
51.340        33
51.350         7
51.360        20
51.370        27
51.380         0
51.390        20
51.400         7
51.410         7
51.420        27
51.430        13
51.440        47
51.450        33
51.460        27
51.470         0
51.480        13
51.490        20
51.500         7
51.510        40
51.520         7
51.530        40
51.540        33
51.550        13
51.560        20
51.570        13
51.580         7
51.590        20
51.600        13
51.610        47
51.620        13
51.630        27
51.640        27
51.650        13
51.660         7
51.670        20
51.680        27
51.690        20
51.700         7
51.710        20
51.720        40
51.730         7
51.740         0
51.750        27
51.760        20
51.770         7
51.780        13
51.790        27
51.800        20
51.810        20
51.820        13
51.830         7
51.840         7
51.850        33
51.860         0
51.870        13
51.880        53
51.890        27
51.900        47
51.910         7
51.920         7
51.930        13
51.940        13
51.950         7
51.960        20
51.970         7
51.980        13
51.990        13
52.000        13
52.010        27
52.020        27
52.030        27
52.040        27
52.050        13
52.060        20
52.070         7
52.080        20
52.090        40
52.100        13
52.110        27
52.120        20
52.130        40
52.140        20
52.150        60
52.160        20
52.170        27
52.180        20
52.190        27
52.200        20
52.210        20
52.220        13
52.230        27
52.240         7
52.250        40
52.260        20
52.270        20
52.280        20
52.290         0
52.300        47
52.310        20
52.320        33
52.330        13
52.340        53
52.350        33
52.360        20
52.370        27
52.380        13
52.390        27
52.400        33
52.410        20
52.420        20
52.430        67
52.440        20
52.450        27
52.460        33
52.470        20
52.480        20
52.490        40
52.500         7
52.510        33
52.520        40
52.530        53
52.540        73
52.550       100
52.560       120
52.570       147
52.580       247
52.590       167
52.600       200
52.610       167
52.620       200
52.630       140
52.640        67
52.650        73
52.660        47
52.670        60
52.680        73
52.690        67
52.700        73
52.710       100
52.720       127
52.730       120
52.740       140
52.750       140
52.760        80
52.770        80
52.780        67
52.790        53
52.800        47
52.810        27
52.820        27
52.830        13
52.840        53
52.850        47
52.860        27
52.870        13
52.880        20
52.890        40
52.900        13
52.910        27
52.920        27
52.930        40
52.940        20
52.950        33
52.960        20
52.970        13
52.980        13
52.990        13
53.000        27
53.010        27
53.020        20
53.030        40
53.040         0
53.050        20
53.060        33
53.070        20
53.080         7
53.090        20
53.100         7
53.110         7
53.120        33
53.130        13
53.140        13
53.150        33
53.160         7
53.170        13
53.180         0
53.190        13
53.200        13
53.210        13
53.220        20
53.230        20
53.240        27
53.250        20
53.260        40
53.270        20
53.280        53
53.290        27
53.300        27
53.310         7
53.320        20
53.330        13
53.340        13
53.350        13
53.360        20
53.370         0
53.380        33
53.390        13
53.400        13
53.410        33
53.420        20
53.430        27
53.440        27
53.450        20
53.460        27
53.470        40
53.480        20
53.490        13
53.500        13
53.510        47
53.520        40
53.530         0
53.540        33
53.550        20
53.560         7
53.570        20
53.580        27
53.590        13
53.600         7
53.610         7
53.620        13
53.630        33
53.640        33
53.650        20
53.660        33
53.670        13
53.680        20
53.690         7
53.700        20
53.710         0
53.720        33
53.730        33
53.740         7
53.750        13
53.760        20
53.770         7
53.780        13
53.790        13
53.800         7
53.810         7
53.820         0
53.830        33
53.840         7
53.850         0
53.860        47
53.870        20
53.880        13
53.890        20
53.900        33
53.910         7
53.920        33
53.930        20
53.940        20
53.950        20
53.960         0
53.970        20
53.980         7
53.990        13
54.000        27
54.010        13
54.020        13
54.030        20
54.040        13
54.050         0
54.060        20
54.070        20
54.080        13
54.090        20
54.100        33
54.110         7
54.120        13
54.130        13
54.140        13
54.150        47
54.160        20
54.170        20
54.180         0
54.190         0
54.200        40
54.210        20
54.220         0
54.230        20
54.240        27
54.250        27
54.260        27
54.270        53
54.280        20
54.290        27
54.300        13
54.310        13
54.320        13
54.330        20
54.340        20
54.350         7
54.360        20
54.370        20
54.380        27
54.390        20
54.400        33
54.410        53
54.420        13
54.430        27
54.440        20
54.450        20
54.460         7
54.470        13
54.480        33
54.490        27
54.500        13
54.510         7
54.520         7
54.530        20
54.540         7
54.550        20
54.560        27
54.570         7
54.580        47
54.590         7
54.600        27
54.610        20
54.620        20
54.630        13
54.640        27
54.650         0
54.660        13
54.670        13
54.680        13
54.690        33
54.700        13
54.710        13
54.720        20
54.730        20
54.740        20
54.750        33
54.760         0
54.770        27
54.780        20
54.790         7
54.800        20
54.810        13
54.820        33
54.830        13
54.840        20
54.850        27
54.860        20
54.870        40
54.880        20
54.890         7
54.900        27
54.910        27
54.920        20
54.930        20
54.940        33
54.950        27
54.960         7
54.970        13
54.980        13
54.990         7
55.000        13
55.010         0
55.020        33
55.030        20
55.040        20
55.050        13
55.060         0
55.070        27
55.080        27
55.090        20
55.100        33
55.110        13
55.120         7
55.130        20
55.140        20
55.150         7
55.160        20
55.170        20
55.180        20
55.190        27
55.200         7
55.210        20
55.220         0
55.230        13
55.240        33
55.250        47
55.260         7
55.270        27
55.280        47
55.290        27
55.300        13
55.310        27
55.320         0
55.330        20
55.340        20
55.350        20
55.360        20
55.370        20
55.380        20
55.390        20
55.400        13
55.410         7
55.420        20
55.430        13
55.440        20
55.450        20
55.460        20
55.470        13
55.480         7
55.490        20
55.500         0
55.510         7
55.520        13
55.530        40
55.540        13
55.550        20
55.560        20
55.570        20
55.580        47
55.590        13
55.600        13
55.610        27
55.620        13
55.630        13
55.640        40
55.650        13
55.660        13
55.670         7
55.680        13
55.690        27
55.700        27
55.710        33
55.720        40
55.730        27
55.740         7
55.750         7
55.760         7
55.770        20
55.780         0
55.790        27
55.800         7
55.810        20
55.820        20
55.830        33
55.840        13
55.850        20
55.860        27
55.870        20
55.880         0
55.890        20
55.900        33
55.910         0
55.920        33
55.930        33
55.940        20
55.950        13
55.960        27
55.970        33
55.980        33
55.990         7
56.000         7
56.010        20
56.020        20
56.030        20
56.040         7
56.050        13
56.060        27
56.070        27
56.080        20
56.090        20
56.100        27
56.110        33
56.120        27
56.130        20
56.140         0
56.150        13
56.160        20
56.170        40
56.180        20
56.190        20
56.200        27
56.210        13
56.220        20
56.230         0
56.240        20
56.250        13
56.260        40
56.270        27
56.280        13
56.290        13
56.300        13
56.310         7
56.320         7
56.330        53
56.340        13
56.350        13
56.360        27
56.370         7
56.380        13
56.390         7
56.400         0
56.410        27
56.420         0
56.430        27
56.440         7
56.450         0
56.460        33
56.470        27
56.480        20
56.490        13
56.500         7
56.510        13
56.520        27
56.530         7
56.540        13
56.550        27
56.560         7
56.570        33
56.580        27
56.590         7
56.600         7
56.610        33
56.620        27
56.630        33
56.640         7
56.650        27
56.660        27
56.670        40
56.680        27
56.690        20
56.700        13
56.710         7
56.720        13
56.730        13
56.740         7
56.750        13
56.760         7
56.770        13
56.780        33
56.790        20
56.800         0
56.810        27
56.820        53
56.830        27
56.840        27
56.850        13
56.860        20
56.870         7
56.880        13
56.890        27
56.900         7
56.910         7
56.920         7
56.930        20
56.940        20
56.950        13
56.960        13
56.970        13
56.980        20
56.990         0
57.000        27
57.010        13
57.020        20
57.030        13
57.040        33
57.050         7
57.060        20
57.070         7
57.080        27
57.090         7
57.100        13
57.110        33
57.120         0
57.130         0
57.140        27
57.150        13
57.160        33
57.170        33
57.180        53
57.190        20
57.200        33
57.210        13
57.220        13
57.230         7
57.240        20
57.250        40
57.260        20
57.270        33
57.280        20
57.290        27
57.300        27
57.310        40
57.320        27
57.330        33
57.340        20
57.350        40
57.360        40
57.370        53
57.380        53
57.390        27
57.400        47
57.410        20
57.420        40
57.430        47
57.440        53
57.450        53
57.460        73
57.470       113
57.480       147
57.490        80
57.500       140
57.510       187
57.520       140
57.530       193
57.540       153
57.550       120
57.560       220
57.570       120
57.580        87
57.590       127
57.600        60
57.610       107
57.620        87
57.630        80
57.640       120
57.650       100
57.660       133
57.670        80
57.680        93
57.690       107
57.700       113
57.710       140
57.720        80
57.730        87
57.740       120
57.750        67
57.760        87
57.770        87
57.780        53
57.790        73
57.800        40
57.810        40
57.820        47
57.830        60
57.840        33
57.850        47
57.860        47
57.870        73
57.880        47
57.890        40
57.900        87
57.910        93
57.920        33
57.930        53
57.940        60
57.950        33
57.960        67
57.970        13
57.980        40
57.990        67
58.000        33
58.010        67
58.020        67
58.030        73
58.040        47
58.050        27
58.060        47
58.070        33
58.080        27
58.090        27
58.100        67
58.110         7
58.120         7
58.130        13
58.140        40
58.150        13
58.160        33
58.170        13
58.180        47
58.190         7
58.200        33
58.210        33
58.220         0
58.230        33
58.240        13
58.250        13
58.260         7
58.270        20
58.280        13
58.290        27
58.300        13
58.310        13
58.320        27
58.330        27
58.340        13
58.350         7
58.360        47
58.370        13
58.380        20
58.390        27
58.400         0
58.410        20
58.420        27
58.430         0
58.440        13
58.450         0
58.460        13
58.470        27
58.480        13
58.490        20
58.500        20
58.510        13
58.520        40
58.530         7
58.540        20
58.550        20
58.560        20
58.570        13
58.580        13
58.590        13
58.600        13
58.610         0
58.620        27
58.630         0
58.640        20
58.650        20
58.660        27
58.670        13
58.680         7
58.690        33
58.700         0
58.710         7
58.720        20
58.730        20
58.740         7
58.750        40
58.760        13
58.770        20
58.780        27
58.790        20
58.800         7
58.810        13
58.820        27
58.830         7
58.840         0
58.850         0
58.860        27
58.870        20
58.880        13
58.890         7
58.900         7
58.910        40
58.920        13
58.930        13
58.940        20
58.950         7
58.960         0
58.970        27
58.980        67
58.990        20
59.000        20
59.010         7
59.020        27
59.030        33
59.040        33
59.050        20
59.060        13
59.070        13
59.080        20
59.090        27
59.100        20
59.110        13
59.120        13
59.130        27
59.140        27
59.150        20
59.160        20
59.170        27
59.180        27
59.190        20
59.200        13
59.210        33
59.220        13
59.230        20
59.240         7
59.250        33
59.260        13
59.270        13
59.280        33
59.290         7
59.300        20
59.310        33
59.320        13
59.330         7
59.340        13
59.350        27
59.360         0
59.370        13
59.380        20
59.390        27
59.400         7
59.410        33
59.420        20
59.430        13
59.440        20
59.450        20
59.460        13
59.470        13
59.480        47
59.490        47
59.500        27
59.510        13
59.520        27
59.530        13
59.540        20
59.550        20
59.560         0
59.570        27
59.580        27
59.590         7
59.600        40
59.610        13
59.620        33
59.630        13
59.640        13
59.650        27
59.660        33
59.670        13
59.680         7
59.690        20
59.700        27
59.710        13
59.720        27
59.730        20
59.740         7
59.750         7
59.760         7
59.770        33
59.780        20
59.790        33
59.800        13
59.810        33
59.820        33
59.830        20
59.840         0
59.850        13
59.860        27
59.870         0
59.880         7
59.890         0
59.900        20
59.910        40
59.920         0
59.930        33
59.940         7
59.950         0
59.960        13
59.970        20
59.980        20
59.990        27
60.000        27
