20.000        27
20.010        47
20.020        40
20.030        40
20.040        27
20.050        60
20.060        40
20.070        47
20.080        47
20.090        60
20.100        40
20.110        40
20.120        33
20.130        27
20.140        27
20.150        33
20.160        27
20.170        40
20.180        33
20.190        33
20.200        60
20.210        33
20.220        47
20.230        33
20.240         7
20.250        33
20.260        87
20.270        33
20.280        40
20.290        40
20.300        20
20.310        20
20.320        33
20.330        20
20.340        53
20.350        27
20.360        60
20.370        47
20.380        60
20.390        53
20.400        33
20.410        53
20.420        47
20.430        40
20.440        53
20.450        53
20.460        47
20.470        33
20.480        27
20.490        33
20.500        47
20.510        47
20.520        40
20.530        40
20.540        47
20.550        60
20.560        13
20.570        47
20.580        60
20.590        13
20.600        40
20.610        40
20.620        53
20.630        40
20.640        87
20.650        40
20.660        40
20.670        33
20.680        13
20.690        53
20.700        47
20.710        40
20.720         7
20.730        53
20.740        60
20.750        40
20.760        20
20.770        40
20.780        67
20.790        33
20.800        47
20.810        47
20.820        67
20.830        27
20.840        20
20.850         7
20.860        53
20.870        40
20.880        53
20.890        20
20.900        47
20.910        33
20.920        40
20.930        33
20.940        67
20.950        60
20.960        20
20.970        80
20.980        33
20.990        53
21.000        40
21.010        40
21.020        27
21.030        20
21.040        47
21.050        27
21.060        40
21.070        47
21.080        33
21.090        27
21.100        40
21.110        67
21.120        47
21.130        53
21.140        60
21.150        40
21.160        40
21.170        47
21.180        20
21.190        67
21.200        67
21.210        40
21.220        40
21.230        33
21.240        93
21.250        80
21.260        80
21.270        27
21.280        40
21.290        47
21.300        67
21.310        33
21.320        53
21.330        73
21.340        60
21.350        13
21.360        40
21.370        47
21.380        53
21.390        33
21.400        27
21.410        47
21.420        60
21.430        53
21.440        53
21.450        20
21.460        67
21.470        27
21.480        20
21.490        33
21.500        40
21.510        13
21.520        40
21.530        60
21.540        33
21.550        40
21.560        60
21.570        33
21.580        33
21.590        47
21.600        47
21.610        33
21.620        47
21.630        67
21.640        33
21.650        20
21.660        13
21.670        33
21.680        27
21.690        60
21.700        33
21.710        27
21.720        87
21.730        33
21.740        40
21.750        47
21.760        67
21.770        47
21.780        33
21.790        20
21.800        40
21.810        53
21.820        20
21.830        27
21.840        47
21.850        40
21.860        20
21.870        73
21.880        27
21.890        33
21.900        33
21.910        33
21.920        53
21.930        53
21.940        47
21.950        47
21.960        60
21.970        87
21.980        27
21.990        33
22.000        53
22.010        33
22.020        33
22.030        27
22.040        73
22.050        27
22.060        67
22.070        40
22.080        40
22.090        20
22.100        20
22.110        20
22.120        53
22.130        53
22.140        53
22.150        40
22.160        87
22.170       100
22.180        47
22.190        53
22.200        40
22.210        40
22.220        40
22.230        33
22.240        60
22.250        80
22.260        27
22.270        47
22.280        80
22.290        40
22.300        53
22.310        47
22.320        87
22.330        33
22.340        87
22.350        40
22.360        40
22.370        80
22.380        53
22.390        53
22.400        60
22.410        80
22.420        60
22.430        67
22.440       113
22.450       113
22.460        73
22.470       147
22.480       107
22.490       147
22.500       173
22.510       167
22.520       200
22.530       220
22.540       173
22.550       260
22.560       173
22.570       240
22.580       333
22.590       227
22.600       293
22.610       320
22.620       413
22.630       446
22.640       407
22.650       413
22.660       526
22.670       506
22.680       466
22.690       526
22.700       513
22.710       533
22.720       560
22.730       500
22.740       520
22.750       466
22.760       540
22.770       400
22.780       373
22.790       307
22.800       340
22.810       400
22.820       340
22.830       180
22.840       213
22.850       253
22.860       207
22.870       193
22.880       213
22.890       147
22.900       180
22.910       160
22.920       107
22.930       140
22.940       193
22.950        93
22.960        93
22.970       107
22.980       120
22.990        87
23.000        73
23.010       100
23.020        67
23.030        60
23.040        87
23.050        47
23.060        73
23.070        60
23.080        80
23.090        60
23.100        73
23.110        80
23.120        33
23.130        87
23.140        67
23.150        73
23.160        67
23.170        60
23.180        60
23.190        60
23.200        53
23.210        73
23.220        47
23.230        73
23.240        60
23.250        47
23.260        33
23.270        73
23.280        33
23.290        67
23.300        33
23.310        67
23.320        60
23.330        60
23.340        47
23.350        73
23.360        33
23.370        27
23.380        87
23.390        53
23.400        47
23.410         7
23.420        60
23.430        40
23.440        60
23.450        33
23.460        40
23.470        33
23.480        20
23.490        93
23.500        60
23.510        47
23.520        53
23.530        40
23.540        20
23.550        53
23.560        40
23.570        33
23.580        53
23.590        53
23.600        60
23.610        73
23.620        87
23.630        33
23.640        53
23.650        47
23.660        33
23.670        40
23.680        60
23.690        67
23.700        33
23.710        73
23.720        40
23.730        33
23.740        53
23.750        53
23.760        47
23.770        27
23.780        33
23.790        53
23.800        47
23.810        47
23.820        53
23.830        60
23.840        33
23.850        20
23.860        33
23.870        27
23.880        20
23.890        33
23.900        73
23.910        80
23.920        47
23.930        73
23.940        40
23.950        20
23.960        27
23.970        40
23.980        13
23.990        40
24.000        60
24.010        27
24.020        27
24.030        47
24.040        47
24.050        20
24.060        33
24.070        47
24.080        47
24.090        40
24.100        40
24.110        47
24.120        20
24.130        27
24.140        13
24.150        53
24.160        20
24.170        27
24.180        53
24.190        60
24.200        47
24.210        40
24.220        60
24.230        20
24.240        67
24.250        33
24.260        27
24.270        80
24.280        33
24.290        53
24.300        27
24.310        33
24.320        53
24.330        60
24.340        60
24.350        40
24.360        67
24.370        27
24.380        40
24.390        47
24.400        53
24.410        53
24.420        47
24.430        33
24.440        53
24.450        40
24.460        40
24.470        47
24.480        27
24.490        60
24.500        40
24.510        33
24.520        33
24.530        33
24.540        40
24.550        40
24.560        67
24.570        40
24.580        27
24.590        53
24.600        93
24.610        20
24.620        60
24.630        33
24.640        40
24.650        53
24.660        27
24.670        47
24.680        53
24.690        20
24.700        47
24.710        60
24.720        20
24.730        47
24.740        33
24.750        60
24.760        40
24.770        67
24.780        47
24.790        20
24.800        33
24.810        20
24.820        33
24.830        53
24.840        20
24.850        53
24.860        60
24.870        20
24.880        60
24.890        40
24.900        20
24.910        20
24.920        47
24.930        47
24.940        20
24.950        27
24.960        33
24.970        53
24.980        27
24.990        40
25.000        33
25.010        53
25.020        67
25.030        27
25.040        67
25.050        73
25.060        27
25.070        47
25.080        13
25.090        60
25.100        40
25.110        40
25.120        33
25.130        40
25.140        40
25.150        40
25.160        60
25.170        53
25.180        33
25.190        53
25.200        20
25.210        20
25.220        33
25.230        80
25.240        47
25.250        67
25.260        40
25.270        47
25.280        27
25.290        33
25.300        73
25.310        27
25.320        40
25.330         7
25.340        40
25.350        13
25.360        13
25.370        53
25.380        33
25.390        47
25.400        33
25.410        40
25.420        27
25.430        40
25.440        40
25.450        27
25.460        67
25.470        53
25.480        20
25.490        47
25.500        47
25.510        13
25.520        47
25.530        33
25.540        60
25.550        47
25.560        53
25.570        47
25.580        20
25.590        27
25.600        13
25.610         7
25.620        60
25.630        40
25.640        73
25.650        53
25.660        27
25.670        20
25.680         7
25.690        53
25.700        40
25.710        13
25.720        27
25.730        27
25.740        47
25.750        53
25.760        13
25.770        33
25.780        27
25.790        20
25.800        47
25.810        60
25.820        73
25.830        60
25.840        27
25.850        47
25.860        47
25.870        47
25.880        27
25.890        40
25.900        27
25.910        60
25.920        27
25.930         7
25.940        33
25.950        53
25.960        27
25.970        40
25.980        80
25.990        47
26.000        40
26.010        27
26.020        27
26.030        40
26.040        33
26.050        47
26.060        27
26.070        27
26.080        27
26.090        40
26.100        27
26.110        53
26.120        20
26.130        47
26.140        27
26.150        27
26.160        33
26.170        40
26.180        27
26.190        53
26.200        33
26.210        40
26.220        60
26.230        33
26.240        47
26.250        47
26.260        40
26.270        60
26.280        33
26.290        47
26.300        40
26.310         7
26.320        20
26.330        47
26.340        47
26.350        27
26.360        47
26.370        47
26.380        27
26.390        40
26.400         0
26.410        47
26.420        33
26.430        53
26.440        53
26.450        53
26.460        33
26.470        67
26.480        33
26.490         0
26.500        60
26.510        27
26.520        67
26.530        33
26.540        33
26.550        60
26.560        27
26.570        40
26.580        27
26.590        40
26.600        20
26.610        33
26.620        47
26.630        53
26.640        47
26.650        20
26.660        27
26.670        40
26.680        20
26.690        27
26.700        20
26.710        93
26.720        27
26.730        40
26.740        20
26.750        33
26.760         7
26.770        40
26.780        20
26.790        60
26.800         7
26.810        33
26.820        67
26.830        27
26.840        47
26.850        40
26.860        33
26.870        33
26.880        27
26.890        47
26.900        40
26.910         7
26.920        27
26.930        53
26.940        40
26.950        40
26.960        40
26.970         7
26.980        47
26.990        13
27.000        20
27.010        33
27.020        33
27.030        33
27.040        27
27.050        27
27.060        33
27.070        40
27.080        20
27.090        27
27.100        27
27.110        33
27.120        20
27.130        67
27.140        20
27.150        40
27.160        47
27.170        60
27.180        33
27.190         7
27.200        20
27.210        27
27.220        33
27.230        33
27.240        27
27.250        53
27.260        20
27.270        33
27.280        20
27.290        33
27.300        47
27.310        33
27.320        20
27.330        20
27.340        33
27.350        20
27.360        20
27.370        13
27.380        33
27.390        27
27.400        33
27.410        20
27.420        53
27.430        20
27.440        20
27.450        47
27.460        27
27.470        47
27.480        53
27.490        33
27.500        27
27.510        40
27.520        47
27.530        53
27.540        13
27.550        33
27.560        27
27.570        33
27.580        13
27.590        40
27.600        20
27.610        47
27.620        33
27.630         0
27.640        20
27.650        40
27.660        40
27.670        27
27.680        47
27.690        53
27.700        33
27.710        33
27.720         7
27.730        40
27.740        33
27.750        13
27.760        20
27.770        27
27.780        20
27.790        33
27.800        53
27.810        13
27.820        40
27.830        13
27.840        33
27.850        40
27.860        27
27.870        40
27.880        27
27.890        27
27.900        40
27.910        67
27.920         0
27.930        33
27.940        33
27.950        40
27.960        20
27.970        27
27.980        13
27.990        40
28.000        67
28.010        13
28.020        80
28.030        20
28.040        60
28.050        27
28.060        13
28.070        27
28.080        13
28.090        33
28.100        47
28.110        47
28.120        13
28.130        67
28.140        20
28.150        33
28.160        33
28.170        27
28.180        13
28.190        27
28.200        40
28.210        40
28.220        13
28.230        53
28.240        60
28.250        53
28.260        47
28.270        33
28.280        53
28.290        40
28.300        20
28.310        40
28.320        27
28.330        40
28.340        33
28.350        40
28.360        33
28.370        13
28.380        47
28.390        47
28.400        40
28.410        27
28.420        53
28.430        40
28.440        20
28.450        53
28.460        33
28.470        73
28.480        53
28.490        40
28.500        13
28.510        53
28.520        27
28.530        40
28.540        13
28.550        33
28.560        33
28.570        27
28.580        27
28.590        20
28.600        20
28.610        20
28.620        27
28.630        20
28.640        47
28.650        40
28.660        33
28.670        47
28.680        27
28.690        53
28.700        40
28.710        33
28.720        40
28.730        33
28.740        27
28.750        20
28.760        27
28.770        60
28.780        20
28.790        33
28.800        33
28.810        20
28.820        33
28.830        27
28.840        47
28.850        27
28.860        33
28.870        60
28.880        13
28.890        27
28.900        33
28.910        33
28.920         7
28.930        33
28.940        13
28.950        40
28.960        20
28.970        40
28.980        13
28.990         7
29.000        13
29.010        47
29.020        40
29.030        33
29.040         7
29.050        40
29.060        40
29.070        47
29.080        33
29.090        33
29.100        60
29.110        40
29.120        20
29.130        33
29.140        53
29.150        27
29.160        60
29.170        40
29.180        60
29.190        47
29.200        47
29.210        13
29.220        47
29.230        60
29.240        47
29.250        40
29.260        33
29.270        20
29.280        33
29.290        13
29.300        27
29.310        27
29.320        40
29.330        47
29.340        33
29.350        33
29.360        53
29.370        47
29.380        13
29.390        20
29.400        33
29.410        20
29.420        47
29.430        33
29.440        13
29.450        27
29.460        20
29.470        33
29.480        33
29.490        33
29.500        13
29.510        27
29.520        40
29.530        33
29.540         7
29.550        13
29.560        67
29.570        40
29.580        20
29.590        53
29.600        40
29.610        47
29.620        27
29.630        60
29.640        33
29.650        47
29.660        13
29.670        33
29.680        13
29.690        33
29.700        60
29.710        27
29.720        27
29.730        53
29.740        40
29.750        20
29.760        27
29.770        13
29.780        40
29.790        13
29.800        47
29.810        20
29.820        53
29.830        40
29.840        40
29.850        33
29.860        27
29.870        13
29.880        20
29.890        40
29.900        40
29.910        20
29.920        13
29.930        40
29.940        27
29.950        33
29.960        20
29.970        33
29.980        47
29.990        20
30.000        27
30.010        27
30.020        13
30.030        47
30.040        27
30.050         7
30.060        20
30.070        27
30.080        20
30.090        33
30.100        40
30.110        47
30.120        20
30.130        27
30.140         7
30.150        27
30.160        20
30.170        40
30.180        33
30.190        20
30.200        20
30.210        27
30.220        33
30.230        47
30.240        40
30.250        33
30.260        40
30.270        20
30.280        27
30.290        27
30.300        40
30.310        27
30.320        40
30.330        27
30.340        40
30.350        20
30.360        53
30.370        47
30.380        40
30.390        40
30.400        13
30.410        20
30.420        27
30.430        33
30.440        13
30.450        40
30.460        33
30.470        33
30.480        53
30.490        33
30.500        20
30.510        27
30.520        40
30.530        47
30.540        47
30.550        20
30.560        20
30.570        40
30.580        33
30.590        67
30.600        40
30.610        47
30.620        13
30.630        33
30.640        27
30.650        13
30.660        20
30.670        40
30.680        13
30.690        27
30.700        13
30.710        13
30.720        20
30.730        27
30.740        20
30.750        27
30.760        47
30.770        27
30.780        13
30.790        27
30.800        20
30.810        13
30.820        27
30.830        13
30.840        80
30.850        27
30.860        13
30.870        20
30.880        33
30.890        20
30.900        27
30.910         7
30.920        33
30.930        33
30.940        33
30.950        40
30.960        40
30.970        40
30.980         7
30.990        27
31.000        27
31.010        20
31.020        33
31.030        33
31.040        47
31.050        27
31.060        20
31.070        20
31.080        27
31.090        20
31.100        20
31.110         7
31.120        27
31.130        27
31.140        27
31.150        33
31.160        27
31.170        20
31.180        27
31.190        53
31.200        33
31.210        53
31.220        40
31.230        33
31.240        20
31.250        13
31.260        20
31.270        33
31.280        40
31.290        33
31.300        33
31.310        47
31.320        33
31.330        20
31.340        40
31.350        60
31.360        13
31.370        27
31.380        13
31.390        40
31.400        60
31.410        40
31.420        20
31.430        33
31.440         7
31.450        27
31.460        60
31.470         7
31.480        20
31.490        20
31.500        27
31.510        40
31.520        13
31.530        27
31.540        40
31.550        27
31.560        20
31.570        27
31.580        27
31.590        27
31.600         7
31.610        33
31.620        20
31.630        33
31.640        33
31.650        47
31.660        40
31.670         7
31.680        20
31.690        40
31.700        33
31.710        33
31.720        20
31.730         0
31.740        33
31.750        20
31.760        20
31.770        40
31.780        33
31.790        67
31.800        27
31.810        53
31.820        20
31.830        40
31.840        47
31.850        13
31.860        27
31.870        47
31.880        13
31.890        60
31.900        60
31.910        47
31.920        73
31.930        33
31.940        13
31.950        40
31.960        40
31.970        27
31.980        53
31.990        33
32.000        20
32.010        73
32.020        33
32.030        60
32.040        47
32.050        67
32.060        53
32.070        73
32.080        93
32.090        60
32.100        80
32.110        73
32.120       120
32.130        80
32.140        67
32.150       193
32.160        80
32.170        93
32.180       127
32.190       120
32.200       133
32.210       173
32.220       160
32.230       193
32.240       173
32.250       240
32.260       180
32.270       173
32.280       233
32.290       267
32.300       253
32.310       293
32.320       320
32.330       347
32.340       313
32.350       387
32.360       367
32.370       413
32.380       440
32.390       367
32.400       560
32.410       420
32.420       540
32.430       440
32.440       466
32.450       460
32.460       493
32.470       466
32.480       407
32.490       433
32.500       407
32.510       333
32.520       393
32.530       440
32.540       340
32.550       353
32.560       273
32.570       187
32.580       160
32.590       267
32.600       193
32.610       213
32.620        80
32.630       200
32.640       127
32.650       153
32.660       120
32.670       120
32.680        87
32.690       100
32.700        93
32.710        67
32.720        60
32.730        87
32.740        27
32.750        67
32.760       100
32.770        13
32.780        40
32.790        80
32.800        53
32.810        47
32.820        60
32.830        60
32.840        27
32.850        40
32.860        47
32.870        47
32.880        33
32.890        40
32.900        27
32.910        40
32.920        20
32.930        20
32.940        27
32.950        40
32.960        47
32.970        53
32.980        40
32.990        47
33.000        13
33.010        40
33.020        33
33.030        40
33.040        27
33.050        53
33.060        27
33.070         7
33.080        40
33.090        27
33.100        13
33.110        47
33.120        33
33.130        33
33.140        27
33.150        20
33.160        33
33.170        27
33.180         7
33.190        20
33.200        20
33.210         7
33.220        33
33.230         7
33.240        40
33.250        20
33.260        13
33.270        20
33.280        33
33.290        47
33.300        13
33.310        53
33.320        13
33.330        27
33.340        33
33.350        40
33.360         7
33.370        33
33.380        13
33.390        13
33.400        20
33.410        40
33.420        47
33.430        33
33.440        20
33.450        27
33.460        33
33.470        13
33.480        27
33.490        33
33.500        40
33.510        40
33.520        13
33.530        47
33.540        13
33.550        40
33.560         7
33.570        27
33.580        27
33.590        33
33.600         7
33.610        33
33.620        33
33.630        40
33.640         7
33.650        40
33.660        20
33.670        27
33.680        47
33.690        27
33.700        20
33.710        20
33.720        20
33.730        27
33.740         7
33.750        20
33.760        40
33.770        13
33.780        20
33.790        47
33.800        33
33.810        20
33.820        13
33.830         7
33.840         7
33.850        13
33.860        53
33.870        27
33.880        13
33.890        53
33.900        40
33.910        33
33.920        20
33.930         0
33.940        40
33.950        33
33.960        27
33.970        27
33.980        40
33.990        27
34.000        20
34.010        27
34.020        13
34.030        33
34.040        27
34.050        20
34.060         7
34.070        40
34.080         7
34.090        27
34.100        33
34.110        27
34.120        13
34.130        20
34.140        47
34.150        20
34.160        20
34.170        13
34.180         7
34.190        20
34.200        47
34.210        13
34.220        33
34.230        13
34.240        20
34.250        20
34.260        33
34.270        20
34.280        27
34.290         0
34.300        33
34.310        40
34.320        33
34.330        27
34.340        27
34.350        20
34.360        13
34.370        20
34.380         7
34.390        13
34.400        40
34.410        20
34.420        40
34.430        13
34.440         7
34.450         7
34.460        13
34.470        27
34.480         0
34.490        20
34.500         7
34.510        40
34.520        33
34.530         7
34.540        13
34.550        27
34.560        13
34.570        33
34.580        20
34.590        27
34.600        13
34.610         7
34.620        27
34.630        13
34.640        20
34.650        20
34.660        13
34.670        33
34.680        20
34.690        20
34.700        27
34.710        13
34.720        20
34.730        13
34.740        20
34.750        20
34.760        47
34.770        20
34.780        20
34.790        27
34.800        20
34.810        20
34.820        20
34.830        20
34.840        20
34.850        47
34.860        80
34.870        20
34.880        40
34.890         7
34.900        13
34.910        20
34.920        20
34.930        20
34.940        40
34.950        27
34.960        13
34.970        20
34.980        13
34.990        20
35.000         7
35.010        40
35.020        47
35.030        13
35.040        27
35.050        47
35.060        13
35.070        53
35.080        13
35.090        13
35.100        27
35.110         7
35.120        13
35.130        20
35.140        13
35.150        20
35.160        13
35.170        40
35.180        13
35.190        27
35.200        40
35.210         7
35.220         7
35.230        27
35.240        13
35.250        20
35.260        20
35.270        13
35.280        33
35.290        27
35.300        20
35.310        13
35.320        20
35.330        47
35.340         0
35.350        33
35.360         7
35.370        33
35.380         7
35.390        27
35.400        13
35.410        33
35.420        20
35.430         7
35.440        20
35.450        13
35.460        13
35.470        13
35.480        27
35.490         7
35.500        20
35.510        13
35.520        33
35.530        33
35.540        33
35.550        27
35.560         0
35.570         0
35.580        33
35.590        47
35.600         7
35.610        13
35.620        47
35.630        60
35.640        53
35.650        13
35.660        40
35.670        27
35.680        27
35.690        27
35.700        20
35.710        40
35.720        20
35.730        53
35.740        13
35.750        13
35.760        33
35.770        20
35.780        13
35.790        13
35.800        27
35.810        20
35.820        27
35.830        33
35.840        20
35.850        20
35.860        27
35.870        27
35.880        33
35.890        20
35.900        27
35.910        20
35.920        13
35.930        40
35.940        27
35.950        27
35.960        27
35.970         7
35.980        20
35.990        20
36.000        27
36.010        27
36.020        13
36.030         0
36.040        13
36.050        40
36.060        33
36.070        20
36.080        33
36.090         7
36.100        47
36.110         7
36.120         7
36.130         7
36.140        20
36.150        33
36.160        13
36.170         7
36.180        13
36.190        13
36.200        40
36.210        13
36.220        27
36.230        20
36.240        20
36.250        33
36.260        20
36.270        20
36.280         7
36.290        33
36.300        20
36.310        47
36.320        27
36.330        27
36.340        47
36.350        13
36.360        33
36.370        20
36.380        47
36.390        20
36.400        27
36.410        13
36.420        13
36.430        27
36.440        27
36.450        13
36.460        13
36.470        33
36.480        13
36.490         7
36.500        27
36.510        13
36.520        20
36.530        13
36.540        47
36.550        13
36.560         7
36.570        33
36.580        33
36.590        20
36.600        20
36.610        33
36.620        13
36.630        27
36.640         7
36.650         0
36.660        33
36.670        20
36.680        13
36.690        13
36.700        13
36.710         7
36.720        20
36.730        27
36.740        27
36.750        27
36.760        20
36.770        40
36.780        13
36.790        20
36.800        13
36.810        33
36.820        47
36.830        20
36.840        20
36.850        33
36.860        33
36.870         7
36.880        53
36.890        40
36.900        13
36.910         7
36.920         7
36.930        27
36.940        33
36.950        33
36.960        40
36.970        40
36.980        13
36.990        27
37.000        27
37.010         7
37.020        27
37.030        20
37.040        33
37.050         0
37.060         7
37.070        33
37.080        27
37.090        27
37.100        20
37.110        20
37.120        13
37.130        27
37.140        20
37.150         7
37.160         7
37.170        40
37.180        20
37.190        13
37.200        13
37.210        13
37.220        13
37.230         0
37.240        27
37.250        20
37.260         7
37.270        13
37.280        33
37.290         7
37.300         7
37.310         0
37.320        13
37.330        27
37.340         7
37.350         7
37.360        20
37.370         7
37.380        27
37.390        33
37.400        13
37.410        40
37.420        20
37.430        20
37.440         7
37.450        20
37.460        13
37.470        13
37.480        13
37.490        13
37.500         0
37.510        13
37.520         0
37.530        13
37.540        33
37.550        20
37.560        13
37.570        20
37.580        13
37.590         7
37.600        13
37.610        13
37.620        20
37.630         7
37.640        13
37.650        20
37.660        20
37.670        27
37.680        13
37.690        27
37.700        20
37.710         7
37.720        40
37.730         0
37.740        13
37.750        13
37.760        27
37.770        20
37.780        20
37.790        27
37.800        13
37.810        20
37.820        27
37.830        13
37.840         7
37.850        20
37.860         0
37.870        13
37.880         0
37.890        13
37.900         7
37.910        13
37.920        20
37.930        20
37.940        33
37.950        27
37.960        20
37.970        20
37.980        13
37.990        13
38.000         0
38.010        53
38.020        27
38.030        13
38.040        27
38.050        13
38.060         7
38.070        20
38.080        33
38.090        20
38.100        53
38.110         0
38.120         7
38.130         7
38.140        27
38.150        20
38.160        27
38.170        13
38.180        27
38.190        33
38.200        13
38.210        13
38.220        20
38.230         7
38.240        13
38.250        27
38.260         7
38.270        27
38.280        20
38.290        20
38.300        13
38.310        13
38.320        13
38.330        53
38.340        20
38.350         0
38.360        13
38.370         7
38.380        47
38.390        13
38.400         7
38.410        13
38.420        47
38.430        27
38.440         0
38.450        20
38.460        13
38.470        20
38.480         7
38.490        20
38.500         0
38.510         7
38.520        13
38.530        33
38.540        20
38.550        13
38.560        13
38.570         7
38.580         7
38.590        27
38.600        20
38.610        27
38.620         7
38.630         7
38.640         7
38.650        40
38.660        13
38.670        47
38.680         7
38.690        27
38.700        20
38.710        27
38.720        47
38.730         0
38.740        20
38.750         7
38.760        40
38.770        27
38.780        20
38.790        40
38.800         7
38.810        20
38.820        20
38.830         7
38.840        13
38.850        20
38.860        27
38.870         7
38.880        40
38.890         7
38.900        47
38.910        13
38.920        27
38.930        13
38.940        13
38.950        53
38.960        27
38.970        20
38.980        20
38.990        20
39.000        40
39.010        40
39.020        27
39.030        33
39.040        27
39.050        20
39.060        13
39.070        33
39.080         7
39.090        13
39.100        13
39.110        27
39.120         7
39.130        13
39.140        20
39.150        20
39.160         7
39.170        20
39.180        33
39.190        20
39.200        33
39.210        40
39.220        27
39.230        13
39.240        13
39.250         7
39.260        20
39.270        13
39.280        13
39.290        27
39.300        13
39.310        13
39.320        13
39.330        20
39.340        47
39.350         0
39.360        20
39.370        13
39.380         7
39.390        13
39.400        27
39.410        13
39.420        13
39.430        13
39.440        13
39.450        53
39.460        20
39.470         7
39.480        20
39.490        13
39.500        13
39.510        33
39.520        40
39.530        47
39.540        20
39.550        13
39.560        20
39.570        33
39.580        47
39.590        20
39.600         7
39.610        47
39.620        27
39.630        27
39.640        13
39.650         7
39.660        33
39.670        33
39.680        20
39.690        20
39.700         7
39.710        40
39.720        13
39.730        47
39.740        47
39.750        40
39.760        20
39.770        33
39.780        20
39.790        20
39.800        27
39.810         7
39.820        40
39.830        47
39.840        20
39.850        20
39.860        20
39.870        13
39.880        13
39.890        47
39.900        33
39.910        13
39.920        47
39.930        27
39.940        33
39.950        53
39.960        33
39.970        33
39.980        13
39.990        33
40.000        60
40.010        47
40.020        53
40.030        53
40.040        53
40.050        73
40.060        33
40.070        40
40.080        73
40.090        27
40.100        40
40.110        27
40.120        40
40.130        47
40.140        27
40.150        40
40.160         7
40.170        53
40.180        47
40.190        27
40.200        40
40.210        47
40.220        27
40.230        33
40.240        33
40.250        33
40.260        27
40.270        27
40.280        20
40.290         7
40.300        20
40.310        20
40.320        27
40.330        40
40.340         7
40.350        13
40.360        53
40.370        20
40.380        20
40.390        33
40.400        33
40.410        20
40.420        27
40.430        13
40.440        13
40.450         7
40.460        27
40.470        13
40.480         0
40.490         7
40.500         7
40.510         7
40.520         0
40.530        27
40.540        27
40.550        13
40.560        27
40.570        13
40.580        33
40.590        33
40.600         7
40.610        33
40.620        27
40.630        20
40.640        33
40.650        33
40.660         7
40.670        33
40.680        13
40.690         7
40.700        33
40.710        20
40.720        27
40.730         7
40.740         7
40.750        27
40.760        13
40.770        20
40.780         7
40.790        27
40.800        27
40.810        27
40.820        13
40.830         7
40.840        20
40.850        20
40.860        27
40.870        27
40.880        13
40.890         0
40.900         7
40.910        13
40.920        40
40.930        13
40.940        13
40.950        20
40.960         7
40.970        40
40.980         0
40.990        13
41.000        40
41.010        27
41.020        20
41.030        13
41.040        13
41.050        33
41.060        47
41.070        20
41.080        13
41.090        20
41.100        13
41.110        13
41.120        33
41.130        13
41.140        20
41.150        20
41.160        13
41.170        13
41.180        20
41.190        47
41.200        27
41.210        27
41.220         7
41.230         7
41.240        27
41.250        33
41.260        27
41.270        53
41.280        27
41.290        27
41.300        33
41.310        13
41.320        20
41.330         0
41.340        33
41.350        40
41.360        27
41.370        27
41.380        20
41.390        13
41.400        20
41.410        53
41.420        13
41.430        53
41.440        87
41.450        47
41.460        47
41.470        40
41.480        27
41.490        27
41.500        33
41.510        33
41.520        53
41.530        40
41.540        40
41.550        47
41.560        20
41.570        40
41.580        33
41.590        47
41.600        73
41.610        93
41.620        13
41.630        53
41.640        80
41.650        67
41.660        27
41.670        47
41.680        27
41.690        27
41.700        80
41.710        20
41.720        33
41.730        80
41.740        53
41.750        53
41.760        33
41.770        27
41.780        53
41.790        20
41.800        20
41.810        27
41.820        33
41.830        53
41.840        47
41.850        20
41.860        27
41.870        47
41.880        27
41.890        13
41.900        40
41.910        20
41.920        27
41.930        40
41.940        33
41.950         7
41.960        60
41.970        27
41.980        27
41.990        13
42.000         7
42.010         7
42.020        20
42.030        47
42.040        27
42.050        40
42.060         7
42.070        20
42.080         0
42.090        13
42.100        13
42.110        27
42.120        27
42.130         0
42.140        20
42.150        20
42.160         7
42.170         7
42.180        33
42.190        27
42.200        27
42.210        20
42.220        53
42.230        20
42.240        27
42.250        33
42.260        20
42.270        33
42.280        33
42.290        13
42.300        53
42.310        27
42.320        27
42.330        27
42.340        27
42.350         7
42.360        20
42.370        33
42.380        40
42.390        20
42.400        40
42.410        20
42.420        40
42.430         7
42.440        20
42.450        40
42.460        33
42.470        20
42.480        27
42.490        13
42.500        27
42.510        13
42.520        40
42.530        53
42.540         7
42.550        40
42.560        40
42.570        13
42.580        27
42.590        20
42.600        20
42.610        20
42.620         7
42.630        20
42.640        27
42.650        20
42.660        13
42.670         7
42.680        27
42.690        33
42.700        20
42.710        20
42.720        20
42.730        13
42.740        13
42.750        27
42.760         7
42.770        47
42.780        27
42.790        13
42.800         7
42.810        20
42.820        20
42.830        27
42.840        47
42.850        27
42.860        40
42.870        20
42.880        20
42.890        20
42.900        60
42.910        20
42.920        20
42.930        33
42.940         7
42.950         7
42.960        33
42.970        27
42.980        27
42.990        27
43.000        20
43.010         7
43.020        27
43.030        27
43.040        13
43.050        13
43.060        20
43.070        27
43.080        13
43.090        27
43.100        20
43.110         7
43.120         0
43.130        33
43.140         7
43.150        47
43.160        20
43.170        13
43.180        33
43.190        40
43.200        40
43.210        20
43.220        33
43.230         7
43.240        27
43.250        20
43.260        13
43.270        27
43.280        27
43.290         0
43.300        20
43.310        33
43.320         7
43.330        20
43.340        40
43.350        33
43.360        20
43.370        33
43.380        13
43.390         7
43.400         7
43.410        20
43.420        27
43.430        33
43.440         7
43.450        13
43.460        13
43.470         7
43.480        20
43.490        33
43.500        27
43.510        47
43.520         7
43.530        13
43.540        13
43.550        33
43.560         7
43.570        53
43.580        33
43.590        27
43.600        27
43.610        40
43.620        40
43.630        20
43.640        20
43.650        13
43.660        20
43.670        20
43.680        20
43.690        33
43.700         0
43.710        13
43.720        13
43.730        20
43.740        33
43.750        27
43.760        40
43.770         7
43.780        20
43.790         7
43.800        20
43.810        47
43.820        20
43.830        33
43.840        20
43.850        40
43.860        20
43.870         7
43.880        13
43.890        27
43.900        20
43.910         7
43.920        53
43.930        27
43.940         7
43.950        27
43.960        60
43.970        27
43.980        47
43.990        27
44.000        27
44.010         7
44.020        13
44.030        20
44.040        13
44.050         7
44.060        27
44.070        40
44.080        20
44.090        40
44.100        33
44.110        13
44.120        13
44.130        20
44.140        27
44.150        47
44.160        13
44.170        27
44.180        47
44.190        20
44.200        20
44.210        20
44.220         7
44.230        27
44.240        40
44.250        53
44.260        27
44.270         7
44.280        20
44.290        27
44.300        53
44.310        33
44.320        33
44.330        53
44.340        20
44.350        53
44.360        20
44.370        47
44.380        40
44.390        20
44.400        33
44.410        13
44.420        33
44.430        53
44.440        33
44.450        20
44.460        20
44.470        27
44.480        33
44.490        27
44.500        27
44.510        20
44.520        40
44.530        27
44.540        27
44.550        80
44.560        40
44.570        33
44.580        53
44.590        53
44.600        93
44.610        40
44.620        33
44.630        53
44.640        60
44.650        13
44.660        73
44.670        80
44.680        20
44.690        53
44.700        87
44.710        73
44.720        60
44.730        40
44.740        60
44.750        47
44.760        47
44.770        67
44.780        60
44.790        93
44.800        67
44.810       107
44.820        73
44.830        60
44.840        40
44.850        67
44.860       107
44.870        87
44.880        60
44.890        53
44.900        67
44.910        87
44.920        73
44.930        47
44.940        80
44.950       113
44.960        40
44.970        80
44.980        67
44.990        73
45.000       107
45.010        60
45.020        87
45.030        67
45.040        93
45.050       100
45.060        73
45.070        87
45.080       127
45.090        73
45.100       107
45.110       133
45.120       113
45.130       107
45.140       100
45.150       127
45.160       120
45.170        80
45.180        93
45.190        93
45.200       113
45.210        93
45.220        93
45.230       140
45.240       100
45.250       140
45.260       147
45.270       120
45.280       113
45.290       120
45.300       133
45.310       120
45.320       153
45.330       140
45.340       147
45.350       113
45.360       133
45.370       153
45.380       180
45.390       160
45.400       140
45.410       153
45.420        93
45.430       100
45.440       107
45.450       140
45.460       173
45.470       113
45.480       153
45.490       140
45.500       140
45.510       167
45.520       200
45.530       187
45.540       133
45.550       233
45.560       187
45.570       167
45.580       233
45.590       213
45.600       220
45.610       253
45.620       253
45.630       340
45.640       233
45.650       247
45.660       333
45.670       273
45.680       287
45.690       313
45.700       360
45.710       307
45.720       327
45.730       353
45.740       267
45.750       373
45.760       360
45.770       453
45.780       373
45.790       506
45.800       446
45.810       466
45.820       473
45.830       740
45.840       473
45.850       680
45.860       686
45.870       726
45.880       840
45.890       773
45.900       860
45.910       886
45.920       760
45.930      1053
45.940      1173
45.950      1093
45.960      1140
45.970      1266
45.980      1186
45.990      1413
46.000      1459
46.010      1426
46.020      1613
46.030      1599
46.040      1833
46.050      2146
46.060      1899
46.070      2013
46.080      2006
46.090      2412
46.100      2512
46.110      2606
46.120      2746
46.130      3032
46.140      2979
46.150      3019
46.160      3425
46.170      3485
46.180      3918
46.190      3752
46.200      3745
46.210      4185
46.220      4025
46.230      4418
46.240      4572
46.250      4758
46.260      4911
46.270      5025
46.280      5511
46.290      5558
46.300      5584
46.310      5558
46.320      5878
46.330      6058
46.340      5691
46.350      5751
46.360      5391
46.370      5524
46.380      5638
46.390      5564
46.400      5385
46.410      5358
46.420      5158
46.430      5365
46.440      5458
46.450      5125
46.460      5218
46.470      5205
46.480      4838
46.490      4445
46.500      4452
46.510      4345
46.520      3972
46.530      4265
46.540      4218
46.550      3938
46.560      3925
46.570      3499
46.580      3425
46.590      3025
46.600      2965
46.610      2739
46.620      2779
46.630      2632
46.640      2459
46.650      2372
46.660      2479
46.670      2226
46.680      1906
46.690      1873
46.700      1826
46.710      1919
46.720      1499
46.730      1406
46.740      1519
46.750      1459
46.760      1486
46.770      1166
46.780      1153
46.790      1160
46.800      1126
46.810       893
46.820       846
46.830      1053
46.840       880
46.850       753
46.860       826
46.870       793
46.880       733
46.890       753
46.900       660
46.910       546
46.920       720
46.930       700
46.940       533
46.950       560
46.960       540
46.970       400
46.980       400
46.990       433
47.000       393
47.010       340
47.020       413
47.030       387
47.040       440
47.050       426
47.060       393
47.070       273
47.080       287
47.090       287
47.100       340
47.110       347
47.120       327
47.130       327
47.140       300
47.150       313
47.160       260
47.170       260
47.180       253
47.190       300
47.200       240
47.210       273
47.220       233
47.230       247
47.240       207
47.250       153
47.260       167
47.270       240
47.280       167
47.290       207
47.300       200
47.310       180
47.320       187
47.330       160
47.340       160
47.350       153
47.360       200
47.370       140
47.380       180
47.390       153
47.400       120
47.410       113
47.420       153
47.430       187
47.440       147
47.450       180
47.460       140
47.470       140
47.480       153
47.490        93
47.500       133
47.510       100
47.520       120
47.530       140
47.540       140
47.550       153
47.560        80
47.570        80
47.580       127
47.590       127
47.600        87
47.610       147
47.620        87
47.630       127
47.640       160
47.650       127
47.660        80
47.670        67
47.680        93
47.690       100
47.700        67
47.710        40
47.720       113
47.730       107
47.740        80
47.750       133
47.760        53
47.770       127
47.780        87
47.790        87
47.800        93
47.810       107
47.820        87
47.830       133
47.840       107
47.850       113
47.860        67
47.870        87
47.880        40
47.890        87
47.900        73
47.910        80
47.920        73
47.930        33
47.940        67
47.950        73
47.960        60
47.970        80
47.980        47
47.990        47
48.000        80
48.010        67
48.020        53
48.030        53
48.040        53
48.050        33
48.060        87
48.070        40
48.080        60
48.090       100
48.100        87
48.110        87
48.120        47
48.130       107
48.140        47
48.150        53
48.160        73
48.170        53
48.180        47
48.190        80
48.200        67
48.210        33
48.220        47
48.230        47
48.240        87
48.250        60
48.260        73
48.270        27
48.280        47
48.290        60
48.300        53
48.310       100
48.320        47
48.330        87
48.340        53
48.350        53
48.360        27
48.370       107
48.380        80
48.390        67
48.400        87
48.410        53
48.420        73
48.430        80
48.440        20
48.450        53
48.460        67
48.470       100
48.480        73
48.490        67
48.500        67
48.510        80
48.520        60
48.530        33
48.540        13
48.550        53
48.560        33
48.570        47
48.580        33
48.590        40
48.600        53
48.610        40
48.620        60
48.630        53
48.640       100
48.650        33
48.660        47
48.670        47
48.680        60
48.690        40
48.700        53
48.710        67
48.720        40
48.730        67
48.740        60
48.750        93
48.760        47
48.770        33
48.780        47
48.790        27
48.800        53
48.810        40
48.820        87
48.830        80
48.840        53
48.850        40
48.860        33
48.870        53
48.880        47
48.890        80
48.900        73
48.910        33
48.920        60
48.930        33
48.940        53
48.950        40
48.960        27
48.970        27
48.980        40
48.990        60
49.000        40
49.010        40
49.020        20
49.030        40
49.040        13
49.050        60
49.060        33
49.070        47
49.080        40
49.090        40
49.100        20
49.110        40
49.120        40
49.130        80
49.140        47
49.150        67
49.160        47
49.170        40
49.180        27
49.190        20
49.200        40
49.210        40
49.220        33
49.230        53
49.240        20
49.250        40
49.260        27
49.270        27
49.280        60
49.290        60
49.300        40
49.310        53
49.320        33
49.330        33
49.340        40
49.350        40
49.360        80
49.370        33
49.380        47
49.390        53
49.400        53
49.410        53
49.420        40
49.430        27
49.440        47
49.450        53
49.460        33
49.470        40
49.480        53
49.490        13
49.500        60
49.510        27
49.520        27
49.530        47
49.540        47
49.550        53
49.560        53
49.570        53
49.580        40
49.590        33
49.600        53
49.610        80
49.620        67
49.630        40
49.640        73
49.650        40
49.660        47
49.670        33
49.680        13
49.690        60
49.700        27
49.710        53
49.720        47
49.730        47
49.740        27
49.750        33
49.760        53
49.770        47
49.780        47
49.790         7
49.800        33
49.810        40
49.820        60
49.830        33
49.840        73
49.850        47
49.860        73
49.870        53
49.880        60
49.890        47
49.900        27
49.910        67
49.920        60
49.930        53
49.940        27
49.950        47
49.960        27
49.970        27
49.980        33
49.990        53
50.000        60
50.010        40
50.020        60
50.030        33
50.040        47
50.050        53
50.060        60
50.070        20
50.080        47
50.090        47
50.100        33
50.110        20
50.120        40
50.130        73
50.140        27
50.150        40
50.160        33
50.170        20
50.180        40
50.190        40
50.200        27
50.210        33
50.220        47
50.230        20
50.240        40
50.250        33
50.260        33
50.270        47
50.280        33
50.290        13
50.300        33
50.310        40
50.320        60
50.330        20
50.340        47
50.350        27
50.360        40
50.370        40
50.380        27
50.390        40
50.400        13
50.410        27
50.420        33
50.430        27
50.440        33
50.450        33
50.460        33
50.470        33
50.480        60
50.490        13
50.500        60
50.510        13
50.520        47
50.530        53
50.540        47
50.550        47
50.560        47
50.570        40
50.580        47
50.590        53
50.600        47
50.610        60
50.620        53
50.630        47
50.640        33
50.650        20
50.660        27
50.670        13
50.680        47
50.690        27
50.700        87
50.710        40
50.720        47
50.730        40
50.740        40
50.750        20
50.760        47
50.770        67
50.780        20
50.790        60
50.800        40
50.810        33
50.820        40
50.830        40
50.840        33
50.850        53
50.860        40
50.870        40
50.880        73
50.890        27
50.900        47
50.910        47
50.920        40
50.930        67
50.940        20
50.950        27
50.960        40
50.970        40
50.980        47
50.990        40
51.000        47
51.010        27
51.020        27
51.030        27
51.040        13
51.050        47
51.060        47
51.070        20
51.080        20
51.090        47
51.100        47
51.110        40
51.120        33
51.130        47
51.140        33
51.150        73
51.160        47
51.170        27
51.180        33
51.190        27
51.200        33
51.210        20
51.220        27
51.230        60
51.240        33
51.250        47
51.260        60
51.270        27
51.280        20
51.290        13
51.300        40
51.310        20
51.320        20
51.330        20
51.340        40
51.350        33
51.360        47
51.370        40
51.380        20
51.390        40
51.400        40
51.410        33
51.420        67
51.430        20
51.440        27
51.450        40
51.460        33
51.470        33
51.480        40
51.490        27
51.500        27
51.510        47
51.520        47
51.530        33
51.540        20
51.550        33
51.560        27
51.570        33
51.580        47
51.590        27
51.600        40
51.610        33
51.620        40
51.630        40
51.640        47
51.650        53
51.660        47
51.670        20
51.680        53
51.690        27
51.700        13
51.710        53
51.720        13
51.730        40
51.740        47
51.750        53
51.760        47
51.770        20
51.780        47
51.790        27
51.800        40
51.810        27
51.820        33
51.830        53
51.840        73
51.850        47
51.860        33
51.870        47
51.880        47
51.890        67
51.900        47
51.910        33
51.920        60
51.930        67
51.940        47
51.950        27
51.960        27
51.970        40
51.980        27
51.990         7
52.000        40
52.010        60
52.020        40
52.030        20
52.040        60
52.050        40
52.060        53
52.070        67
52.080        40
52.090        33
52.100        33
52.110        40
52.120        40
52.130        47
52.140        53
52.150        27
52.160        33
52.170        67
52.180        33
52.190        33
52.200        80
52.210        40
52.220        47
52.230        20
52.240        40
52.250        33
52.260        33
52.270        40
52.280        47
52.290        20
52.300        53
52.310        47
52.320        40
52.330        33
52.340        33
52.350        20
52.360        33
52.370        53
52.380        47
52.390        53
52.400        47
52.410        27
52.420        53
52.430        20
52.440        73
52.450        47
52.460        67
52.470        33
52.480        33
52.490        27
52.500        40
52.510        73
52.520        73
52.530        53
52.540        40
52.550        53
52.560        33
52.570        87
52.580        67
52.590        27
52.600        53
52.610        33
52.620        40
52.630        53
52.640        33
52.650        60
52.660        33
52.670        47
52.680        53
52.690        20
52.700        53
52.710       100
52.720        27
52.730        33
52.740        27
52.750        60
52.760        53
52.770        60
52.780        33
52.790        73
52.800        33
52.810        67
52.820        73
52.830        47
52.840        73
52.850        40
52.860        53
52.870        73
52.880        33
52.890        27
52.900        33
52.910        40
52.920        27
52.930        60
52.940        60
52.950        33
52.960        60
52.970        53
52.980        53
52.990        33
53.000        53
53.010        60
53.020        40
53.030        27
53.040        47
53.050        40
53.060        47
53.070        53
53.080        20
53.090        27
53.100        47
53.110        53
53.120        20
53.130        53
53.140        67
53.150        47
53.160        20
53.170        40
53.180        13
53.190        40
53.200        67
53.210        47
53.220        47
53.230        40
53.240        20
53.250        40
53.260        47
53.270        60
53.280        47
53.290        13
53.300        47
53.310        40
53.320        33
53.330        27
53.340        27
53.350        33
53.360        33
53.370        27
53.380        47
53.390        53
53.400        47
53.410        33
53.420        20
53.430        40
53.440        53
53.450        47
53.460        33
53.470        40
53.480        13
53.490        33
53.500        33
53.510        67
53.520        53
53.530        40
53.540        13
53.550        27
53.560        67
53.570        53
53.580        40
53.590        60
53.600        33
53.610         7
53.620        47
53.630        33
53.640        47
53.650        40
53.660        27
53.670        20
53.680        27
53.690        33
53.700        27
53.710        40
53.720        20
53.730        20
53.740        47
53.750        33
53.760        53
53.770         0
53.780        33
53.790        33
53.800        60
53.810        33
53.820        33
53.830        33
53.840        13
53.850        33
53.860        40
53.870        27
53.880         7
53.890        60
53.900        33
53.910        13
53.920        40
53.930        40
53.940         7
53.950        40
53.960        27
53.970        33
53.980        27
53.990        53
54.000        53
54.010        33
54.020        13
54.030        53
54.040        27
54.050        33
54.060        13
54.070        27
54.080        20
54.090        20
54.100        20
54.110        13
54.120        33
54.130        40
54.140        60
54.150        40
54.160        27
54.170        87
54.180        40
54.190        27
54.200        53
54.210        47
54.220        47
54.230        47
54.240        53
54.250        40
54.260         7
54.270        33
54.280        27
54.290        40
54.300        33
54.310        27
54.320        20
54.330        20
54.340        27
54.350        13
54.360        47
54.370        47
54.380        20
54.390        47
54.400        20
54.410        13
54.420        47
54.430        33
54.440        33
54.450         7
54.460        20
54.470        27
54.480        13
54.490        53
54.500        33
54.510        13
54.520        33
54.530        47
54.540        20
54.550        27
54.560        67
54.570        60
54.580        27
54.590        27
54.600        13
54.610        27
54.620        47
54.630         7
54.640       100
54.650        27
54.660        27
54.670        20
54.680        60
54.690         0
54.700        27
54.710        13
54.720        67
54.730        40
54.740        33
54.750        67
54.760        47
54.770        60
54.780        27
54.790        27
54.800         7
54.810        40
54.820        33
54.830        47
54.840        47
54.850        47
54.860        47
54.870        33
54.880        33
54.890        40
54.900        20
54.910         7
54.920         7
54.930        53
54.940        27
54.950        27
54.960        13
54.970        33
54.980        20
54.990        53
55.000        27
55.010        53
55.020        13
55.030        20
55.040        20
55.050        27
55.060         7
55.070        40
55.080        47
55.090         7
55.100        20
55.110         7
55.120         7
55.130        20
55.140        27
55.150         7
55.160        27
55.170        27
55.180        33
55.190        13
55.200        33
55.210        20
55.220        13
55.230        33
55.240        27
55.250        33
55.260        13
55.270        33
55.280        20
55.290        33
55.300        13
55.310        20
55.320        27
55.330        20
55.340        27
55.350        20
55.360         7
55.370        33
55.380        33
55.390        13
55.400        33
55.410        20
55.420        13
55.430        13
55.440        27
55.450         7
55.460        27
55.470        20
55.480        40
55.490         7
55.500        47
55.510        20
55.520        27
55.530        33
55.540        40
55.550        27
55.560        20
55.570        27
55.580        13
55.590         0
55.600        20
55.610        47
55.620        27
55.630        27
55.640        53
55.650        20
55.660        13
55.670        13
55.680        20
55.690        27
55.700        40
55.710         7
55.720        20
55.730        27
55.740        47
55.750         0
55.760         7
55.770        40
55.780        40
55.790        20
55.800        20
55.810        27
55.820        20
55.830        27
55.840        27
55.850        20
55.860        20
55.870        40
55.880        33
55.890         7
55.900        53
55.910        13
55.920        20
55.930        60
55.940         7
55.950        20
55.960        20
55.970        13
55.980        13
55.990        40
56.000        27
56.010        13
56.020        20
56.030        47
56.040        40
56.050        20
56.060        33
56.070        13
56.080         7
56.090        27
56.100        27
56.110        40
56.120        20
56.130        27
56.140        20
56.150        40
56.160        13
56.170        47
56.180        27
56.190        27
56.200        13
56.210        47
56.220        13
56.230        27
56.240        20
56.250        27
56.260        13
56.270        27
56.280        53
56.290        33
56.300        20
56.310        20
56.320        13
56.330        33
56.340        13
56.350        33
56.360        33
56.370        40
56.380        67
56.390        13
56.400        13
56.410        13
56.420        27
56.430        27
56.440         0
56.450        20
56.460        20
56.470        20
56.480        33
56.490        13
56.500        47
56.510         7
56.520        27
56.530        20
56.540         7
56.550        33
56.560        27
56.570        33
56.580        13
56.590        47
56.600        27
56.610        33
56.620        27
56.630        27
56.640        40
56.650        27
56.660        47
56.670        13
56.680        33
56.690        53
56.700        20
56.710         0
56.720        13
56.730        20
56.740        33
56.750         0
56.760        13
56.770        27
56.780         7
56.790        33
56.800        33
56.810        20
56.820        13
56.830        13
56.840        13
56.850        27
56.860        20
56.870         0
56.880         7
56.890        13
56.900         7
56.910        33
56.920        13
56.930        27
56.940        33
56.950         7
56.960        27
56.970        13
56.980        27
56.990        33
57.000        27
57.010        20
57.020        27
57.030         0
57.040        27
57.050         0
57.060        27
57.070        13
57.080        13
57.090        20
57.100        20
57.110        20
57.120        20
57.130        13
57.140        47
57.150        33
57.160        47
57.170        20
57.180        13
57.190        20
57.200        20
57.210        13
57.220        20
57.230        20
57.240        20
57.250        27
57.260        33
57.270        33
57.280        27
57.290        13
57.300        27
57.310        40
57.320         0
57.330        33
57.340        47
57.350        27
57.360        40
57.370        27
57.380        40
57.390         7
57.400        33
57.410        27
57.420        13
57.430        27
57.440        40
57.450        40
57.460        33
57.470        27
57.480         7
57.490         0
57.500         7
57.510        20
57.520         7
57.530        13
57.540        27
57.550        13
57.560        47
57.570         7
57.580        20
57.590         7
57.600        33
57.610        20
57.620         7
57.630        40
57.640        27
57.650        13
57.660        27
57.670        60
57.680         0
57.690        33
57.700        47
57.710        40
57.720        13
57.730        13
57.740        13
57.750         0
57.760        27
57.770        13
57.780        33
57.790        27
57.800         7
57.810        13
57.820        33
57.830        20
57.840        13
57.850        13
57.860        27
57.870        20
57.880        33
57.890        27
57.900        27
57.910        20
57.920        33
57.930        13
57.940        27
57.950        27
57.960        33
57.970        27
57.980        73
57.990        27
58.000         0
58.010        13
58.020        27
58.030        13
58.040        13
58.050        33
58.060         7
58.070        33
58.080        33
58.090        20
58.100         7
58.110        33
58.120        40
58.130        13
58.140        13
58.150        27
58.160        40
58.170        13
58.180         7
58.190        27
58.200        33
58.210        40
58.220        40
58.230        33
58.240        33
58.250         0
58.260        13
58.270         7
58.280        20
58.290         7
58.300        13
58.310        47
58.320         7
58.330        13
58.340        13
58.350         0
58.360        13
58.370        20
58.380        13
58.390         7
58.400        20
58.410        40
58.420        13
58.430        33
58.440        13
58.450        20
58.460        20
58.470        13
58.480        20
58.490        27
58.500        13
58.510        13
58.520         7
58.530        20
58.540        33
58.550        33
58.560         7
58.570        27
58.580        20
58.590        13
58.600        27
58.610         7
58.620        33
58.630         7
58.640         0
58.650         7
58.660         7
58.670         0
58.680        47
58.690        20
58.700         7
58.710        27
58.720        27
58.730        20
58.740        27
58.750        20
58.760        40
58.770        20
58.780        13
58.790        13
58.800        47
58.810        20
58.820        33
58.830         7
58.840        27
58.850         7
58.860        33
58.870        20
58.880        40
58.890        13
58.900        13
58.910         0
58.920        20
58.930         7
58.940         7
58.950         7
58.960        27
58.970        33
58.980        53
58.990        13
59.000        33
59.010        33
59.020        47
59.030         0
59.040        27
59.050        13
59.060        33
59.070        20
59.080        27
59.090        20
59.100         7
59.110        40
59.120        20
59.130         7
59.140        13
59.150        27
59.160        27
59.170        13
59.180        20
59.190        20
59.200        53
59.210        40
59.220        20
59.230        27
59.240         0
59.250        20
59.260        20
59.270        27
59.280        33
59.290        20
59.300        20
59.310         7
59.320         7
59.330        40
59.340        20
59.350         7
59.360         7
59.370         0
59.380        13
59.390        13
59.400         7
59.410         7
59.420         0
59.430        20
59.440        13
59.450        33
59.460        20
59.470        20
59.480        13
59.490        27
59.500        13
59.510        13
59.520        47
59.530        13
59.540        13
59.550         0
59.560        13
59.570        33
59.580        13
59.590        20
59.600        13
59.610        20
59.620        13
59.630         7
59.640        20
59.650         0
59.660         7
59.670         0
59.680        27
59.690        20
59.700        47
59.710         7
59.720         7
59.730        27
59.740        20
59.750         7
59.760         7
59.770        27
59.780        20
59.790         7
59.800        33
59.810        20
59.820        13
59.830        40
59.840        20
59.850        13
59.860        13
59.870        20
59.880         7
59.890        13
59.900        27
59.910        13
59.920         0
59.930        13
59.940         7
59.950        20
59.960        27
59.970        13
59.980        13
59.990        13
60.000        13
