20.000        40
20.010        27
20.020        53
20.030        53
20.040        33
20.050        40
20.060        33
20.070        47
20.080        40
20.090        67
20.100       107
20.110        33
20.120        40
20.130        67
20.140        33
20.150        73
20.160        53
20.170        47
20.180        47
20.190        53
20.200        27
20.210        53
20.220        33
20.230        27
20.240        73
20.250        60
20.260        80
20.270        73
20.280        27
20.290        33
20.300        47
20.310        53
20.320        33
20.330        47
20.340        33
20.350        47
20.360        40
20.370        47
20.380        40
20.390        40
20.400        73
20.410        47
20.420        47
20.430        47
20.440         7
20.450        53
20.460        20
20.470        53
20.480        53
20.490        80
20.500        80
20.510        60
20.520        27
20.530        33
20.540        27
20.550        80
20.560        47
20.570        13
20.580        27
20.590        60
20.600         7
20.610        47
20.620        53
20.630        60
20.640        53
20.650        73
20.660        27
20.670        47
20.680        33
20.690        13
20.700        47
20.710        53
20.720        47
20.730        40
20.740        67
20.750        53
20.760        27
20.770        53
20.780        47
20.790        40
20.800        53
20.810        73
20.820        60
20.830        67
20.840        40
20.850        33
20.860        27
20.870        47
20.880        33
20.890        40
20.900        60
20.910        47
20.920        40
20.930        20
20.940        40
20.950        60
20.960        73
20.970        20
20.980        20
20.990        67
21.000        33
21.010        27
21.020        53
21.030        40
21.040        27
21.050        33
21.060        40
21.070        60
21.080        33
21.090        40
21.100        20
21.110        27
21.120        47
21.130        53
21.140        47
21.150        33
21.160        27
21.170        27
21.180        27
21.190        53
21.200        47
21.210        33
21.220        47
21.230        40
21.240        33
21.250        27
21.260        40
21.270        60
21.280        40
21.290        20
21.300        33
21.310        60
21.320        33
21.330        20
21.340        40
21.350        13
21.360        33
21.370        40
21.380        47
21.390        47
21.400        73
21.410        60
21.420        53
21.430        33
21.440        33
21.450        80
21.460        47
21.470        33
21.480        27
21.490        47
21.500        67
21.510        47
21.520        60
21.530        53
21.540        40
21.550        47
21.560        33
21.570        47
21.580        40
21.590        27
21.600        33
21.610        40
21.620        33
21.630         7
21.640        13
21.650        47
21.660        47
21.670        87
21.680        40
21.690        27
21.700        47
21.710        27
21.720        33
21.730        53
21.740        47
21.750        60
21.760        47
21.770        60
21.780        47
21.790        33
21.800        27
21.810        40
21.820        13
21.830         7
21.840        60
21.850        40
21.860        47
21.870        40
21.880        47
21.890        60
21.900        80
21.910        33
21.920        13
21.930        53
21.940        53
21.950        73
21.960        33
21.970        53
21.980        40
21.990        27
22.000        73
22.010        60
22.020        47
22.030        40
22.040        67
22.050        53
22.060        47
22.070        47
22.080        80
22.090        47
22.100        47
22.110        20
22.120        67
22.130        53
22.140        27
22.150        47
22.160        60
22.170        27
22.180        80
22.190        53
22.200        33
22.210        60
22.220        47
22.230        33
22.240        47
22.250        60
22.260        40
22.270        47
22.280        60
22.290        47
22.300        47
22.310        13
22.320        60
22.330        40
22.340        67
22.350        60
22.360        40
22.370        53
22.380        73
22.390        47
22.400        27
22.410        60
22.420        80
22.430        47
22.440        93
22.450        53
22.460        80
22.470        40
22.480        87
22.490        80
22.500        53
22.510        80
22.520       100
22.530        93
22.540       140
22.550       133
22.560       147
22.570       120
22.580       100
22.590       147
22.600       193
22.610       167
22.620       200
22.630       300
22.640       287
22.650       260
22.660       300
22.670       287
22.680       347
22.690       400
22.700       387
22.710       473
22.720       513
22.730       446
22.740       520
22.750       473
22.760       506
22.770       400
22.780       440
22.790       426
22.800       460
22.810       440
22.820       387
22.830       367
22.840       340
22.850       280
22.860       233
22.870       253
22.880       160
22.890       153
22.900       193
22.910       147
22.920       160
22.930       127
22.940       133
22.950       113
22.960        87
22.970        80
22.980       113
22.990       113
23.000        73
23.010       100
23.020        73
23.030        60
23.040        80
23.050        80
23.060        60
23.070       107
23.080        60
23.090        40
23.100        33
23.110        53
23.120        33
23.130        53
23.140        67
23.150        60
23.160        27
23.170        67
23.180        60
23.190       113
23.200        53
23.210        80
23.220        60
23.230        73
23.240        73
23.250        73
23.260        27
23.270        80
23.280        40
23.290        53
23.300        60
23.310        47
23.320        40
23.330        47
23.340        73
23.350        60
23.360        47
23.370        47
23.380        27
23.390        33
23.400        33
23.410        27
23.420        40
23.430        87
23.440        73
23.450        47
23.460        20
23.470        47
23.480        40
23.490        47
23.500        13
23.510        53
23.520        33
23.530        20
23.540        47
23.550        40
23.560        20
23.570        33
23.580        47
23.590        40
23.600        53
23.610        47
23.620        47
23.630        27
23.640        53
23.650        47
23.660        27
23.670        67
23.680        53
23.690        20
23.700        20
23.710        40
23.720        80
23.730        87
23.740        27
23.750        53
23.760        67
23.770         7
23.780        73
23.790        53
23.800        53
23.810        27
23.820        53
23.830        27
23.840        40
23.850        47
23.860        53
23.870        20
23.880        67
23.890        87
23.900        53
23.910        47
23.920        27
23.930        33
23.940        27
23.950        13
23.960        27
23.970        27
23.980        73
23.990        27
24.000        40
24.010        60
24.020        33
24.030        60
24.040        33
24.050        40
24.060        40
24.070        33
24.080        47
24.090        47
24.100        33
24.110        27
24.120        40
24.130        27
24.140        67
24.150        60
24.160        67
24.170        53
24.180        33
24.190        33
24.200        40
24.210        47
24.220        80
24.230        33
24.240        27
24.250        40
24.260        53
24.270        27
24.280        53
24.290        67
24.300        40
24.310        40
24.320        40
24.330        13
24.340        27
24.350        53
24.360        47
24.370        40
24.380        47
24.390        47
24.400        40
24.410        27
24.420        27
24.430        33
24.440        53
24.450        53
24.460        33
24.470        20
24.480        53
24.490        33
24.500        20
24.510        27
24.520        33
24.530        20
24.540        40
24.550        73
24.560        47
24.570        27
24.580        67
24.590        67
24.600        40
24.610        47
24.620        27
24.630        33
24.640        13
24.650        20
24.660        47
24.670        33
24.680        53
24.690        47
24.700        13
24.710        40
24.720        33
24.730        33
24.740        60
24.750        67
24.760        47
24.770        53
24.780        13
24.790        53
24.800        27
24.810        53
24.820        33
24.830        73
24.840        40
24.850        53
24.860        27
24.870        40
24.880        33
24.890        27
24.900        40
24.910        27
24.920        60
24.930        33
24.940        40
24.950        53
24.960        47
24.970        27
24.980        60
24.990        40
25.000        40
25.010        67
25.020        53
25.030        27
25.040        67
25.050        27
25.060        40
25.070        73
25.080        53
25.090         0
25.100        60
25.110        33
25.120         7
25.130       100
25.140        33
25.150        53
25.160        47
25.170        33
25.180        40
25.190        40
25.200        13
25.210        40
25.220        27
25.230        53
25.240        93
25.250        40
25.260        40
25.270        53
25.280        27
25.290        47
25.300        53
25.310        20
25.320        47
25.330        33
25.340        40
25.350        27
25.360        53
25.370        27
25.380        40
25.390        53
25.400        40
25.410        60
25.420        27
25.430        60
25.440        40
25.450        47
25.460        33
25.470        40
25.480        20
25.490        40
25.500        40
25.510        27
25.520        33
25.530        53
25.540        33
25.550        47
25.560        53
25.570        40
25.580        40
25.590        53
25.600        73
25.610        67
25.620        67
25.630        40
25.640        67
25.650        60
25.660        73
25.670        67
25.680        40
25.690        27
25.700        40
25.710        40
25.720        40
25.730        47
25.740        40
25.750        33
25.760        47
25.770        53
25.780        33
25.790        20
25.800        20
25.810        67
25.820        40
25.830        20
25.840        60
25.850        47
25.860        20
25.870        33
25.880        40
25.890        73
25.900        33
25.910        27
25.920        27
25.930        40
25.940        53
25.950        20
25.960        27
25.970        53
25.980        13
25.990        47
26.000        40
26.010        47
26.020        13
26.030        27
26.040        27
26.050        27
26.060        40
26.070        33
26.080        13
26.090        47
26.100        60
26.110         7
26.120        53
26.130        20
26.140        27
26.150        80
26.160        33
26.170        47
26.180        33
26.190        40
26.200        13
26.210        27
26.220        40
26.230        47
26.240        40
26.250        27
26.260        33
26.270        20
26.280        13
26.290        33
26.300        33
26.310        47
26.320        40
26.330        40
26.340        47
26.350        27
26.360        33
26.370        20
26.380        47
26.390        20
26.400        40
26.410        27
26.420        33
26.430        20
26.440        60
26.450        33
26.460        33
26.470        13
26.480        27
26.490        33
26.500        67
26.510         7
26.520         7
26.530        40
26.540        33
26.550        13
26.560        33
26.570        20
26.580        33
26.590        27
26.600        40
26.610        60
26.620        27
26.630        40
26.640        20
26.650        33
26.660        13
26.670        20
26.680        40
26.690        27
26.700        27
26.710        20
26.720        33
26.730        20
26.740        20
26.750        20
26.760        40
26.770        60
26.780        47
26.790        27
26.800        33
26.810        53
26.820        47
26.830        20
26.840        40
26.850        53
26.860        33
26.870        13
26.880        40
26.890        33
26.900        40
26.910        27
26.920        40
26.930        47
26.940        20
26.950        33
26.960        47
26.970        13
26.980        53
26.990        53
27.000        27
27.010        27
27.020        60
27.030        53
27.040        40
27.050        53
27.060        33
27.070        20
27.080        20
27.090        33
27.100        13
27.110        33
27.120        20
27.130        47
27.140        33
27.150        47
27.160        47
27.170        67
27.180        20
27.190        13
27.200        27
27.210        53
27.220        13
27.230        27
27.240        20
27.250        33
27.260        27
27.270        27
27.280        40
27.290        40
27.300        20
27.310        40
27.320        27
27.330        53
27.340        33
27.350        13
27.360        33
27.370        27
27.380        40
27.390        27
27.400        20
27.410        13
27.420        13
27.430        60
27.440        20
27.450        47
27.460        13
27.470        40
27.480        27
27.490        27
27.500        27
27.510        60
27.520        13
27.530        27
27.540        53
27.550        40
27.560        40
27.570        27
27.580        40
27.590        20
27.600        33
27.610        33
27.620        27
27.630        27
27.640         7
27.650        20
27.660        33
27.670        40
27.680        13
27.690        47
27.700        40
27.710        20
27.720        40
27.730        33
27.740        13
27.750        40
27.760        20
27.770        13
27.780        27
27.790        47
27.800        20
27.810        20
27.820        20
27.830        47
27.840        13
27.850        33
27.860        33
27.870        27
27.880        40
27.890        47
27.900        33
27.910        53
27.920        40
27.930        27
27.940        27
27.950         7
27.960        13
27.970        33
27.980        33
27.990        60
28.000        27
28.010         7
28.020        27
28.030        47
28.040        40
28.050        27
28.060        33
28.070        60
28.080        73
28.090        13
28.100        47
28.110        13
28.120        53
28.130        20
28.140        47
28.150        33
28.160        60
28.170        40
28.180        13
28.190        13
28.200        27
28.210        27
28.220        33
28.230        33
28.240         7
28.250        27
28.260        53
28.270        40
28.280        40
28.290        27
28.300        20
28.310        20
28.320        73
28.330        47
28.340        40
28.350        13
28.360        27
28.370        13
28.380        47
28.390        27
28.400        20
28.410        20
28.420        53
28.430        27
28.440        27
28.450        33
28.460        27
28.470        40
28.480        27
28.490        47
28.500        13
28.510        27
28.520        13
28.530         7
28.540        33
28.550        33
28.560        33
28.570        40
28.580         0
28.590        13
28.600        40
28.610        13
28.620        27
28.630        40
28.640        40
28.650        40
28.660        13
28.670        13
28.680        27
28.690        13
28.700        40
28.710        27
28.720        13
28.730        27
28.740        27
28.750        80
28.760        53
28.770        27
28.780        33
28.790        47
28.800        60
28.810        53
28.820        33
28.830        20
28.840        20
28.850        40
28.860        33
28.870        33
28.880        53
28.890        13
28.900        33
28.910        33
28.920        13
28.930        33
28.940        33
28.950         7
28.960        27
28.970        40
28.980         7
28.990        20
29.000        27
29.010        47
29.020        27
29.030        33
29.040        27
29.050        27
29.060        40
29.070        20
29.080        20
29.090        27
29.100        20
29.110        27
29.120        40
29.130        20
29.140        53
29.150        33
29.160        20
29.170        27
29.180        53
29.190        53
29.200        13
29.210        13
29.220        40
29.230         0
29.240        47
29.250        40
29.260        40
29.270        33
29.280        27
29.290         7
29.300        73
29.310        20
29.320        27
29.330        20
29.340        20
29.350        13
29.360        33
29.370        33
29.380        20
29.390        47
29.400        20
29.410        20
29.420        27
29.430        27
29.440        20
29.450        20
29.460        80
29.470        13
29.480        27
29.490        13
29.500        27
29.510        20
29.520        33
29.530        20
29.540        27
29.550        40
29.560        33
29.570        13
29.580        47
29.590        40
29.600        13
29.610        27
29.620        20
29.630        33
29.640        13
29.650        20
29.660        33
29.670        27
29.680        33
29.690        40
29.700        40
29.710        20
29.720        73
29.730        20
29.740        47
29.750        47
29.760        40
29.770        27
29.780        33
29.790        20
29.800        47
29.810        20
29.820        27
29.830        40
29.840        33
29.850        13
29.860        13
29.870        27
29.880        27
29.890        27
29.900        40
29.910        27
29.920        20
29.930        40
29.940        53
29.950        40
29.960        13
29.970        13
29.980        33
29.990         7
30.000        47
30.010        27
30.020        13
30.030        13
30.040        40
30.050         0
30.060        27
30.070        33
30.080        40
30.090        13
30.100        47
30.110        20
30.120        27
30.130        47
30.140        47
30.150        40
30.160        33
30.170        33
30.180        40
30.190        47
30.200        13
30.210         0
30.220        33
30.230        13
30.240        20
30.250        27
30.260        20
30.270        40
30.280        20
30.290        27
30.300        40
30.310        20
30.320        20
30.330        27
30.340        33
30.350        40
30.360        33
30.370        13
30.380        20
30.390        20
30.400        53
30.410        13
30.420        27
30.430        20
30.440        13
30.450        33
30.460        33
30.470        13
30.480        33
30.490        27
30.500         7
30.510        33
30.520        40
30.530        20
30.540        27
30.550        27
30.560        53
30.570        13
30.580        47
30.590        27
30.600        20
30.610        53
30.620        20
30.630        13
30.640        27
30.650        27
30.660        40
30.670        20
30.680        33
30.690        13
30.700        60
30.710        33
30.720        27
30.730        47
30.740        40
30.750        20
30.760        13
30.770        27
30.780        20
30.790        27
30.800        47
30.810        53
30.820        27
30.830        27
30.840        27
30.850        40
30.860        13
30.870         0
30.880        20
30.890        27
30.900        33
30.910         7
30.920        13
30.930        47
30.940        53
30.950        27
30.960        27
30.970        40
30.980        40
30.990        20
31.000         7
31.010        27
31.020        20
31.030        47
31.040        40
31.050        27
31.060        13
31.070        53
31.080        33
31.090        53
31.100        33
31.110        33
31.120        27
31.130         7
31.140        27
31.150        13
31.160        53
31.170        33
31.180        47
31.190        40
31.200        27
31.210        33
31.220        40
31.230        20
31.240        40
31.250        27
31.260        53
31.270        33
31.280        13
31.290        20
31.300        20
31.310        33
31.320        13
31.330        27
31.340        27
31.350        33
31.360        20
31.370         7
31.380        47
31.390        33
31.400        47
31.410        47
31.420        40
31.430        13
31.440        40
31.450        27
31.460        20
31.470        13
31.480        60
31.490        27
31.500        20
31.510        13
31.520        27
31.530        20
31.540        27
31.550        13
31.560         0
31.570        13
31.580        33
31.590        20
31.600        13
31.610        40
31.620        27
31.630        33
31.640        20
31.650        33
31.660        13
31.670        40
31.680        27
31.690        40
31.700        13
31.710        27
31.720        20
31.730        20
31.740         7
31.750        47
31.760        53
31.770        27
31.780        33
31.790        33
31.800        27
31.810        20
31.820        40
31.830        33
31.840        20
31.850        27
31.860        33
31.870         0
31.880         7
31.890        33
31.900        53
31.910        33
31.920        47
31.930        47
31.940        47
31.950        27
31.960        13
31.970        13
31.980        20
31.990        13
32.000        40
32.010        20
32.020         7
32.030        40
32.040        47
32.050        13
32.060        47
32.070        47
32.080        20
32.090        40
32.100        20
32.110        40
32.120        27
32.130         0
32.140        87
32.150        47
32.160        33
32.170        33
32.180        33
32.190        53
32.200        27
32.210        13
32.220        33
32.230        27
32.240        40
32.250        33
32.260        60
32.270        40
32.280        73
32.290        53
32.300        60
32.310        20
32.320        47
32.330        67
32.340        73
32.350        80
32.360        87
32.370        53
32.380        67
32.390        87
32.400       100
32.410       113
32.420        93
32.430       107
32.440        67
32.450        93
32.460       113
32.470        40
32.480        87
32.490       153
32.500        73
32.510        53
32.520        80
32.530       113
32.540        53
32.550        53
32.560        67
32.570        20
32.580       100
32.590        87
32.600        33
32.610        33
32.620        27
32.630        33
32.640        73
32.650        47
32.660        13
32.670        33
32.680        20
32.690        40
32.700        33
32.710        20
32.720        20
32.730        33
32.740         7
32.750        47
32.760        13
32.770        20
32.780        47
32.790         7
32.800        13
32.810        40
32.820        13
32.830        27
32.840        33
32.850        13
32.860        27
32.870        40
32.880        27
32.890         0
32.900        33
32.910        33
32.920        40
32.930        40
32.940        40
32.950        27
32.960        33
32.970        33
32.980        33
32.990        13
33.000        13
33.010        27
33.020        33
33.030        13
33.040        47
33.050        20
33.060        33
33.070        27
33.080        47
33.090        20
33.100        67
33.110        20
33.120        13
33.130        13
33.140        13
33.150        20
33.160        33
33.170        20
33.180         7
33.190        27
33.200        53
33.210        27
33.220        13
33.230        20
33.240        20
33.250        20
33.260        53
33.270        27
33.280        40
33.290         7
33.300        33
33.310        47
33.320        27
33.330        27
33.340        27
33.350        33
33.360        27
33.370        67
33.380        33
33.390        33
33.400        13
33.410        13
33.420        33
33.430        13
33.440        27
33.450         7
33.460        20
33.470         7
33.480        20
33.490         7
33.500        20
33.510        27
33.520        20
33.530        13
33.540        20
33.550        27
33.560        20
33.570        47
33.580        20
33.590        27
33.600        13
33.610        20
33.620        20
33.630        33
33.640        27
33.650        33
33.660        27
33.670        33
33.680        27
33.690        20
33.700        20
33.710         7
33.720         7
33.730        40
33.740         7
33.750        27
33.760         0
33.770        20
33.780         7
33.790        40
33.800        20
33.810        40
33.820        13
33.830        27
33.840        20
33.850        13
33.860        33
33.870        27
33.880        53
33.890        27
33.900        40
33.910        47
33.920        27
33.930        33
33.940         0
33.950        33
33.960         7
33.970        13
33.980        13
33.990        20
34.000        40
34.010        13
34.020        27
34.030        33
34.040        47
34.050        20
34.060        53
34.070        13
34.080        47
34.090        67
34.100        20
34.110        27
34.120        53
34.130         7
34.140         7
34.150        27
34.160        20
34.170        13
34.180        53
34.190        20
34.200        27
34.210        40
34.220        13
34.230        20
34.240        27
34.250        40
34.260        40
34.270        40
34.280        27
34.290        27
34.300        20
34.310        40
34.320         7
34.330        40
34.340        27
34.350        33
34.360        40
34.370         0
34.380        27
34.390         7
34.400        20
34.410        60
34.420        20
34.430        40
34.440        13
34.450        13
34.460        20
34.470        13
34.480        27
34.490        40
34.500        40
34.510        27
34.520        20
34.530        27
34.540         7
34.550        27
34.560        47
34.570        13
34.580        33
34.590         0
34.600        33
34.610        33
34.620        13
34.630        33
34.640        47
34.650        40
34.660        20
34.670        47
34.680        27
34.690        27
34.700        33
34.710        20
34.720        13
34.730        27
34.740        40
34.750        40
34.760        20
34.770        13
34.780        13
34.790        13
34.800        13
34.810         7
34.820        20
34.830        20
34.840        20
34.850        27
34.860        20
34.870        27
34.880        40
34.890        47
34.900        33
34.910        13
34.920        53
34.930        27
34.940        27
34.950         0
34.960        40
34.970        60
34.980        67
34.990        27
35.000         7
35.010        13
35.020        67
35.030        33
35.040        13
35.050        67
35.060        27
35.070        53
35.080        40
35.090        33
35.100        27
35.110        47
35.120        60
35.130        47
35.140        73
35.150        93
35.160        93
35.170       100
35.180       100
35.190       120
35.200        93
35.210        87
35.220       107
35.230        27
35.240        27
35.250        67
35.260        40
35.270        80
35.280        40
35.290        73
35.300        47
35.310        67
35.320        53
35.330        13
35.340        27
35.350        13
35.360        33
35.370        20
35.380        33
35.390        20
35.400        20
35.410        27
35.420        13
35.430        33
35.440        20
35.450        40
35.460        13
35.470        33
35.480         0
35.490        27
35.500        20
35.510         7
35.520        33
35.530         0
35.540        40
35.550        33
35.560        13
35.570        33
35.580         7
35.590        13
35.600         7
35.610        20
35.620        20
35.630        20
35.640         7
35.650        27
35.660        13
35.670        20
35.680        27
35.690        13
35.700         7
35.710        20
35.720        27
35.730        13
35.740        33
35.750        20
35.760        27
35.770         0
35.780        20
35.790        20
35.800        40
35.810        13
35.820        27
35.830        33
35.840        20
35.850        20
35.860        27
35.870        27
35.880        13
35.890        20
35.900        20
35.910        33
35.920         7
35.930        13
35.940        13
35.950        20
35.960        40
35.970        13
35.980        33
35.990        33
36.000        27
36.010        13
36.020        27
36.030        33
36.040        20
36.050        27
36.060        27
36.070         0
36.080        40
36.090        40
36.100        40
36.110        13
36.120        33
36.130        27
36.140        27
36.150        20
36.160        20
36.170        20
36.180        40
36.190        40
36.200        20
36.210        27
36.220        40
36.230        27
36.240        20
36.250        33
36.260        33
36.270        13
36.280        20
36.290        13
36.300        40
36.310        53
36.320        20
36.330        27
36.340        27
36.350        20
36.360        33
36.370         7
36.380        33
36.390        27
36.400        20
36.410        20
36.420        33
36.430        27
36.440        13
36.450        27
36.460        33
36.470        20
36.480        33
36.490         7
36.500        13
36.510        13
36.520        33
36.530        47
36.540        47
36.550        13
36.560        13
36.570        27
36.580        33
36.590        53
36.600        13
36.610         7
36.620        13
36.630        13
36.640        40
36.650        20
36.660         7
36.670        27
36.680         7
36.690        33
36.700        47
36.710        20
36.720        27
36.730         7
36.740        20
36.750        27
36.760        20
36.770        27
36.780        20
36.790        13
36.800        33
36.810         7
36.820        13
36.830        13
36.840        73
36.850        13
36.860        20
36.870        13
36.880         0
36.890        13
36.900        20
36.910        13
36.920         0
36.930        27
36.940        33
36.950        33
36.960        40
36.970        33
36.980         7
36.990        33
37.000        13
37.010        20
37.020        27
37.030        47
37.040        40
37.050        13
37.060        40
37.070        53
37.080        20
37.090        27
37.100        20
37.110        20
37.120        13
37.130        13
37.140         0
37.150         7
37.160        20
37.170        20
37.180        13
37.190        33
37.200        27
37.210        27
37.220         7
37.230        13
37.240         7
37.250        20
37.260        33
37.270        33
37.280        27
37.290        33
37.300         0
37.310        53
37.320        20
37.330        20
37.340         0
37.350         7
37.360        40
37.370        13
37.380        40
37.390        13
37.400        20
37.410        20
37.420        20
37.430        20
37.440        13
37.450        20
37.460        27
37.470        20
37.480        33
37.490         0
37.500         7
37.510         0
37.520         0
37.530        20
37.540        20
37.550        33
37.560        20
37.570        20
37.580        20
37.590        33
37.600        13
37.610        20
37.620        33
37.630        20
37.640        20
37.650        20
37.660        20
37.670        47
37.680        40
37.690        13
37.700        27
37.710        13
37.720        33
37.730        13
37.740        33
37.750        20
37.760        40
37.770        20
37.780        20
37.790        27
37.800        40
37.810        40
37.820        33
37.830        47
37.840        27
37.850        33
37.860        53
37.870        20
37.880        13
37.890        40
37.900        20
37.910        33
37.920        47
37.930        27
37.940        13
37.950         0
37.960        27
37.970        40
37.980        27
37.990         7
38.000        27
38.010        20
38.020         0
38.030         7
38.040        33
38.050         7
38.060         7
38.070        20
38.080        13
38.090        13
38.100        13
38.110        40
38.120         7
38.130        33
38.140        27
38.150         7
38.160        27
38.170        40
38.180        13
38.190        33
38.200        13
38.210        20
38.220        20
38.230        20
38.240        20
38.250        20
38.260        27
38.270        27
38.280        40
38.290         7
38.300        13
38.310         0
38.320        47
38.330         7
38.340         7
38.350        27
38.360        27
38.370         0
38.380        13
38.390        27
38.400         7
38.410        20
38.420         7
38.430        13
38.440        53
38.450         7
38.460        27
38.470        20
38.480        20
38.490        27
38.500        27
38.510        13
38.520         7
38.530        40
38.540        13
38.550         7
38.560        33
38.570        33
38.580         7
38.590        20
38.600        20
38.610        47
38.620        13
38.630        33
38.640        20
38.650        20
38.660        27
38.670        13
38.680        13
38.690        13
38.700        20
38.710        53
38.720        13
38.730        27
38.740        13
38.750        13
38.760        13
38.770        20
38.780        13
38.790        20
38.800        20
38.810        13
38.820        33
38.830        33
38.840        27
38.850        40
38.860        27
38.870        60
38.880        47
38.890        27
38.900        27
38.910        13
38.920        20
38.930        27
38.940         0
38.950         7
38.960        33
38.970         7
38.980        33
38.990        20
39.000        13
39.010        20
39.020        33
39.030        13
39.040        27
39.050        13
39.060        13
39.070        47
39.080         7
39.090        27
39.100         7
39.110        13
39.120        33
39.130        53
39.140        40
39.150        20
39.160        13
39.170         7
39.180        40
39.190        33
39.200         7
39.210        13
39.220        13
39.230        27
39.240        13
39.250        13
39.260        53
39.270        20
39.280        20
39.290        33
39.300        13
39.310        33
39.320         7
39.330        40
39.340        20
39.350        33
39.360         7
39.370        20
39.380         7
39.390        33
39.400        20
39.410        27
39.420        20
39.430         7
39.440        40
39.450        20
39.460        33
39.470        47
39.480        27
39.490        27
39.500        13
39.510        27
39.520        13
39.530        13
39.540        27
39.550        47
39.560        40
39.570        33
39.580        20
39.590        27
39.600        13
39.610        33
39.620        27
39.630        13
39.640        33
39.650        47
39.660        27
39.670        20
39.680        47
39.690        27
39.700        33
39.710        53
39.720        47
39.730        40
39.740        20
39.750        33
39.760        27
39.770        53
39.780        60
39.790        87
39.800       100
39.810       153
39.820        93
39.830        80
39.840       187
39.850       153
39.860       133
39.870       120
39.880       160
39.890       173
39.900       267
39.910       273
39.920       307
39.930       300
39.940       247
39.950       387
39.960       400
39.970       520
39.980       540
39.990       540
40.000       493
40.010       400
40.020       500
40.030       473
40.040       473
40.050       426
40.060       433
40.070       426
40.080       313
40.090       333
40.100       367
40.110       426
40.120       273
40.130       213
40.140       207
40.150       280
40.160       187
40.170       160
40.180       160
40.190       180
40.200        87
40.210       133
40.220        93
40.230        67
40.240        47
40.250        67
40.260        80
40.270        60
40.280        47
40.290        47
40.300        33
40.310        53
40.320        47
40.330        27
40.340        33
40.350        53
40.360         7
40.370        47
40.380        47
40.390        47
40.400        13
40.410        33
40.420        27
40.430        20
40.440        20
40.450        27
40.460        33
40.470        27
40.480        27
40.490        73
40.500        27
40.510        40
40.520        47
40.530        40
40.540        33
40.550        27
40.560        20
40.570         7
40.580        33
40.590        27
40.600        33
40.610        20
40.620        40
40.630        27
40.640        20
40.650        27
40.660        47
40.670        20
40.680        20
40.690        20
40.700         7
40.710        27
40.720        33
40.730         7
40.740        13
40.750         7
40.760         7
40.770        13
40.780        47
40.790        20
40.800        33
40.810        13
40.820        27
40.830        40
40.840        33
40.850         7
40.860         0
40.870        13
40.880        13
40.890        33
40.900        20
40.910         0
40.920        20
40.930        27
40.940        20
40.950        13
40.960        27
40.970        13
40.980         7
40.990        47
41.000        33
41.010        20
41.020        20
41.030        33
41.040        27
41.050        20
41.060        20
41.070        20
41.080        33
41.090        33
41.100        40
41.110         7
41.120        20
41.130        20
41.140        27
41.150        13
41.160        13
41.170        27
41.180        33
41.190        27
41.200         0
41.210        47
41.220        13
41.230        33
41.240        13
41.250        13
41.260        33
41.270        27
41.280        33
41.290        60
41.300        20
41.310        33
41.320         0
41.330        40
41.340        13
41.350        33
41.360        13
41.370        13
41.380        47
41.390        27
41.400        20
41.410        13
41.420        20
41.430        20
41.440        53
41.450        33
41.460        47
41.470        53
41.480        27
41.490        67
41.500        33
41.510        73
41.520        40
41.530        53
41.540        40
41.550        20
41.560        80
41.570       100
41.580        80
41.590       147
41.600        93
41.610       133
41.620       140
41.630       187
41.640       147
41.650       133
41.660       207
41.670       220
41.680       200
41.690       260
41.700       187
41.710       180
41.720       193
41.730       200
41.740       140
41.750       140
41.760       193
41.770       153
41.780       120
41.790       120
41.800       167
41.810       113
41.820       113
41.830       113
41.840        60
41.850        40
41.860        87
41.870        67
41.880        73
41.890        40
41.900        33
41.910        27
41.920        67
41.930        47
41.940        20
41.950        13
41.960        27
41.970        33
41.980        33
41.990        47
42.000        20
42.010        20
42.020        20
42.030        20
42.040        20
42.050        20
42.060        20
42.070        33
42.080        33
42.090        27
42.100        20
42.110        20
42.120        27
42.130        40
42.140        27
42.150        13
42.160        13
42.170        33
42.180        20
42.190        40
42.200        13
42.210        13
42.220        13
42.230        40
42.240        13
42.250        13
42.260        20
42.270        20
42.280        27
42.290         7
42.300        60
42.310        73
42.320        33
42.330        13
42.340        27
42.350        27
42.360        27
42.370        33
42.380        13
42.390        27
42.400         0
42.410        33
42.420         7
42.430        40
42.440         7
42.450        20
42.460        20
42.470         7
42.480        33
42.490        33
42.500        40
42.510        40
42.520        13
42.530        20
42.540        27
42.550        27
42.560         7
42.570        13
42.580        33
42.590        27
42.600        13
42.610        40
42.620        27
42.630        13
42.640         7
42.650        20
42.660         7
42.670        33
42.680        40
42.690        40
42.700        33
42.710        13
42.720        27
42.730        40
42.740        67
42.750        33
42.760        33
42.770         0
42.780        20
42.790        20
42.800         7
42.810        13
42.820        33
42.830        13
42.840        20
42.850        33
42.860        13
42.870        33
42.880        13
42.890        13
42.900        40
42.910        13
42.920        27
42.930        13
42.940        13
42.950        20
42.960         7
42.970         7
42.980        47
42.990         7
43.000        20
43.010        33
43.020        20
43.030        27
43.040        13
43.050        13
43.060        20
43.070        27
43.080        13
43.090        27
43.100        13
43.110        27
43.120        27
43.130         0
43.140        20
43.150        33
43.160        27
43.170         0
43.180        40
43.190        20
43.200        33
43.210        27
43.220        47
43.230        13
43.240        20
43.250        27
43.260        67
43.270        47
43.280        27
43.290        20
43.300         0
43.310        33
43.320        47
43.330        33
43.340        73
43.350        93
43.360       100
43.370       147
43.380        80
43.390       140
43.400       167
43.410       113
43.420       173
43.430        87
43.440       107
43.450        20
43.460        67
43.470        33
43.480       127
43.490       113
43.500       147
43.510        47
43.520        53
43.530        60
43.540        73
43.550        80
43.560        47
43.570        20
43.580        47
43.590        27
43.600        60
43.610        33
43.620        27
43.630        40
43.640        40
43.650        13
43.660        40
43.670        27
43.680        20
43.690        27
43.700        60
43.710        13
43.720        27
43.730        33
43.740        33
43.750        13
43.760         7
43.770        40
43.780        13
43.790        13
43.800         7
43.810         7
43.820        20
43.830         7
43.840        13
43.850        27
43.860        13
43.870        33
43.880        60
43.890        20
43.900        20
43.910        20
43.920        27
43.930        27
43.940        13
43.950        20
43.960        27
43.970        47
43.980        33
43.990        40
44.000        13
44.010        13
44.020        33
44.030        20
44.040        13
44.050        27
44.060        47
44.070        27
44.080        33
44.090        47
44.100        33
44.110        27
44.120        13
44.130        20
44.140        33
44.150        47
44.160        20
44.170        27
44.180        13
44.190        20
44.200        13
44.210        20
44.220        27
44.230        20
44.240        20
44.250        40
44.260        47
44.270        27
44.280        20
44.290        13
44.300        40
44.310         7
44.320         7
44.330        20
44.340        27
44.350        40
44.360        33
44.370        20
44.380        27
44.390        27
44.400        20
44.410        20
44.420        40
44.430        20
44.440        33
44.450        27
44.460        33
44.470        13
44.480         0
44.490        53
44.500        53
44.510        53
44.520        27
44.530        53
44.540        40
44.550        27
44.560        27
44.570        20
44.580        33
44.590        27
44.600        13
44.610        33
44.620         7
44.630        47
44.640        33
44.650        27
44.660        40
44.670        33
44.680        53
44.690        13
44.700        47
44.710        33
44.720        67
44.730        53
44.740        53
44.750        27
44.760        13
44.770        73
44.780        60
44.790        53
44.800        60
44.810        80
44.820        73
44.830        33
44.840        53
44.850        53
44.860        47
44.870        53
44.880        80
44.890        60
44.900        60
44.910        47
44.920        60
44.930        67
44.940        53
44.950        60
44.960        73
44.970        87
44.980        20
44.990        40
45.000        53
45.010        73
45.020        80
45.030        33
45.040        80
45.050        53
45.060        67
45.070        60
45.080        33
45.090        53
45.100        33
45.110        67
45.120        73
45.130        53
45.140        80
45.150        73
45.160        73
45.170        80
45.180        20
45.190        87
45.200        67
45.210       100
45.220        73
45.230        73
45.240        93
45.250        87
45.260        47
45.270        93
45.280        80
45.290        33
45.300        67
45.310        53
45.320        47
45.330        53
45.340        40
45.350        73
45.360        60
45.370       107
45.380        47
45.390        93
45.400        80
45.410        80
45.420        73
45.430        93
45.440        40
45.450       100
45.460        67
45.470        87
45.480       107
45.490        93
45.500       120
45.510        93
45.520       107
45.530       107
45.540        93
45.550        93
45.560        93
45.570       133
45.580       120
45.590       120
45.600       100
45.610       127
45.620        80
45.630        73
45.640       107
45.650       107
45.660       153
45.670       133
45.680        87
45.690       113
45.700       107
45.710       180
45.720       147
45.730       167
45.740       140
45.750       147
45.760       127
45.770       153
45.780       187
45.790       167
45.800       167
45.810       167
45.820       127
45.830       147
45.840       187
45.850       193
45.860       227
45.870       313
45.880       240
45.890       293
45.900       233
45.910       287
45.920       227
45.930       280
45.940       267
45.950       420
45.960       433
45.970       387
45.980       453
45.990       367
46.000       373
46.010       466
46.020       500
46.030       533
46.040       626
46.050       593
46.060       606
46.070       553
46.080       700
46.090       813
46.100       833
46.110       846
46.120       906
46.130       993
46.140      1093
46.150      1226
46.160       960
46.170      1180
46.180      1266
46.190      1579
46.200      1559
46.210      1659
46.220      1766
46.230      1906
46.240      1859
46.250      2166
46.260      2252
46.270      2539
46.280      2186
46.290      2852
46.300      2759
46.310      3432
46.320      3279
46.330      3459
46.340      3525
46.350      3978
46.360      3958
46.370      4052
46.380      4385
46.390      4265
46.400      4525
46.410      4485
46.420      4718
46.430      4798
46.440      4818
46.450      4818
46.460      4518
46.470      4818
46.480      4745
46.490      4725
46.500      4718
46.510      4931
46.520      4532
46.530      4438
46.540      4338
46.550      4338
46.560      3905
46.570      3865
46.580      3765
46.590      3918
46.600      3325
46.610      3359
46.620      3145
46.630      3005
46.640      2819
46.650      2692
46.660      2726
46.670      2526
46.680      2532
46.690      2139
46.700      2079
46.710      1913
46.720      1693
46.730      1519
46.740      1519
46.750      1519
46.760      1353
46.770      1273
46.780      1093
46.790      1193
46.800       993
46.810       920
46.820       860
46.830       846
46.840       780
46.850       726
46.860       700
46.870       653
46.880       613
46.890       506
46.900       600
46.910       493
46.920       440
46.930       426
46.940       460
46.950       453
46.960       413
46.970       380
46.980       360
46.990       360
47.000       333
47.010       320
47.020       367
47.030       313
47.040       253
47.050       313
47.060       233
47.070       187
47.080       207
47.090       227
47.100       307
47.110       227
47.120       267
47.130       200
47.140       247
47.150       253
47.160       180
47.170       173
47.180       147
47.190       140
47.200       113
47.210       120
47.220       127
47.230       180
47.240       167
47.250       147
47.260       193
47.270       120
47.280       113
47.290       147
47.300       160
47.310       100
47.320       127
47.330        87
47.340       200
47.350       147
47.360       127
47.370       147
47.380       100
47.390       113
47.400       127
47.410       113
47.420        93
47.430       113
47.440       100
47.450       133
47.460        93
47.470       107
47.480        73
47.490       127
47.500        87
47.510        73
47.520       120
47.530        87
47.540        60
47.550        40
47.560        60
47.570        93
47.580        53
47.590        73
47.600        60
47.610        93
47.620        33
47.630        73
47.640        53
47.650        73
47.660        93
47.670       120
47.680        47
47.690        93
47.700       100
47.710        73
47.720        40
47.730        87
47.740       100
47.750        60
47.760        60
47.770        80
47.780       100
47.790        53
47.800        60
47.810        40
47.820        33
47.830        80
47.840        60
47.850        47
47.860        53
47.870        73
47.880        53
47.890        47
47.900        67
47.910        60
47.920        47
47.930        53
47.940        60
47.950        47
47.960        40
47.970        67
47.980        53
47.990        20
48.000        60
48.010        73
48.020        53
48.030        47
48.040        40
48.050        53
48.060        73
48.070        67
48.080        47
48.090        80
48.100        47
48.110        67
48.120        27
48.130        47
48.140        67
48.150        47
48.160        67
48.170        67
48.180        53
48.190        27
48.200        67
48.210        73
48.220        53
48.230        40
48.240        13
48.250        47
48.260        33
48.270        20
48.280        47
48.290        47
48.300        40
48.310        40
48.320        33
48.330        20
48.340        53
48.350        27
48.360        33
48.370        53
48.380        20
48.390        40
48.400        47
48.410        60
48.420        33
48.430        13
48.440        33
48.450        47
48.460        20
48.470        27
48.480        40
48.490        53
48.500        67
48.510        40
48.520        33
48.530        87
48.540        53
48.550        47
48.560        47
48.570        47
48.580        33
48.590        13
48.600        53
48.610        53
48.620        33
48.630        33
48.640        20
48.650        33
48.660        53
48.670        20
48.680        60
48.690        20
48.700        20
48.710        40
48.720        40
48.730        20
48.740        53
48.750        33
48.760        27
48.770        27
48.780        20
48.790        27
48.800        33
48.810        27
48.820        47
48.830        53
48.840        47
48.850        47
48.860        33
48.870        20
48.880        33
48.890        40
48.900        27
48.910        27
48.920        67
48.930        33
48.940        47
48.950        47
48.960        20
48.970        47
48.980        27
48.990        40
49.000        27
49.010        47
49.020        13
49.030        60
49.040        47
49.050        53
49.060        80
49.070        40
49.080        47
49.090        47
49.100        47
49.110        40
49.120        73
49.130        53
49.140        27
49.150        40
49.160        13
49.170        33
49.180        33
49.190        40
49.200        13
49.210        47
49.220        27
49.230        93
49.240        53
49.250        40
49.260        40
49.270        33
49.280        33
49.290        27
49.300        40
49.310        33
49.320        47
49.330        27
49.340        40
49.350        67
49.360        33
49.370        33
49.380        33
49.390        60
49.400        27
49.410        33
49.420        27
49.430        13
49.440        20
49.450        27
49.460        33
49.470        27
49.480        60
49.490        47
49.500        40
49.510        33
49.520        53
49.530        20
49.540        13
49.550        87
49.560        47
49.570        33
49.580        67
49.590        47
49.600         7
49.610        33
49.620        33
49.630        27
49.640        33
49.650        67
49.660        47
49.670        33
49.680        67
49.690        27
49.700        60
49.710        13
49.720        13
49.730        40
49.740        27
49.750        20
49.760        27
49.770        53
49.780        53
49.790        27
49.800        40
49.810        40
49.820        20
49.830        20
49.840        33
49.850        40
49.860        47
49.870        13
49.880        27
49.890        40
49.900        60
49.910        33
49.920        53
49.930        53
49.940        33
49.950        47
49.960        60
49.970        47
49.980        20
49.990        67
50.000        33
50.010        33
50.020        33
50.030        40
50.040        40
50.050        60
50.060        13
50.070        40
50.080        27
50.090        33
50.100        33
50.110        40
50.120        27
50.130        47
50.140        13
50.150        27
50.160        40
50.170        60
50.180        47
50.190        27
50.200        33
50.210        27
50.220        47
50.230        20
50.240        47
50.250        13
50.260        40
50.270        20
50.280        53
50.290        47
50.300        27
50.310         7
50.320        33
50.330         7
50.340        20
50.350        33
50.360        20
50.370        47
50.380        33
50.390        40
50.400        13
50.410        33
50.420        33
50.430        40
50.440         7
50.450         7
50.460        27
50.470        33
50.480        40
50.490        27
50.500        20
50.510        33
50.520        33
50.530        20
50.540        13
50.550        13
50.560        60
50.570        40
50.580        20
50.590        47
50.600        40
50.610        33
50.620        33
50.630        20
50.640        53
50.650        20
50.660        33
50.670        40
50.680        40
50.690        60
50.700        13
50.710        27
50.720        13
50.730        13
50.740        40
50.750        53
50.760         7
50.770        27
50.780        40
50.790        33
50.800        27
50.810        47
50.820        27
50.830        33
50.840        20
50.850        40
50.860         7
50.870         7
50.880        47
50.890        40
50.900        33
50.910        20
50.920        40
50.930        20
50.940        33
50.950        20
50.960        20
50.970        53
50.980        27
50.990        13
51.000        13
51.010        13
51.020        20
51.030        20
51.040        13
51.050        33
51.060        67
51.070        27
51.080        47
51.090        27
51.100        53
51.110        27
51.120        13
51.130        20
51.140        40
51.150        20
51.160        20
51.170        33
51.180        47
51.190        20
51.200        20
51.210        20
51.220        27
51.230        13
51.240        27
51.250        33
51.260        27
51.270        13
51.280        20
51.290        40
51.300        40
51.310        33
51.320         7
51.330        33
51.340        33
51.350        13
51.360        20
51.370        60
51.380        20
51.390        13
51.400        20
51.410        27
51.420        33
51.430         7
51.440        27
51.450        47
51.460         7
51.470        20
51.480        33
51.490        27
51.500        40
51.510        47
51.520        20
51.530        13
51.540        33
51.550        20
51.560        13
51.570        20
51.580        53
51.590        33
51.600        27
51.610        40
51.620        33
51.630        20
51.640        40
51.650        27
51.660        13
51.670         7
51.680        33
51.690        20
51.700        27
51.710        13
51.720        33
51.730        33
51.740        27
51.750        27
51.760        13
51.770        20
51.780        33
51.790        40
51.800        53
51.810        13
51.820        47
51.830        53
51.840        27
51.850        33
51.860        13
51.870        27
51.880        27
51.890        20
51.900        27
51.910        40
51.920        40
51.930        20
51.940        40
51.950        13
51.960        20
51.970        53
51.980        27
51.990         7
52.000        40
52.010        40
52.020        20
52.030         7
52.040        47
52.050        33
52.060        40
52.070        20
52.080        33
52.090        20
52.100        13
52.110        20
52.120        20
52.130        47
52.140        47
52.150         7
52.160        27
52.170        27
52.180        20
52.190        47
52.200        27
52.210        27
52.220        13
52.230        13
52.240         7
52.250        33
52.260        27
52.270        20
52.280        47
52.290        20
52.300        27
52.310        13
52.320        47
52.330        40
52.340         7
52.350        27
52.360         0
52.370        47
52.380         7
52.390        33
52.400        40
52.410        27
52.420        53
52.430        27
52.440        40
52.450        40
52.460        40
52.470         0
52.480        33
52.490        40
52.500        60
52.510        60
52.520        80
52.530       140
52.540       133
52.550       180
52.560       240
52.570       253
52.580       353
52.590       260
52.600       167
52.610       140
52.620       113
52.630        87
52.640        73
52.650        60
52.660        40
52.670        73
52.680        60
52.690       113
52.700       167
52.710       140
52.720       147
52.730        67
52.740        93
52.750        40
52.760        60
52.770        40
52.780        13
52.790        60
52.800        40
52.810        27
52.820        27
52.830        40
52.840        40
52.850        13
52.860        20
52.870        27
52.880         7
52.890        40
52.900         0
52.910         0
52.920         7
52.930        40
52.940        20
52.950        40
52.960        13
52.970        47
52.980        13
52.990        60
53.000        33
53.010        20
53.020        27
53.030        33
53.040        27
53.050        27
53.060         7
53.070        27
53.080        20
53.090        13
53.100        27
53.110        20
53.120        20
53.130        20
53.140        20
53.150        27
53.160        20
53.170        13
53.180         7
53.190        13
53.200         0
53.210        47
53.220        33
53.230        40
53.240        20
53.250        20
53.260        27
53.270        20
53.280        13
53.290        67
53.300        47
53.310        27
53.320        33
53.330        47
53.340        20
53.350        20
53.360         7
53.370        27
53.380        40
53.390        13
53.400         0
53.410        53
53.420        20
53.430        33
53.440        13
53.450        33
53.460        27
53.470        20
53.480        27
53.490        13
53.500        27
53.510        20
53.520        27
53.530        20
53.540        27
53.550         7
53.560         7
53.570        20
53.580        40
53.590        47
53.600        20
53.610        13
53.620        13
53.630         7
53.640        13
53.650        33
53.660        33
53.670        20
53.680        20
53.690        13
53.700        53
53.710        13
53.720        20
53.730        40
53.740        20
53.750        53
53.760        27
53.770        27
53.780        47
53.790         7
53.800         7
53.810        13
53.820        20
53.830         7
53.840        13
53.850        20
53.860        27
53.870        13
53.880        40
53.890        20
53.900        33
53.910        33
53.920        13
53.930         7
53.940        27
53.950        20
53.960        33
53.970        13
53.980        20
53.990        20
54.000        33
54.010        13
54.020        33
54.030        40
54.040         7
54.050        27
54.060        13
54.070         7
54.080        47
54.090        33
54.100        13
54.110        33
54.120        27
54.130        13
54.140        47
54.150        33
54.160        53
54.170        33
54.180         7
54.190        33
54.200        27
54.210        13
54.220        27
54.230        27
54.240        13
54.250        13
54.260        33
54.270        27
54.280        27
54.290        27
54.300        13
54.310        20
54.320        13
54.330         7
54.340        27
54.350        13
54.360        27
54.370        27
54.380        13
54.390        33
54.400         0
54.410        27
54.420        27
54.430        20
54.440        20
54.450        47
54.460        20
54.470        20
54.480        27
54.490        20
54.500        27
54.510        13
54.520        13
54.530        33
54.540        20
54.550        27
54.560         7
54.570        33
54.580        20
54.590        13
54.600        40
54.610        33
54.620        20
54.630        33
54.640        27
54.650        13
54.660         7
54.670        20
54.680        87
54.690        13
54.700         0
54.710        20
54.720        27
54.730        27
54.740        47
54.750        13
54.760         7
54.770        27
54.780        27
54.790        40
54.800        13
54.810         0
54.820         7
54.830        47
54.840        27
54.850        13
54.860        27
54.870        33
54.880        27
54.890        47
54.900         7
54.910        20
54.920        20
54.930        27
54.940        20
54.950        27
54.960        20
54.970        33
54.980        20
54.990        33
55.000         7
55.010        20
55.020        20
55.030        13
55.040        13
55.050        13
55.060        40
55.070        27
55.080        20
55.090        13
55.100        27
55.110        40
55.120         7
55.130        13
55.140        20
55.150        20
55.160         7
55.170         0
55.180        13
55.190        33
55.200        20
55.210        33
55.220        27
55.230        33
55.240        20
55.250        33
55.260        20
55.270        13
55.280        27
55.290        20
55.300        13
55.310        20
55.320        47
55.330        20
55.340        33
55.350         7
55.360         7
55.370        33
55.380        13
55.390        40
55.400        13
55.410         0
55.420        33
55.430        20
55.440        27
55.450         7
55.460        40
55.470        20
55.480        27
55.490         0
55.500        53
55.510         7
55.520        20
55.530        13
55.540        13
55.550        13
55.560        20
55.570        27
55.580         7
55.590         7
55.600        20
55.610         7
55.620        13
55.630        20
55.640        40
55.650        47
55.660        47
55.670         7
55.680        33
55.690        20
55.700        27
55.710        20
55.720        27
55.730        20
55.740         0
55.750        20
55.760        13
55.770        13
55.780         7
55.790        13
55.800         7
55.810         7
55.820        13
55.830        33
55.840        33
55.850        13
55.860         7
55.870        13
55.880         7
55.890        20
55.900        13
55.910        47
55.920        27
55.930         7
55.940        13
55.950        13
55.960        27
55.970        20
55.980        40
55.990        13
56.000         7
56.010        27
56.020         0
56.030        33
56.040        13
56.050        27
56.060        33
56.070        33
56.080        13
56.090        13
56.100        40
56.110        40
56.120        13
56.130        20
56.140        33
56.150        47
56.160        27
56.170        13
56.180        13
56.190         7
56.200        40
56.210        27
56.220        47
56.230        27
56.240        27
56.250        27
56.260        13
56.270         7
56.280        20
56.290        27
56.300        40
56.310        20
56.320         7
56.330        20
56.340        40
56.350        20
56.360        27
56.370        33
56.380        13
56.390         0
56.400         7
56.410        13
56.420        20
56.430        20
56.440        33
56.450        13
56.460        13
56.470        27
56.480        13
56.490        13
56.500        33
56.510        13
56.520        20
56.530         7
56.540         0
56.550        27
56.560        20
56.570        20
56.580        33
56.590        13
56.600        13
56.610        27
56.620         7
56.630        33
56.640         0
56.650        20
56.660        20
56.670         7
56.680         7
56.690        20
56.700         7
56.710        20
56.720        20
56.730        40
56.740        27
56.750        27
56.760        20
56.770         7
56.780        20
56.790         7
56.800        33
56.810         0
56.820         7
56.830        33
56.840         7
56.850         7
56.860        20
56.870         0
56.880        13
56.890        20
56.900         7
56.910        33
56.920        27
56.930        20
56.940        27
56.950        13
56.960        13
56.970         7
56.980        20
56.990         7
57.000        13
57.010        27
57.020        33
57.030        13
57.040         7
57.050        27
57.060        27
57.070         0
57.080        20
57.090         0
57.100        27
57.110        20
57.120        20
57.130        20
57.140        20
57.150         7
57.160        27
57.170        20
57.180        20
57.190        20
57.200         7
57.210         7
57.220         7
57.230        13
57.240         7
57.250        13
57.260        33
57.270        40
57.280        13
57.290        20
57.300        20
57.310        40
57.320        20
57.330        13
57.340        13
57.350        40
57.360         0
57.370        27
57.380        27
57.390        33
57.400        53
57.410        33
57.420        67
57.430        33
57.440        60
57.450        67
57.460        80
57.470       100
57.480        73
57.490       127
57.500       140
57.510       187
57.520       153
57.530       160
57.540       127
57.550       107
57.560        80
57.570        53
57.580        67
57.590        87
57.600        73
57.610        67
57.620        47
57.630        60
57.640        53
57.650       120
57.660        47
57.670       127
57.680        73
57.690        33
57.700       100
57.710        33
57.720        33
57.730        47
57.740        40
57.750        40
57.760        47
57.770        60
57.780        60
57.790        47
57.800        33
57.810        27
57.820        40
57.830        47
57.840         0
57.850        27
57.860        40
57.870        47
57.880        47
57.890        33
57.900        53
57.910        53
57.920        33
57.930        33
57.940        33
57.950        33
57.960        53
57.970        20
57.980        33
57.990        47
58.000        53
58.010        40
58.020        13
58.030        20
58.040         7
58.050        40
58.060        20
58.070        40
58.080        40
58.090        13
58.100        27
58.110        40
58.120        20
58.130        40
58.140        13
58.150        27
58.160        13
58.170        40
58.180        27
58.190        13
58.200        67
58.210        47
58.220        20
58.230        33
58.240        20
58.250        13
58.260         7
58.270        20
58.280        40
58.290        20
58.300        27
58.310        27
58.320         7
58.330         7
58.340        20
58.350        20
58.360        20
58.370        13
58.380        33
58.390        27
58.400         7
58.410         7
58.420        27
58.430        20
58.440        27
58.450        20
58.460        27
58.470         7
58.480        20
58.490         7
58.500        13
58.510         7
58.520        27
58.530        13
58.540         0
58.550        20
58.560        13
58.570        27
58.580        27
58.590        13
58.600        20
58.610        27
58.620        13
58.630        13
58.640         7
58.650        13
58.660        13
58.670         0
58.680        20
58.690        20
58.700        20
58.710        20
58.720        33
58.730        20
58.740        27
58.750        13
58.760        20
58.770         7
58.780        20
58.790        20
58.800         0
58.810        13
58.820        33
58.830         7
58.840        13
58.850         7
58.860        13
58.870        13
58.880         7
58.890        53
58.900         7
58.910         7
58.920        13
58.930         0
58.940        13
58.950        20
58.960         7
58.970        27
58.980        20
58.990        13
59.000         7
59.010         7
59.020         0
59.030         7
59.040        20
59.050        27
59.060        27
59.070         0
59.080        13
59.090        20
59.100        33
59.110        40
59.120        13
59.130         7
59.140        13
59.150        13
59.160        20
59.170        20
59.180        20
59.190        20
59.200        20
59.210        33
59.220        13
59.230        13
59.240        27
59.250        27
59.260         0
59.270        33
59.280        47
59.290         0
59.300        47
59.310         7
59.320        20
59.330        13
59.340        13
59.350        33
59.360         7
59.370        13
59.380        27
59.390         7
59.400        27
59.410         0
59.420        33
59.430         7
59.440        20
59.450        27
59.460        33
59.470        13
59.480        33
59.490        27
59.500        13
59.510        13
59.520        13
59.530        13
59.540        20
59.550         0
59.560        20
59.570        27
59.580        40
59.590        27
59.600         0
59.610        13
59.620         0
59.630        13
59.640        20
59.650        27
59.660        20
59.670        13
59.680        13
59.690        13
59.700        20
59.710        13
59.720        20
59.730        13
59.740         7
59.750        13
59.760        13
59.770        27
59.780        13
59.790        13
59.800        33
59.810        47
59.820        27
59.830        13
59.840        20
59.850         7
59.860        33
59.870        13
59.880        20
59.890        13
59.900        20
59.910        27
59.920        20
59.930         7
59.940        13
59.950        47
59.960        27
59.970         0
59.980         7
59.990        13
60.000        13
