20.000        40
20.010        40
20.020        40
20.030        27
20.040        33
20.050        60
20.060        53
20.070        27
20.080        27
20.090        40
20.100        40
20.110        53
20.120        40
20.130        47
20.140        40
20.150        60
20.160        53
20.170        47
20.180        27
20.190        80
20.200        33
20.210        53
20.220        87
20.230        47
20.240        47
20.250        27
20.260        60
20.270        20
20.280        40
20.290        20
20.300        33
20.310        33
20.320        67
20.330        47
20.340        40
20.350        33
20.360        47
20.370        60
20.380        67
20.390        40
20.400        80
20.410        33
20.420        27
20.430        47
20.440        27
20.450        67
20.460        67
20.470        20
20.480        33
20.490        20
20.500        20
20.510        20
20.520        47
20.530        53
20.540        20
20.550        47
20.560        40
20.570        47
20.580        53
20.590        60
20.600        33
20.610         7
20.620        27
20.630        33
20.640        40
20.650        20
20.660        47
20.670        27
20.680        53
20.690        27
20.700        53
20.710        40
20.720        47
20.730        53
20.740        53
20.750        47
20.760        13
20.770        73
20.780        47
20.790        27
20.800        33
20.810        53
20.820        40
20.830        33
20.840        67
20.850        53
20.860        67
20.870        47
20.880        27
20.890        40
20.900        33
20.910        20
20.920        40
20.930        33
20.940        40
20.950        33
20.960        40
20.970        80
20.980        60
20.990        87
21.000        60
21.010        20
21.020        40
21.030        40
21.040        33
21.050        67
21.060        47
21.070        33
21.080        87
21.090        40
21.100        33
21.110        47
21.120        60
21.130        53
21.140        27
21.150        47
21.160        47
21.170        20
21.180        33
21.190        33
21.200        47
21.210        67
21.220        47
21.230        33
21.240        40
21.250        40
21.260        47
21.270        20
21.280        33
21.290        67
21.300        33
21.310        33
21.320        20
21.330        47
21.340        27
21.350        60
21.360        33
21.370        53
21.380        47
21.390        40
21.400        47
21.410        33
21.420        33
21.430        13
21.440        27
21.450        20
21.460        40
21.470        40
21.480        27
21.490        20
21.500        60
21.510        40
21.520        40
21.530        47
21.540        27
21.550        60
21.560        47
21.570        33
21.580        40
21.590        40
21.600        27
21.610        33
21.620        20
21.630        53
21.640        87
21.650        47
21.660        20
21.670        20
21.680        60
21.690        53
21.700        33
21.710        40
21.720        87
21.730        47
21.740        40
21.750        53
21.760        67
21.770        40
21.780        40
21.790        33
21.800        53
21.810        40
21.820        67
21.830        47
21.840        33
21.850        33
21.860        47
21.870        20
21.880        40
21.890        33
21.900        47
21.910        33
21.920        40
21.930        33
21.940        53
21.950        47
21.960        67
21.970        27
21.980        40
21.990        53
22.000        40
22.010        33
22.020        33
22.030        27
22.040        20
22.050        53
22.060        27
22.070        27
22.080        27
22.090        27
22.100        33
22.110        27
22.120        47
22.130        27
22.140        53
22.150        60
22.160        40
22.170        40
22.180        20
22.190        27
22.200        53
22.210        27
22.220        27
22.230        53
22.240        40
22.250        53
22.260        20
22.270        87
22.280        40
22.290        13
22.300        20
22.310        27
22.320        53
22.330        40
22.340        73
22.350        47
22.360        40
22.370        53
22.380        40
22.390        67
22.400        27
22.410        47
22.420        33
22.430        27
22.440        53
22.450        47
22.460        47
22.470        67
22.480        47
22.490        67
22.500        53
22.510        73
22.520        33
22.530        40
22.540        33
22.550        40
22.560        60
22.570        40
22.580        67
22.590        67
22.600        40
22.610        40
22.620        53
22.630        67
22.640       107
22.650       100
22.660       100
22.670        53
22.680       100
22.690       140
22.700       147
22.710        80
22.720        40
22.730        80
22.740        60
22.750       107
22.760        60
22.770        67
22.780        73
22.790        60
22.800        87
22.810        80
22.820       100
22.830        73
22.840        40
22.850        60
22.860        60
22.870        47
22.880        60
22.890        53
22.900        33
22.910        27
22.920        40
22.930        47
22.940        40
22.950        53
22.960        20
22.970        40
22.980        53
22.990        33
23.000        33
23.010        47
23.020        47
23.030        73
23.040        33
23.050        60
23.060        40
23.070        60
23.080        33
23.090        47
23.100        80
23.110        27
23.120        33
23.130        47
23.140        60
23.150        33
23.160        40
23.170        20
23.180        33
23.190        53
23.200        47
23.210        67
23.220        40
23.230        47
23.240        13
23.250        13
23.260        40
23.270        40
23.280        27
23.290        27
23.300        20
23.310        27
23.320        47
23.330        40
23.340        53
23.350        40
23.360        33
23.370        33
23.380        33
23.390        40
23.400        53
23.410        27
23.420        47
23.430        27
23.440        20
23.450        27
23.460        60
23.470        47
23.480        47
23.490        60
23.500        20
23.510        13
23.520        20
23.530        40
23.540        33
23.550        33
23.560         7
23.570        27
23.580        47
23.590        47
23.600        20
23.610        40
23.620        60
23.630        60
23.640        27
23.650        27
23.660        53
23.670        53
23.680        60
23.690        20
23.700        47
23.710        40
23.720        40
23.730        40
23.740       100
23.750        20
23.760        20
23.770        27
23.780        27
23.790        53
23.800        40
23.810        20
23.820        20
23.830        27
23.840        53
23.850        40
23.860        47
23.870        40
23.880        13
23.890        33
23.900         7
23.910        67
23.920        13
23.930        40
23.940        53
23.950        40
23.960        53
23.970        27
23.980        40
23.990        60
24.000        13
24.010        27
24.020        40
24.030        20
24.040        27
24.050        27
24.060        20
24.070        13
24.080        33
24.090        13
24.100        27
24.110        47
24.120        27
24.130        20
24.140        40
24.150        20
24.160        33
24.170        33
24.180        33
24.190        40
24.200        47
24.210        33
24.220        27
24.230        67
24.240        27
24.250        27
24.260        73
24.270        67
24.280        60
24.290        40
24.300        40
24.310        40
24.320        60
24.330        40
24.340         7
24.350        33
24.360        20
24.370        20
24.380        13
24.390        27
24.400        53
24.410        40
24.420        47
24.430        47
24.440        33
24.450        20
24.460        27
24.470        20
24.480         7
24.490        33
24.500        47
24.510        27
24.520        27
24.530        27
24.540        40
24.550        33
24.560        27
24.570        47
24.580        53
24.590        53
24.600        27
24.610        47
24.620        27
24.630        27
24.640        47
24.650        13
24.660         7
24.670        27
24.680        33
24.690        47
24.700        27
24.710        27
24.720        53
24.730        53
24.740        47
24.750        27
24.760        27
24.770        20
24.780        47
24.790        33
24.800        33
24.810        53
24.820        33
24.830        33
24.840        33
24.850        33
24.860        27
24.870        53
24.880        47
24.890        33
24.900        13
24.910        33
24.920        40
24.930        33
24.940        40
24.950        27
24.960        33
24.970        27
24.980        47
24.990        20
25.000        27
25.010        33
25.020        20
25.030        20
25.040        47
25.050        27
25.060        53
25.070        67
25.080        47
25.090        13
25.100        40
25.110        33
25.120        13
25.130        27
25.140        40
25.150        33
25.160        13
25.170        27
25.180        40
25.190        27
25.200        53
25.210        80
25.220        20
25.230        20
25.240        33
25.250        60
25.260        33
25.270         7
25.280        27
25.290        40
25.300        33
25.310        20
25.320         7
25.330        20
25.340        53
25.350        33
25.360        20
25.370        73
25.380        40
25.390        27
25.400        53
25.410        20
25.420        40
25.430        33
25.440        27
25.450        53
25.460        67
25.470        27
25.480        73
25.490        47
25.500        33
25.510        27
25.520        20
25.530        27
25.540        47
25.550        53
25.560        87
25.570        93
25.580        33
25.590        53
25.600       100
25.610        47
25.620        60
25.630        47
25.640        47
25.650        67
25.660        20
25.670        47
25.680        40
25.690        40
25.700        40
25.710        27
25.720        27
25.730        27
25.740        40
25.750        20
25.760        20
25.770        27
25.780        40
25.790        47
25.800        67
25.810        40
25.820        13
25.830        20
25.840        40
25.850        20
25.860        20
25.870        20
25.880        20
25.890        47
25.900         7
25.910        67
25.920        40
25.930        33
25.940        33
25.950        60
25.960        33
25.970        33
25.980        53
25.990        53
26.000        67
26.010        73
26.020        40
26.030        33
26.040        60
26.050        20
26.060        40
26.070         7
26.080         7
26.090        13
26.100        47
26.110        20
26.120        53
26.130        53
26.140        13
26.150        40
26.160        27
26.170        27
26.180        80
26.190        47
26.200        33
26.210        33
26.220        40
26.230        20
26.240        13
26.250        40
26.260        40
26.270        33
26.280        20
26.290        40
26.300        47
26.310        40
26.320        27
26.330        53
26.340        27
26.350        20
26.360         7
26.370        20
26.380        20
26.390        27
26.400        40
26.410         7
26.420        13
26.430        20
26.440        33
26.450        27
26.460        40
26.470        27
26.480        33
26.490        33
26.500        47
26.510        20
26.520        13
26.530        13
26.540        47
26.550        33
26.560        27
26.570        47
26.580        27
26.590        40
26.600        20
26.610        33
26.620        20
26.630        33
26.640        27
26.650        47
26.660        40
26.670        27
26.680        27
26.690        33
26.700        33
26.710        13
26.720        20
26.730        13
26.740        40
26.750        67
26.760        20
26.770        13
26.780        13
26.790        27
26.800        33
26.810        53
26.820        40
26.830        47
26.840        27
26.850        13
26.860        27
26.870        13
26.880        13
26.890        27
26.900        20
26.910        20
26.920        33
26.930        33
26.940        67
26.950        13
26.960        27
26.970        20
26.980        40
26.990        20
27.000        13
27.010        33
27.020        20
27.030         7
27.040        47
27.050        53
27.060        20
27.070        40
27.080        47
27.090        20
27.100         7
27.110        40
27.120        40
27.130        40
27.140        33
27.150        13
27.160        33
27.170        33
27.180        47
27.190        33
27.200        47
27.210        40
27.220         7
27.230        27
27.240        13
27.250        20
27.260        47
27.270         7
27.280        13
27.290        47
27.300        27
27.310        40
27.320        47
27.330        13
27.340        20
27.350        40
27.360        27
27.370        33
27.380        27
27.390         0
27.400        20
27.410        20
27.420        33
27.430        33
27.440        33
27.450        60
27.460        27
27.470        33
27.480         0
27.490        13
27.500        40
27.510        33
27.520        27
27.530        27
27.540        40
27.550        40
27.560        20
27.570        53
27.580        33
27.590         7
27.600        40
27.610        27
27.620        27
27.630        40
27.640        33
27.650        27
27.660        20
27.670        60
27.680        47
27.690        20
27.700        47
27.710        33
27.720        33
27.730         7
27.740        33
27.750        20
27.760        13
27.770        20
27.780        33
27.790        33
27.800        40
27.810        33
27.820        27
27.830        20
27.840        27
27.850        40
27.860        20
27.870        53
27.880        33
27.890        60
27.900        33
27.910         7
27.920         7
27.930        20
27.940        33
27.950        33
27.960        27
27.970        33
27.980        27
27.990        20
28.000        27
28.010        80
28.020        53
28.030        33
28.040        53
28.050        67
28.060         0
28.070        33
28.080         7
28.090        47
28.100        27
28.110        27
28.120        20
28.130        33
28.140        33
28.150         7
28.160        20
28.170        40
28.180        27
28.190        13
28.200        47
28.210        20
28.220        27
28.230        33
28.240        20
28.250        33
28.260         7
28.270        13
28.280        20
28.290        33
28.300        33
28.310        33
28.320        40
28.330        40
28.340        27
28.350        27
28.360        20
28.370        27
28.380        13
28.390        33
28.400        40
28.410        27
28.420        27
28.430        27
28.440        33
28.450        13
28.460        27
28.470        40
28.480        40
28.490        13
28.500        20
28.510        20
28.520        13
28.530        13
28.540        33
28.550        27
28.560        40
28.570        27
28.580        13
28.590        20
28.600        27
28.610        13
28.620        27
28.630        13
28.640        33
28.650        33
28.660         7
28.670        27
28.680        13
28.690        53
28.700        20
28.710        40
28.720        20
28.730        20
28.740         7
28.750        20
28.760        47
28.770        20
28.780        20
28.790        27
28.800        33
28.810        27
28.820        33
28.830        40
28.840        27
28.850        40
28.860        20
28.870        27
28.880        47
28.890        13
28.900        13
28.910        27
28.920        40
28.930        60
28.940        27
28.950        33
28.960        27
28.970         7
28.980        33
28.990        47
29.000        67
29.010        67
29.020        27
29.030         7
29.040        13
29.050        13
29.060        33
29.070        20
29.080        40
29.090        27
29.100        33
29.110        20
29.120        20
29.130        60
29.140        53
29.150        40
29.160        53
29.170        33
29.180        20
29.190        20
29.200        33
29.210        27
29.220        20
29.230        40
29.240        27
29.250        33
29.260        40
29.270        20
29.280        33
29.290         7
29.300        20
29.310        13
29.320        27
29.330        47
29.340        13
29.350        20
29.360         0
29.370        33
29.380        53
29.390        20
29.400        33
29.410        13
29.420        13
29.430        33
29.440        20
29.450        20
29.460        33
29.470        33
29.480         7
29.490        33
29.500        47
29.510        33
29.520         7
29.530        33
29.540        13
29.550        20
29.560        20
29.570        27
29.580        33
29.590        20
29.600        40
29.610        40
29.620        27
29.630        27
29.640        20
29.650        20
29.660        13
29.670        33
29.680        40
29.690        27
29.700         7
29.710        60
29.720        20
29.730        13
29.740        20
29.750        13
29.760        33
29.770        33
29.780        13
29.790        27
29.800        20
29.810         7
29.820        27
29.830        53
29.840        27
29.850        13
29.860        13
29.870        40
29.880        20
29.890        33
29.900        20
29.910        27
29.920        40
29.930        27
29.940        27
29.950        27
29.960        47
29.970        47
29.980         7
29.990         7
30.000        40
30.010        13
30.020        13
30.030         0
30.040         7
30.050        40
30.060        40
30.070        33
30.080        13
30.090        33
30.100        40
30.110        27
30.120        40
30.130        27
30.140        13
30.150        20
30.160        13
30.170        33
30.180        13
30.190         7
30.200         7
30.210         7
30.220        47
30.230        33
30.240        53
30.250        20
30.260         7
30.270        27
30.280        20
30.290         0
30.300        20
30.310         7
30.320        27
30.330        53
30.340        27
30.350        13
30.360        20
30.370        33
30.380        27
30.390        33
30.400         0
30.410        73
30.420        47
30.430        13
30.440        33
30.450        47
30.460        33
30.470        27
30.480        20
30.490        27
30.500        20
30.510        20
30.520        27
30.530         0
30.540        47
30.550        20
30.560        40
30.570        27
30.580         0
30.590        27
30.600         7
30.610         7
30.620        13
30.630        13
30.640        27
30.650         7
30.660         0
30.670        33
30.680        13
30.690        40
30.700         7
30.710        40
30.720        13
30.730        40
30.740        20
30.750        33
30.760        20
30.770        20
30.780        40
30.790        33
30.800        40
30.810        20
30.820        27
30.830        20
30.840        33
30.850        20
30.860        33
30.870        27
30.880        20
30.890        27
30.900        33
30.910        13
30.920        20
30.930        20
30.940        20
30.950        13
30.960        13
30.970         7
30.980        27
30.990        20
31.000        20
31.010        27
31.020        20
31.030        20
31.040         0
31.050        13
31.060        20
31.070        20
31.080        27
31.090        53
31.100        40
31.110        27
31.120        40
31.130        33
31.140        13
31.150        27
31.160         7
31.170        33
31.180         0
31.190        20
31.200        20
31.210        40
31.220        27
31.230        20
31.240        60
31.250        33
31.260        20
31.270        40
31.280        13
31.290        53
31.300        27
31.310        20
31.320        33
31.330        20
31.340        53
31.350        20
31.360        47
31.370         7
31.380        13
31.390        13
31.400        73
31.410        27
31.420        33
31.430        27
31.440        27
31.450        33
31.460        27
31.470        27
31.480        20
31.490        27
31.500        13
31.510        20
31.520        40
31.530        33
31.540         7
31.550        27
31.560         7
31.570        33
31.580        20
31.590        20
31.600        20
31.610        33
31.620        20
31.630         7
31.640        20
31.650        13
31.660        13
31.670        27
31.680        27
31.690        27
31.700        40
31.710        47
31.720        33
31.730        20
31.740        20
31.750        40
31.760        67
31.770         7
31.780        13
31.790        53
31.800        40
31.810         7
31.820        33
31.830        27
31.840        13
31.850        20
31.860        33
31.870        13
31.880        20
31.890        13
31.900        20
31.910        20
31.920        33
31.930        33
31.940        33
31.950        20
31.960        33
31.970        33
31.980        40
31.990        40
32.000        13
32.010        13
32.020        47
32.030        40
32.040        20
32.050        27
32.060        33
32.070        40
32.080        33
32.090        67
32.100        60
32.110        87
32.120        53
32.130        20
32.140        40
32.150        27
32.160        33
32.170        13
32.180        13
32.190        40
32.200        47
32.210        47
32.220        40
32.230        53
32.240        47
32.250        53
32.260        27
32.270        33
32.280        47
32.290       107
32.300        67
32.310        73
32.320        67
32.330        73
32.340       113
32.350        73
32.360        67
32.370       113
32.380       127
32.390        87
32.400        93
32.410       120
32.420       153
32.430       133
32.440       113
32.450       147
32.460       160
32.470       120
32.480       160
32.490       153
32.500       100
32.510       127
32.520       120
32.530        60
32.540       107
32.550        87
32.560        33
32.570        47
32.580        67
32.590        33
32.600        73
32.610        47
32.620        67
32.630        47
32.640        67
32.650        40
32.660        53
32.670        33
32.680        27
32.690        33
32.700        27
32.710        60
32.720        47
32.730        47
32.740         7
32.750         0
32.760        33
32.770        53
32.780        47
32.790        27
32.800        20
32.810        47
32.820        27
32.830        27
32.840        13
32.850        40
32.860        40
32.870         7
32.880        20
32.890        33
32.900        20
32.910        33
32.920        27
32.930        27
32.940        20
32.950        13
32.960        20
32.970        13
32.980        20
32.990        27
33.000        40
33.010        27
33.020        20
33.030        20
33.040        20
33.050        20
33.060        27
33.070        27
33.080        20
33.090        20
33.100        20
33.110        13
33.120        13
33.130        20
33.140        13
33.150        13
33.160         7
33.170         7
33.180        13
33.190        27
33.200        33
33.210        47
33.220         7
33.230        47
33.240        13
33.250        20
33.260        27
33.270        60
33.280        47
33.290        27
33.300        33
33.310        13
33.320        27
33.330        27
33.340         7
33.350        20
33.360        13
33.370        33
33.380        20
33.390        33
33.400        27
33.410         7
33.420        20
33.430        13
33.440        20
33.450        20
33.460        33
33.470        13
33.480        40
33.490         7
33.500         7
33.510        20
33.520        33
33.530        47
33.540        40
33.550        47
33.560         7
33.570        13
33.580        13
33.590        20
33.600         7
33.610        27
33.620         7
33.630        47
33.640        20
33.650        27
33.660        20
33.670        13
33.680        27
33.690        33
33.700        27
33.710        20
33.720        27
33.730        20
33.740        13
33.750        33
33.760        27
33.770         7
33.780        27
33.790         0
33.800        20
33.810         7
33.820        13
33.830         7
33.840         0
33.850        20
33.860        20
33.870         7
33.880        13
33.890        13
33.900        47
33.910        27
33.920        20
33.930        27
33.940         7
33.950         0
33.960        13
33.970        33
33.980        13
33.990        33
34.000        27
34.010        27
34.020        13
34.030        47
34.040        33
34.050        33
34.060        13
34.070        27
34.080        33
34.090        20
34.100        40
34.110        27
34.120        13
34.130        20
34.140        53
34.150        33
34.160        27
34.170        13
34.180        53
34.190        47
34.200        20
34.210         7
34.220        13
34.230        13
34.240        33
34.250        40
34.260        13
34.270        47
34.280        20
34.290        33
34.300        33
34.310         7
34.320        27
34.330        33
34.340        20
34.350        20
34.360        20
34.370        33
34.380        13
34.390        40
34.400        40
34.410        53
34.420        33
34.430        27
34.440        13
34.450        27
34.460        20
34.470         0
34.480        33
34.490        27
34.500        27
34.510        13
34.520         7
34.530        40
34.540         0
34.550        47
34.560        27
34.570        27
34.580        47
34.590        27
34.600        20
34.610        13
34.620        40
34.630        33
34.640        27
34.650        40
34.660        13
34.670        20
34.680        20
34.690        20
34.700        13
34.710        53
34.720        27
34.730        47
34.740        13
34.750        27
34.760        13
34.770        13
34.780        20
34.790        27
34.800         7
34.810         0
34.820        13
34.830        40
34.840        27
34.850        33
34.860        33
34.870        20
34.880        20
34.890        60
34.900        33
34.910        33
34.920        27
34.930        20
34.940        60
34.950        13
34.960        33
34.970        53
34.980        40
34.990        33
35.000        27
35.010        53
35.020         7
35.030        47
35.040        60
35.050        47
35.060        87
35.070        67
35.080        80
35.090        33
35.100        53
35.110       100
35.120        80
35.130       200
35.140       120
35.150       253
35.160       207
35.170       180
35.180       167
35.190       167
35.200       133
35.210       133
35.220       133
35.230       160
35.240       107
35.250       127
35.260       133
35.270       133
35.280       140
35.290       113
35.300        73
35.310        33
35.320        27
35.330        33
35.340        33
35.350        20
35.360        33
35.370        33
35.380        27
35.390        20
35.400        13
35.410        40
35.420         7
35.430        33
35.440        33
35.450        33
35.460        40
35.470        33
35.480        20
35.490        33
35.500         7
35.510         0
35.520        20
35.530        27
35.540        13
35.550        20
35.560        33
35.570         7
35.580        27
35.590         7
35.600         7
35.610        47
35.620        27
35.630        20
35.640        13
35.650        13
35.660        13
35.670        13
35.680        13
35.690        47
35.700        20
35.710        20
35.720        53
35.730         7
35.740        20
35.750        13
35.760        13
35.770        20
35.780        20
35.790        27
35.800        27
35.810        27
35.820        27
35.830        13
35.840        40
35.850        33
35.860        13
35.870        13
35.880        40
35.890        13
35.900        13
35.910        33
35.920        20
35.930        20
35.940        33
35.950        13
35.960        20
35.970         0
35.980        20
35.990        13
36.000        27
36.010        20
36.020        53
36.030        27
36.040        20
36.050        27
36.060        13
36.070        20
36.080        20
36.090        13
36.100        20
36.110        53
36.120        20
36.130        27
36.140        13
36.150        40
36.160        20
36.170         7
36.180        20
36.190        27
36.200        20
36.210         0
36.220        20
36.230        33
36.240        20
36.250        13
36.260        33
36.270        33
36.280         7
36.290        67
36.300         7
36.310        13
36.320        27
36.330        33
36.340        20
36.350        33
36.360        33
36.370         7
36.380        40
36.390        20
36.400        27
36.410        13
36.420        33
36.430        33
36.440        13
36.450        20
36.460        40
36.470        33
36.480        33
36.490        33
36.500        13
36.510        47
36.520        27
36.530        20
36.540        27
36.550        27
36.560        33
36.570        13
36.580        20
36.590        47
36.600         0
36.610         7
36.620        13
36.630        13
36.640        13
36.650        13
36.660        47
36.670         7
36.680        33
36.690        13
36.700        20
36.710         0
36.720        33
36.730        20
36.740        20
36.750        20
36.760        33
36.770        27
36.780        33
36.790        20
36.800        13
36.810         7
36.820        33
36.830        20
36.840        13
36.850        33
36.860         0
36.870        27
36.880        40
36.890        20
36.900        33
36.910        27
36.920         7
36.930        33
36.940        13
36.950         7
36.960        27
36.970        13
36.980         7
36.990        20
37.000        20
37.010        47
37.020        33
37.030        47
37.040        20
37.050        27
37.060        13
37.070        33
37.080        13
37.090        13
37.100        20
37.110        13
37.120        33
37.130        33
37.140        60
37.150        13
37.160        40
37.170         7
37.180        13
37.190         7
37.200        33
37.210        27
37.220        33
37.230        27
37.240        13
37.250        20
37.260        13
37.270        53
37.280        33
37.290        20
37.300        27
37.310        20
37.320        60
37.330        40
37.340        40
37.350         0
37.360        33
37.370        13
37.380        53
37.390        33
37.400         7
37.410        13
37.420        13
37.430        27
37.440        40
37.450        33
37.460        13
37.470        13
37.480        20
37.490        13
37.500        47
37.510        13
37.520        73
37.530        27
37.540         7
37.550        47
37.560         7
37.570        13
37.580         0
37.590        13
37.600         7
37.610         7
37.620        20
37.630        13
37.640         7
37.650        33
37.660        20
37.670        27
37.680         7
37.690        27
37.700        13
37.710        33
37.720        20
37.730        47
37.740        27
37.750        13
37.760        20
37.770        53
37.780        53
37.790        80
37.800        67
37.810        53
37.820        33
37.830        40
37.840        27
37.850        60
37.860        27
37.870        53
37.880         7
37.890        27
37.900        27
37.910        20
37.920        33
37.930        20
37.940        47
37.950        27
37.960        20
37.970        20
37.980        13
37.990        13
38.000         0
38.010        20
38.020        20
38.030        53
38.040        40
38.050        27
38.060        47
38.070        27
38.080         7
38.090        20
38.100        27
38.110        27
38.120         7
38.130        33
38.140        53
38.150        13
38.160        27
38.170        13
38.180         7
38.190        20
38.200        33
38.210        20
38.220        47
38.230        33
38.240         0
38.250        27
38.260        13
38.270         7
38.280        13
38.290        13
38.300        27
38.310        27
38.320        27
38.330         7
38.340        40
38.350        33
38.360         7
38.370        33
38.380        27
38.390        13
38.400        20
38.410        27
38.420         7
38.430        47
38.440         7
38.450        20
38.460        27
38.470         7
38.480         0
38.490        27
38.500        33
38.510        20
38.520        40
38.530        20
38.540        33
38.550        20
38.560        47
38.570        20
38.580        20
38.590        20
38.600        27
38.610        20
38.620        27
38.630        33
38.640        13
38.650        53
38.660        27
38.670        40
38.680        13
38.690        20
38.700        27
38.710        20
38.720        33
38.730        27
38.740        33
38.750        13
38.760        13
38.770        20
38.780        13
38.790        20
38.800        33
38.810        47
38.820        60
38.830        27
38.840        60
38.850        27
38.860        27
38.870         7
38.880        20
38.890        13
38.900         7
38.910         0
38.920        40
38.930        27
38.940        13
38.950        20
38.960        33
38.970        13
38.980        20
38.990         7
39.000        27
39.010        33
39.020        73
39.030        20
39.040        33
39.050         7
39.060        33
39.070        40
39.080        20
39.090        33
39.100        20
39.110        13
39.120         7
39.130         7
39.140        20
39.150        20
39.160        67
39.170         7
39.180        20
39.190        27
39.200         0
39.210        13
39.220        13
39.230         7
39.240        33
39.250        53
39.260        20
39.270        40
39.280         7
39.290        20
39.300        13
39.310        27
39.320        33
39.330        60
39.340        13
39.350        27
39.360        13
39.370        20
39.380         7
39.390        47
39.400        20
39.410        13
39.420        40
39.430        33
39.440        27
39.450        20
39.460        33
39.470        47
39.480        20
39.490        60
39.500        60
39.510        40
39.520        13
39.530        40
39.540        13
39.550        53
39.560        20
39.570        27
39.580        20
39.590        27
39.600        40
39.610        27
39.620        20
39.630        47
39.640        80
39.650        40
39.660        73
39.670        33
39.680        73
39.690        40
39.700        67
39.710        73
39.720        33
39.730        40
39.740        47
39.750        53
39.760        47
39.770        93
39.780       113
39.790        67
39.800        47
39.810        67
39.820       100
39.830        87
39.840       140
39.850       160
39.860       127
39.870       200
39.880       240
39.890       227
39.900       267
39.910       333
39.920       393
39.930       407
39.940       360
39.950       500
39.960       526
39.970       620
39.980       593
39.990       626
40.000       793
40.010       666
40.020       680
40.030       540
40.040       613
40.050       593
40.060       520
40.070       480
40.080       500
40.090       453
40.100       360
40.110       353
40.120       373
40.130       400
40.140       280
40.150       253
40.160       207
40.170       253
40.180       173
40.190       153
40.200       120
40.210       120
40.220        93
40.230       153
40.240       100
40.250        67
40.260        87
40.270        87
40.280        20
40.290        33
40.300        47
40.310        27
40.320        47
40.330        73
40.340        40
40.350        47
40.360        20
40.370        20
40.380        33
40.390        27
40.400        33
40.410         7
40.420        27
40.430        53
40.440        27
40.450         7
40.460        40
40.470         7
40.480        13
40.490        40
40.500        53
40.510        13
40.520        40
40.530        33
40.540        33
40.550        13
40.560        20
40.570        47
40.580        20
40.590        40
40.600        27
40.610        40
40.620        27
40.630         0
40.640        13
40.650        33
40.660        27
40.670        40
40.680        13
40.690        60
40.700        20
40.710        13
40.720        47
40.730        33
40.740        20
40.750        13
40.760        20
40.770         7
40.780        27
40.790        27
40.800        13
40.810        20
40.820        40
40.830        20
40.840        33
40.850        27
40.860        13
40.870        20
40.880        13
40.890        20
40.900        20
40.910        20
40.920        40
40.930        13
40.940        13
40.950        40
40.960        20
40.970        53
40.980        33
40.990        20
41.000        27
41.010        20
41.020         7
41.030        20
41.040        27
41.050        20
41.060        20
41.070        47
41.080        33
41.090        20
41.100        27
41.110         7
41.120        20
41.130        33
41.140         7
41.150        53
41.160        20
41.170        80
41.180        20
41.190        20
41.200        27
41.210        20
41.220        40
41.230        33
41.240        20
41.250         0
41.260        27
41.270        40
41.280        13
41.290        40
41.300         7
41.310        13
41.320        20
41.330        13
41.340        13
41.350        40
41.360        33
41.370        33
41.380        47
41.390        27
41.400        40
41.410        47
41.420        20
41.430        27
41.440        20
41.450        27
41.460        40
41.470        27
41.480        20
41.490         7
41.500         7
41.510        13
41.520        33
41.530        33
41.540        47
41.550        20
41.560        47
41.570        80
41.580        60
41.590        47
41.600        60
41.610        47
41.620        53
41.630       100
41.640        67
41.650       167
41.660       147
41.670       167
41.680       173
41.690       207
41.700       173
41.710       207
41.720       160
41.730       120
41.740       133
41.750        53
41.760       107
41.770       107
41.780       140
41.790        80
41.800       100
41.810        80
41.820       133
41.830       107
41.840        93
41.850        73
41.860        80
41.870        27
41.880        53
41.890        40
41.900        13
41.910        13
41.920        33
41.930        27
41.940        27
41.950        13
41.960        20
41.970        40
41.980        20
41.990        33
42.000        27
42.010        47
42.020        40
42.030        33
42.040        20
42.050        53
42.060        13
42.070        27
42.080        20
42.090        13
42.100        20
42.110        20
42.120        33
42.130        20
42.140        33
42.150        33
42.160        40
42.170        20
42.180        20
42.190        13
42.200        33
42.210        27
42.220        47
42.230        13
42.240        53
42.250        13
42.260        13
42.270        27
42.280        40
42.290        27
42.300        53
42.310        27
42.320         7
42.330        20
42.340        27
42.350         7
42.360        13
42.370        40
42.380        20
42.390        40
42.400        20
42.410         0
42.420        20
42.430        20
42.440        13
42.450        20
42.460        13
42.470        47
42.480        13
42.490        13
42.500        20
42.510        20
42.520        27
42.530        20
42.540         0
42.550        27
42.560        47
42.570        20
42.580        27
42.590        13
42.600        27
42.610        20
42.620        27
42.630        33
42.640        27
42.650         7
42.660        20
42.670        20
42.680        20
42.690        13
42.700        13
42.710        13
42.720        20
42.730        27
42.740        13
42.750         7
42.760        20
42.770        20
42.780        20
42.790        27
42.800        13
42.810        40
42.820        13
42.830        20
42.840        13
42.850        27
42.860        27
42.870        20
42.880         7
42.890        33
42.900         7
42.910        13
42.920        33
42.930        33
42.940        33
42.950        33
42.960        40
42.970        13
42.980        73
42.990        20
43.000        33
43.010        33
43.020        33
43.030        47
43.040        13
43.050        33
43.060         7
43.070        40
43.080        33
43.090         7
43.100        40
43.110         7
43.120        20
43.130        13
43.140        20
43.150        20
43.160        27
43.170        20
43.180        40
43.190        40
43.200        13
43.210        27
43.220        33
43.230        60
43.240        33
43.250        13
43.260        93
43.270        20
43.280        73
43.290        67
43.300       100
43.310       160
43.320       200
43.330       220
43.340       240
43.350       260
43.360       233
43.370       193
43.380       193
43.390       140
43.400       120
43.410       107
43.420        67
43.430       133
43.440       173
43.450       127
43.460       140
43.470       140
43.480       100
43.490       113
43.500       113
43.510        60
43.520        60
43.530        40
43.540        47
43.550        20
43.560        60
43.570        20
43.580        27
43.590        27
43.600        40
43.610        27
43.620         0
43.630        33
43.640         7
43.650        40
43.660        27
43.670        20
43.680        40
43.690        33
43.700        40
43.710        27
43.720         7
43.730        27
43.740        40
43.750        13
43.760        33
43.770        13
43.780        40
43.790        33
43.800         7
43.810        33
43.820        20
43.830        27
43.840        20
43.850         0
43.860        27
43.870        20
43.880        47
43.890        40
43.900         7
43.910        20
43.920        47
43.930        13
43.940        27
43.950         7
43.960        27
43.970        20
43.980        20
43.990        20
44.000         7
44.010        13
44.020        27
44.030        13
44.040        13
44.050        40
44.060        33
44.070        27
44.080        13
44.090         0
44.100        47
44.110         7
44.120        13
44.130        13
44.140        13
44.150        27
44.160        13
44.170        13
44.180        13
44.190        27
44.200        27
44.210        33
44.220        33
44.230        20
44.240        20
44.250        60
44.260        40
44.270        27
44.280        40
44.290        13
44.300         7
44.310        13
44.320        20
44.330        20
44.340        13
44.350        47
44.360        27
44.370        27
44.380        20
44.390        27
44.400         0
44.410        13
44.420        40
44.430        33
44.440        13
44.450        33
44.460        27
44.470        20
44.480        20
44.490        27
44.500        27
44.510        33
44.520        40
44.530        20
44.540        27
44.550        40
44.560        20
44.570         0
44.580        47
44.590         7
44.600        20
44.610        27
44.620        27
44.630        27
44.640        27
44.650        13
44.660        33
44.670        40
44.680        27
44.690         7
44.700        20
44.710        27
44.720        20
44.730        13
44.740        27
44.750        40
44.760        13
44.770        33
44.780        40
44.790        27
44.800        47
44.810        20
44.820        33
44.830        67
44.840        40
44.850        20
44.860        53
44.870        13
44.880        67
44.890        13
44.900        20
44.910        40
44.920        60
44.930        20
44.940        33
44.950        47
44.960        27
44.970        47
44.980        27
44.990        27
45.000        53
45.010        20
45.020        27
45.030        27
45.040        47
45.050        33
45.060        20
45.070        20
45.080        40
45.090        33
45.100        27
45.110        33
45.120        47
45.130        27
45.140        27
45.150        27
45.160        20
45.170         0
45.180        27
45.190        13
45.200        27
45.210        27
45.220        53
45.230        27
45.240        27
45.250        20
45.260        20
45.270        40
45.280        33
45.290        33
45.300        20
45.310        13
45.320        33
45.330        40
45.340        27
45.350        27
45.360        33
45.370        40
45.380        27
45.390        13
45.400        40
45.410        27
45.420         7
45.430        53
45.440         7
45.450        33
45.460        13
45.470        33
45.480         7
45.490        20
45.500        47
45.510        40
45.520        47
45.530        67
45.540        20
45.550        47
45.560        13
45.570        40
45.580        20
45.590        20
45.600        40
45.610        53
45.620        27
45.630        53
45.640         7
45.650        13
45.660        40
45.670        33
45.680        27
45.690        33
45.700        20
45.710         0
45.720        13
45.730        40
45.740        20
45.750         7
45.760        40
45.770        20
45.780        27
45.790        20
45.800        27
45.810        27
45.820        73
45.830        40
45.840        27
45.850        53
45.860        60
45.870        80
45.880        40
45.890        73
45.900        80
45.910        40
45.920       107
45.930        80
45.940        47
45.950        47
45.960        73
45.970        93
45.980        53
45.990        73
46.000       100
46.010        67
46.020       120
46.030        80
46.040        80
46.050        93
46.060        73
46.070       140
46.080       127
46.090       120
46.100       113
46.110       133
46.120       107
46.130        93
46.140       153
46.150       200
46.160       187
46.170       200
46.180       153
46.190       200
46.200       207
46.210       267
46.220       220
46.230       207
46.240       233
46.250       313
46.260       273
46.270       267
46.280       446
46.290       413
46.300       353
46.310       360
46.320       360
46.330       486
46.340       446
46.350       446
46.360       520
46.370       500
46.380       446
46.390       440
46.400       433
46.410       433
46.420       400
46.430       433
46.440       420
46.450       440
46.460       420
46.470       453
46.480       413
46.490       407
46.500       327
46.510       400
46.520       293
46.530       267
46.540       220
46.550       293
46.560       293
46.570       333
46.580       353
46.590       233
46.600       287
46.610       213
46.620       207
46.630       213
46.640       133
46.650       173
46.660       213
46.670       180
46.680       167
46.690       140
46.700       100
46.710       187
46.720        80
46.730       140
46.740        73
46.750        87
46.760        93
46.770       113
46.780       100
46.790        93
46.800        73
46.810        80
46.820        93
46.830        67
46.840        73
46.850        47
46.860        33
46.870        93
46.880        53
46.890        93
46.900        60
46.910        20
46.920        60
46.930        40
46.940        47
46.950        40
46.960        87
46.970        40
46.980        40
46.990        73
47.000        40
47.010        40
47.020        20
47.030        53
47.040        33
47.050        47
47.060        33
47.070        20
47.080        40
47.090        67
47.100         0
47.110        60
47.120        53
47.130        13
47.140        33
47.150        27
47.160        20
47.170        33
47.180        53
47.190        20
47.200        60
47.210        53
47.220        47
47.230        33
47.240        33
47.250        67
47.260         7
47.270        33
47.280        27
47.290        47
47.300        47
47.310        13
47.320        20
47.330        33
47.340        27
47.350        40
47.360        40
47.370        33
47.380        67
47.390        47
47.400         7
47.410        13
47.420        20
47.430        20
47.440        20
47.450        47
47.460        13
47.470        33
47.480        27
47.490        47
47.500        20
47.510        40
47.520        13
47.530        13
47.540        13
47.550        13
47.560         7
47.570        27
47.580        27
47.590        27
47.600        27
47.610        47
47.620        40
47.630        13
47.640        27
47.650        47
47.660        13
47.670        60
47.680        40
47.690        27
47.700        13
47.710        13
47.720        27
47.730        33
47.740        20
47.750        20
47.760        53
47.770        33
47.780        40
47.790        13
47.800         7
47.810        20
47.820        27
47.830        27
47.840        13
47.850        27
47.860        27
47.870        27
47.880        33
47.890        20
47.900        27
47.910        27
47.920        13
47.930         7
47.940        27
47.950        20
47.960         7
47.970        27
47.980        13
47.990        27
48.000        20
48.010        20
48.020        20
48.030        20
48.040        20
48.050        20
48.060        13
48.070        20
48.080        13
48.090        20
48.100        33
48.110        40
48.120        33
48.130        47
48.140         0
48.150        13
48.160        27
48.170        27
48.180        13
48.190        40
48.200        20
48.210        40
48.220        40
48.230        27
48.240        20
48.250        40
48.260        40
48.270        20
48.280        27
48.290        27
48.300        40
48.310        27
48.320        13
48.330        20
48.340        33
48.350        27
48.360        20
48.370        27
48.380        53
48.390        33
48.400        33
48.410        27
48.420        47
48.430        20
48.440        27
48.450        20
48.460        13
48.470        20
48.480        13
48.490        40
48.500         0
48.510        27
48.520        20
48.530        13
48.540        33
48.550        13
48.560        33
48.570        20
48.580        40
48.590        40
48.600        13
48.610        13
48.620         0
48.630        20
48.640        67
48.650         7
48.660        27
48.670        40
48.680        13
48.690        20
48.700        47
48.710        13
48.720        13
48.730         0
48.740        33
48.750        27
48.760        13
48.770         0
48.780        33
48.790         7
48.800        13
48.810        20
48.820        20
48.830        27
48.840        27
48.850        27
48.860         0
48.870        27
48.880         0
48.890         7
48.900        27
48.910        27
48.920        13
48.930        20
48.940        20
48.950        13
48.960         7
48.970        53
48.980        27
48.990         0
49.000        20
49.010        20
49.020        20
49.030        13
49.040        20
49.050        27
49.060        47
49.070        13
49.080        40
49.090        13
49.100        33
49.110        13
49.120        33
49.130        47
49.140         7
49.150        13
49.160         7
49.170        40
49.180        20
49.190        27
49.200        27
49.210        47
49.220        13
49.230         0
49.240        13
49.250        33
49.260        13
49.270        33
49.280        27
49.290        40
49.300        20
49.310        20
49.320         7
49.330        47
49.340        27
49.350        13
49.360        13
49.370         0
49.380         7
49.390        13
49.400        13
49.410        20
49.420        20
49.430        53
49.440        20
49.450        20
49.460        13
49.470        27
49.480        47
49.490         7
49.500        20
49.510         7
49.520        20
49.530         7
49.540        20
49.550        13
49.560         0
49.570         7
49.580        13
49.590        20
49.600        27
49.610        20
49.620         7
49.630        33
49.640        13
49.650        20
49.660        40
49.670        13
49.680        20
49.690        20
49.700         7
49.710         7
49.720         7
49.730        13
49.740        27
49.750         7
49.760        47
49.770         7
49.780         7
49.790        27
49.800        40
49.810        27
49.820        33
49.830         7
49.840         7
49.850        20
49.860        40
49.870        13
49.880        13
49.890        20
49.900        27
49.910        20
49.920        33
49.930        13
49.940        27
49.950        13
49.960        20
49.970        33
49.980         0
49.990        33
50.000        13
50.010        13
50.020        13
50.030        40
50.040        20
50.050        33
50.060         7
50.070        20
50.080        33
50.090        13
50.100        27
50.110        13
50.120         7
50.130        20
50.140        20
50.150        27
50.160        13
50.170        40
50.180        13
50.190        20
50.200        13
50.210         7
50.220        20
50.230        13
50.240        13
50.250        13
50.260        53
50.270         0
50.280         7
50.290        27
50.300        20
50.310         7
50.320        20
50.330        13
50.340        13
50.350        33
50.360        13
50.370        27
50.380        20
50.390         7
50.400        20
50.410        13
50.420        13
50.430        13
50.440        27
50.450        20
50.460        40
50.470        27
50.480        20
50.490         0
50.500         0
50.510        20
50.520        33
50.530        20
50.540         7
50.550        20
50.560        40
50.570         7
50.580        53
50.590        27
50.600         0
50.610        13
50.620         0
50.630        27
50.640         7
50.650        20
50.660        13
50.670         7
50.680        13
50.690        27
50.700         0
50.710         7
50.720        40
50.730        33
50.740        27
50.750        40
50.760        13
50.770        20
50.780         7
50.790        20
50.800         7
50.810        20
50.820        13
50.830         7
50.840        13
50.850        13
50.860        20
50.870         7
50.880        27
50.890        20
50.900        27
50.910        27
50.920        13
50.930        47
50.940        13
50.950        27
50.960        20
50.970        20
50.980        20
50.990         7
51.000         7
51.010        27
51.020         7
51.030        20
51.040        13
51.050        13
51.060         7
51.070        13
51.080         7
51.090        33
51.100        13
51.110         0
51.120        13
51.130        13
51.140        13
51.150        27
51.160        20
51.170         7
51.180         0
51.190        27
51.200        27
51.210        27
51.220        33
51.230        13
51.240        40
51.250         7
51.260        20
51.270         7
51.280        20
51.290        47
51.300         7
51.310        13
51.320        20
51.330        27
51.340        13
51.350        27
51.360        47
51.370         7
51.380        27
51.390        27
51.400        13
51.410        33
51.420        20
51.430        13
51.440        27
51.450        20
51.460        27
51.470        20
51.480        40
51.490        20
51.500         7
51.510        20
51.520         7
51.530        20
51.540        13
51.550        47
51.560        13
51.570         7
51.580        40
51.590        27
51.600        27
51.610        13
51.620        20
51.630        20
51.640        27
51.650         7
51.660        13
51.670        20
51.680        27
51.690        40
51.700        13
51.710         7
51.720         7
51.730        20
51.740         7
51.750        40
51.760        13
51.770        13
51.780        13
51.790        27
51.800        20
51.810        33
51.820        40
51.830        27
51.840        27
51.850        20
51.860        27
51.870        33
51.880        27
51.890        13
51.900        13
51.910        13
51.920         7
51.930        13
51.940        47
51.950        13
51.960         0
51.970         7
51.980        40
51.990        20
52.000        13
52.010        20
52.020        13
52.030        27
52.040        33
52.050         0
52.060         7
52.070         0
52.080        13
52.090        13
52.100         0
52.110         0
52.120         7
52.130        13
52.140         7
52.150        20
52.160        13
52.170         0
52.180        20
52.190        20
52.200        13
52.210        20
52.220        27
52.230        13
52.240         7
52.250        27
52.260        20
52.270        53
52.280        27
52.290        20
52.300         7
52.310        33
52.320        27
52.330         7
52.340        27
52.350        13
52.360        33
52.370        20
52.380        20
52.390        27
52.400         7
52.410        13
52.420        13
52.430        13
52.440        20
52.450        53
52.460        13
52.470        27
52.480        27
52.490        20
52.500        20
52.510        33
52.520        33
52.530        47
52.540        47
52.550        53
52.560        27
52.570        67
52.580        67
52.590        27
52.600        60
52.610        40
52.620        13
52.630        20
52.640         7
52.650        53
52.660        47
52.670        60
52.680        33
52.690        47
52.700        27
52.710        40
52.720        60
52.730        13
52.740        20
52.750        27
52.760        27
52.770        27
52.780         7
52.790        20
52.800        20
52.810        27
52.820         7
52.830         7
52.840        20
52.850        13
52.860        33
52.870        13
52.880        13
52.890         7
52.900        13
52.910         7
52.920        27
52.930         7
52.940        13
52.950         7
52.960        27
52.970         0
52.980        20
52.990        20
53.000        13
53.010        27
53.020        20
53.030        13
53.040         0
53.050         0
53.060        33
53.070         7
53.080         7
53.090        13
53.100         7
53.110        13
53.120        20
53.130        20
53.140         7
53.150        20
53.160        27
53.170        27
53.180         7
53.190        20
53.200        27
53.210        13
53.220        20
53.230        40
53.240        20
53.250        33
53.260        20
53.270        13
53.280        20
53.290         7
53.300        13
53.310        13
53.320        20
53.330        13
53.340         0
53.350        33
53.360        27
53.370         7
53.380        13
53.390         7
53.400        33
53.410        13
53.420        33
53.430        13
53.440        13
53.450        20
53.460         7
53.470         0
53.480        20
53.490        33
53.500        33
53.510        20
53.520         7
53.530        27
53.540        13
53.550        13
53.560        27
53.570        13
53.580        13
53.590        27
53.600        27
53.610        13
53.620        13
53.630        20
53.640        13
53.650        20
53.660         0
53.670        13
53.680        27
53.690        13
53.700        13
53.710        33
53.720        27
53.730        27
53.740        13
53.750        33
53.760        20
53.770        13
53.780        13
53.790         0
53.800        47
53.810        13
53.820        40
53.830         7
53.840         0
53.850        13
53.860        20
53.870        13
53.880         0
53.890        20
53.900         0
53.910        20
53.920        13
53.930        13
53.940        40
53.950        27
53.960        20
53.970         7
53.980         7
53.990         7
54.000        20
54.010         7
54.020        13
54.030         0
54.040         7
54.050        33
54.060        20
54.070        20
54.080        20
54.090         7
54.100         7
54.110        13
54.120        13
54.130        20
54.140        20
54.150        13
54.160        20
54.170        20
54.180        13
54.190        13
54.200        20
54.210         0
54.220        13
54.230         0
54.240        20
54.250         0
54.260        13
54.270        13
54.280        20
54.290        33
54.300        13
54.310        47
54.320        33
54.330        20
54.340         0
54.350         0
54.360         0
54.370        20
54.380        20
54.390        13
54.400         7
54.410        20
54.420        20
54.430         7
54.440         7
54.450        13
54.460        13
54.470        13
54.480        13
54.490        20
54.500        33
54.510         7
54.520        13
54.530         7
54.540         7
54.550         7
54.560         0
54.570        27
54.580        20
54.590        27
54.600         7
54.610        13
54.620        13
54.630        20
54.640         0
54.650         7
54.660        13
54.670        13
54.680        13
54.690        13
54.700        33
54.710        20
54.720        13
54.730        20
54.740        20
54.750         7
54.760        13
54.770         0
54.780        33
54.790         7
54.800         7
54.810        33
54.820        20
54.830        20
54.840        20
54.850        27
54.860         0
54.870        13
54.880        27
54.890         7
54.900        13
54.910        13
54.920        27
54.930        13
54.940        27
54.950         0
54.960         0
54.970         0
54.980         0
54.990        33
55.000        33
55.010        20
55.020        27
55.030        40
55.040        13
55.050         7
55.060         0
55.070        20
55.080        13
55.090        13
55.100        13
55.110        27
55.120        53
55.130         7
55.140        33
55.150        27
55.160         7
55.170        13
55.180        40
55.190        20
55.200         7
55.210        27
55.220         7
55.230        20
55.240        27
55.250        27
55.260        40
55.270        33
55.280        20
55.290        20
55.300        27
55.310        27
55.320         7
55.330        13
55.340         7
55.350        27
55.360        13
55.370        20
55.380         7
55.390        20
55.400         7
55.410        13
55.420        20
55.430        27
55.440        40
55.450        20
55.460        27
55.470        20
55.480        27
55.490         7
55.500        33
55.510        13
55.520        27
55.530        20
55.540        20
55.550        27
55.560        27
55.570        13
55.580        40
55.590         0
55.600        27
55.610        20
55.620        13
55.630        40
55.640        20
55.650        27
55.660        20
55.670        13
55.680         0
55.690        20
55.700        20
55.710        13
55.720        33
55.730        13
55.740        20
55.750        27
55.760         7
55.770        13
55.780         0
55.790        27
55.800        13
55.810        33
55.820         0
55.830        13
55.840        13
55.850        20
55.860        27
55.870        27
55.880        20
55.890         0
55.900         0
55.910        13
55.920         0
55.930        20
55.940        13
55.950        13
55.960         7
55.970        27
55.980        27
55.990        20
56.000        20
56.010        13
56.020         0
56.030         7
56.040        20
56.050        13
56.060        13
56.070        27
56.080        13
56.090        13
56.100        13
56.110         7
56.120        13
56.130        27
56.140        20
56.150        13
56.160         7
56.170         0
56.180         7
56.190        13
56.200        20
56.210        33
56.220        27
56.230         7
56.240        27
56.250        27
56.260         7
56.270         7
56.280        20
56.290        33
56.300        60
56.310        27
56.320        20
56.330        13
56.340        20
56.350         7
56.360        20
56.370        13
56.380         7
56.390        13
56.400        47
56.410        20
56.420        33
56.430        13
56.440        20
56.450        20
56.460        53
56.470        40
56.480        27
56.490         7
56.500         7
56.510         7
56.520         7
56.530        13
56.540        33
56.550        20
56.560        13
56.570        13
56.580         7
56.590        20
56.600        27
56.610        13
56.620        20
56.630        20
56.640        53
56.650         7
56.660         7
56.670        27
56.680        40
56.690        20
56.700        13
56.710         0
56.720        33
56.730        13
56.740        20
56.750        47
56.760        27
56.770         7
56.780        20
56.790        20
56.800        20
56.810        13
56.820         7
56.830        40
56.840        13
56.850        27
56.860        13
56.870         7
56.880        20
56.890        27
56.900        40
56.910        47
56.920        33
56.930        13
56.940         0
56.950        13
56.960         7
56.970        27
56.980        20
56.990         7
57.000        33
57.010        20
57.020        20
57.030        13
57.040        47
57.050        13
57.060        33
57.070         7
57.080         7
57.090        27
57.100        33
57.110        47
57.120        33
57.130        33
57.140        27
57.150         7
57.160        27
57.170        40
57.180        20
57.190        67
57.200        33
57.210        40
57.220        13
57.230        20
57.240        13
57.250        40
57.260        40
57.270        33
57.280        27
57.290        13
57.300        53
57.310        20
57.320        47
57.330        67
57.340        20
57.350        33
57.360        47
57.370        27
57.380        60
57.390        60
57.400        60
57.410        67
57.420        47
57.430        93
57.440       100
57.450       127
57.460       167
57.470       173
57.480       327
57.490       340
57.500       433
57.510       546
57.520       513
57.530       453
57.540       420
57.550       367
57.560       227
57.570       220
57.580       247
57.590       187
57.600        73
57.610       127
57.620       140
57.630       173
57.640       133
57.650       187
57.660       307
57.670       233
57.680       267
57.690       340
57.700       327
57.710       227
57.720       153
57.730       120
57.740       147
57.750       113
57.760       120
57.770        53
57.780       127
57.790       100
57.800       127
57.810        87
57.820       107
57.830        93
57.840       100
57.850        87
57.860       133
57.870       127
57.880        87
57.890        87
57.900        53
57.910        13
57.920        67
57.930        67
57.940        73
57.950        80
57.960        40
57.970        87
57.980        80
57.990        80
58.000        53
58.010        67
58.020        33
58.030        60
58.040        73
58.050        40
58.060        60
58.070        33
58.080        13
58.090        27
58.100        60
58.110        60
58.120        27
58.130        27
58.140        40
58.150        13
58.160        60
58.170        27
58.180        20
58.190        27
58.200        13
58.210        33
58.220         0
58.230        20
58.240        13
58.250        20
58.260        27
58.270         7
58.280        20
58.290        20
58.300        27
58.310        27
58.320        27
58.330        33
58.340         0
58.350        13
58.360         0
58.370        20
58.380        13
58.390        13
58.400        33
58.410         0
58.420        20
58.430        27
58.440        13
58.450        20
58.460         0
58.470        13
58.480        20
58.490        27
58.500        27
58.510         7
58.520        40
58.530        20
58.540        13
58.550        27
58.560        27
58.570         7
58.580        27
58.590        13
58.600         7
58.610        20
58.620        27
58.630        27
58.640        20
58.650        20
58.660         7
58.670        20
58.680         7
58.690        27
58.700         7
58.710         7
58.720         0
58.730        13
58.740        20
58.750         7
58.760        27
58.770        13
58.780         7
58.790        13
58.800        13
58.810        47
58.820        20
58.830        27
58.840        20
58.850        33
58.860        27
58.870        13
58.880        13
58.890        27
58.900         7
58.910        27
58.920        33
58.930        20
58.940        13
58.950        13
58.960        20
58.970        13
58.980        13
58.990        20
59.000        27
59.010         7
59.020        13
59.030         7
59.040        13
59.050         7
59.060        27
59.070         7
59.080        27
59.090        20
59.100         7
59.110         7
59.120         7
59.130        27
59.140        27
59.150         7
59.160        13
59.170         7
59.180        20
59.190         0
59.200        20
59.210        33
59.220        13
59.230        13
59.240         7
59.250        20
59.260        20
59.270         0
59.280        13
59.290        20
59.300        20
59.310         0
59.320         7
59.330        20
59.340        27
59.350         7
59.360        13
59.370        20
59.380        13
59.390         7
59.400        13
59.410        27
59.420        20
59.430         7
59.440        20
59.450        20
59.460        13
59.470        20
59.480         0
59.490        13
59.500        27
59.510        20
59.520        13
59.530        27
59.540        27
59.550        20
59.560        13
59.570        13
59.580        13
59.590         7
59.600         7
59.610         7
59.620         7
59.630         7
59.640         7
59.650        20
59.660        13
59.670        13
59.680         0
59.690        20
59.700        13
59.710         0
59.720        13
59.730         7
59.740        40
59.750        13
59.760        13
59.770        20
59.780        13
59.790         7
59.800        13
59.810        13
59.820        40
59.830        27
59.840        13
59.850        13
59.860        13
59.870        13
59.880        33
59.890         7
59.900        20
59.910        40
59.920        27
59.930        20
59.940        27
59.950         7
59.960        33
59.970        40
59.980         7
59.990        13
60.000        20
