20.000        27
20.010        27
20.020        20
20.030        47
20.040        27
20.050        53
20.060        40
20.070        20
20.080        27
20.090        40
20.100        33
20.110        33
20.120        47
20.130        60
20.140        60
20.150        60
20.160        27
20.170        47
20.180        40
20.190        40
20.200        20
20.210        13
20.220        27
20.230        73
20.240        27
20.250        40
20.260        47
20.270        40
20.280        73
20.290        53
20.300        67
20.310        33
20.320        33
20.330        27
20.340        27
20.350        67
20.360        60
20.370        33
20.380        47
20.390        47
20.400        47
20.410        40
20.420        73
20.430        40
20.440        53
20.450        33
20.460        47
20.470        67
20.480        27
20.490        47
20.500        27
20.510        67
20.520        20
20.530        33
20.540        27
20.550        47
20.560        73
20.570         7
20.580        27
20.590        67
20.600        47
20.610        27
20.620        53
20.630        33
20.640        40
20.650        47
20.660        33
20.670        53
20.680        67
20.690        33
20.700        47
20.710        67
20.720        47
20.730        40
20.740        60
20.750        60
20.760        27
20.770        53
20.780        53
20.790        40
20.800        53
20.810        40
20.820        27
20.830        13
20.840        47
20.850        47
20.860        27
20.870        67
20.880        33
20.890        47
20.900        33
20.910        67
20.920        33
20.930        53
20.940        47
20.950        47
20.960        60
20.970        47
20.980        40
20.990        53
21.000        13
21.010        67
21.020        33
21.030        33
21.040        40
21.050        47
21.060        33
21.070        27
21.080        40
21.090        20
21.100        40
21.110        53
21.120        33
21.130        40
21.140        60
21.150        27
21.160        33
21.170        53
21.180        60
21.190        13
21.200        40
21.210         7
21.220        53
21.230        33
21.240        53
21.250        60
21.260        60
21.270        20
21.280        53
21.290        40
21.300        47
21.310        33
21.320        27
21.330        20
21.340        33
21.350        47
21.360        13
21.370        60
21.380        67
21.390        13
21.400        33
21.410        27
21.420        67
21.430        60
21.440        47
21.450        60
21.460        73
21.470        53
21.480        40
21.490        40
21.500        40
21.510        40
21.520        20
21.530        40
21.540        47
21.550        47
21.560        27
21.570        40
21.580        33
21.590        60
21.600        20
21.610        53
21.620        53
21.630        33
21.640        40
21.650        27
21.660        60
21.670        33
21.680        47
21.690        47
21.700        47
21.710        27
21.720        80
21.730        47
21.740        33
21.750        47
21.760        47
21.770        53
21.780        27
21.790        27
21.800        47
21.810        20
21.820        33
21.830        53
21.840        93
21.850        40
21.860        13
21.870        47
21.880        53
21.890        40
21.900        33
21.910        53
21.920        67
21.930        27
21.940        27
21.950        47
21.960        67
21.970        40
21.980        47
21.990        53
22.000        47
22.010        33
22.020        53
22.030        40
22.040        47
22.050        40
22.060        73
22.070        40
22.080        47
22.090        40
22.100        53
22.110        47
22.120        53
22.130        47
22.140         7
22.150        53
22.160        53
22.170        33
22.180        40
22.190        20
22.200        40
22.210        27
22.220        40
22.230        47
22.240        73
22.250        73
22.260        40
22.270        53
22.280        20
22.290        33
22.300        20
22.310        53
22.320        53
22.330        40
22.340        67
22.350        73
22.360        60
22.370        47
22.380        60
22.390        40
22.400        73
22.410        13
22.420        60
22.430        20
22.440        60
22.450        53
22.460        60
22.470        60
22.480        67
22.490       100
22.500        67
22.510        53
22.520        40
22.530        80
22.540        67
22.550        67
22.560        67
22.570        80
22.580       180
22.590       120
22.600       133
22.610       120
22.620       160
22.630       127
22.640       180
22.650       113
22.660       247
22.670       267
22.680       287
22.690       247
22.700       300
22.710       233
22.720       327
22.730       333
22.740       327
22.750       446
22.760       367
22.770       380
22.780       393
22.790       333
22.800       373
22.810       293
22.820       287
22.830       333
22.840       320
22.850       180
22.860       300
22.870       187
22.880       193
22.890       133
22.900       127
22.910       187
22.920       160
22.930       140
22.940        87
22.950       140
22.960        87
22.970        73
22.980        67
22.990        87
23.000        67
23.010       113
23.020        60
23.030        60
23.040       107
23.050       113
23.060        87
23.070        53
23.080        67
23.090        47
23.100        87
23.110        60
23.120        40
23.130        67
23.140        40
23.150        67
23.160        73
23.170        53
23.180        53
23.190        53
23.200        67
23.210        40
23.220        67
23.230        67
23.240        87
23.250        20
23.260        47
23.270        67
23.280        40
23.290        40
23.300        40
23.310        53
23.320        60
23.330        20
23.340        60
23.350        67
23.360        73
23.370        53
23.380        80
23.390        27
23.400        20
23.410        40
23.420        53
23.430        33
23.440        33
23.450        27
23.460        33
23.470        13
23.480        33
23.490        20
23.500        33
23.510        60
23.520        33
23.530        47
23.540        27
23.550        27
23.560        40
23.570        87
23.580        60
23.590        27
23.600        60
23.610        20
23.620        73
23.630        53
23.640        40
23.650        20
23.660        47
23.670        40
23.680        13
23.690        53
23.700        40
23.710        27
23.720        40
23.730        60
23.740        27
23.750        60
23.760        13
23.770        53
23.780        27
23.790        33
23.800        53
23.810        47
23.820        47
23.830        47
23.840        13
23.850        60
23.860        47
23.870        47
23.880        40
23.890        40
23.900        47
23.910        60
23.920        47
23.930        33
23.940        60
23.950        40
23.960        27
23.970        20
23.980        40
23.990        40
24.000        67
24.010        60
24.020        13
24.030        20
24.040        73
24.050        13
24.060        53
24.070        27
24.080        20
24.090        60
24.100        33
24.110        47
24.120        67
24.130        53
24.140        40
24.150        60
24.160        33
24.170        47
24.180        47
24.190        27
24.200         7
24.210        20
24.220        53
24.230        33
24.240        40
24.250        20
24.260        13
24.270        27
24.280        20
24.290        20
24.300        47
24.310        40
24.320        27
24.330        40
24.340        47
24.350        40
24.360        40
24.370        20
24.380        53
24.390        93
24.400        47
24.410        33
24.420        20
24.430        47
24.440        67
24.450        20
24.460        40
24.470        27
24.480        20
24.490        27
24.500        13
24.510        53
24.520        27
24.530        47
24.540        33
24.550        13
24.560        13
24.570        47
24.580        13
24.590       113
24.600        47
24.610        47
24.620        27
24.630        33
24.640        40
24.650        60
24.660        47
24.670        40
24.680        60
24.690        20
24.700        47
24.710        33
24.720        27
24.730        27
24.740        47
24.750        20
24.760        20
24.770        27
24.780        47
24.790        40
24.800        60
24.810        33
24.820        27
24.830        53
24.840        47
24.850        67
24.860        33
24.870        20
24.880        40
24.890        20
24.900         7
24.910        20
24.920        20
24.930        60
24.940         7
24.950        13
24.960        40
24.970        53
24.980        27
24.990        40
25.000        33
25.010        53
25.020        13
25.030        73
25.040        47
25.050        20
25.060        33
25.070        40
25.080        27
25.090        53
25.100        33
25.110        40
25.120        53
25.130        47
25.140        27
25.150        40
25.160        13
25.170        60
25.180        27
25.190        40
25.200        73
25.210        47
25.220        13
25.230        40
25.240        60
25.250        20
25.260        20
25.270        40
25.280        27
25.290        53
25.300        27
25.310        20
25.320        27
25.330        33
25.340        20
25.350        40
25.360        27
25.370        27
25.380        53
25.390        47
25.400        13
25.410        27
25.420        40
25.430        73
25.440        87
25.450        47
25.460        40
25.470        40
25.480        67
25.490        27
25.500        80
25.510        73
25.520        33
25.530        33
25.540        53
25.550        27
25.560        40
25.570        60
25.580        93
25.590        60
25.600        60
25.610        93
25.620       127
25.630       107
25.640       127
25.650        93
25.660        67
25.670        93
25.680        80
25.690       107
25.700        80
25.710        27
25.720        80
25.730        33
25.740        47
25.750        53
25.760        20
25.770        27
25.780        20
25.790        53
25.800        40
25.810        40
25.820        27
25.830        20
25.840        20
25.850        33
25.860        20
25.870        40
25.880        40
25.890         7
25.900        33
25.910        47
25.920        33
25.930        53
25.940        60
25.950        27
25.960        27
25.970        47
25.980        40
25.990        53
26.000        33
26.010        40
26.020        20
26.030        33
26.040        60
26.050        40
26.060        40
26.070        47
26.080        40
26.090         0
26.100        13
26.110        33
26.120        27
26.130        47
26.140        67
26.150        40
26.160        33
26.170        33
26.180        40
26.190        20
26.200        33
26.210        33
26.220        20
26.230        53
26.240        53
26.250        47
26.260        53
26.270        27
26.280        40
26.290        60
26.300        13
26.310        47
26.320        20
26.330        47
26.340        13
26.350        13
26.360        20
26.370        27
26.380        53
26.390        33
26.400        27
26.410        33
26.420        20
26.430         7
26.440        20
26.450        27
26.460        13
26.470        47
26.480        20
26.490        27
26.500        33
26.510        20
26.520        27
26.530        33
26.540        47
26.550        53
26.560        53
26.570        47
26.580        27
26.590        27
26.600        33
26.610        33
26.620        20
26.630        40
26.640       100
26.650        33
26.660        20
26.670        40
26.680        27
26.690        27
26.700        27
26.710        13
26.720        27
26.730        20
26.740        33
26.750        20
26.760        47
26.770        27
26.780        20
26.790        47
26.800        20
26.810        13
26.820        27
26.830        33
26.840        27
26.850        60
26.860        47
26.870        13
26.880        27
26.890        33
26.900        40
26.910        27
26.920        33
26.930        33
26.940        33
26.950        33
26.960        53
26.970        33
26.980        27
26.990        33
27.000        40
27.010        20
27.020        27
27.030        20
27.040        40
27.050        47
27.060        40
27.070        53
27.080        33
27.090        27
27.100        33
27.110        13
27.120        40
27.130        20
27.140        53
27.150        27
27.160        60
27.170        47
27.180        20
27.190        13
27.200        40
27.210        40
27.220        13
27.230        53
27.240        33
27.250        27
27.260        27
27.270        33
27.280        13
27.290        13
27.300        93
27.310        40
27.320        40
27.330        40
27.340        40
27.350        13
27.360        33
27.370        47
27.380        33
27.390        13
27.400         7
27.410        47
27.420        20
27.430        33
27.440        27
27.450        40
27.460        33
27.470        33
27.480        27
27.490        20
27.500        33
27.510        40
27.520        27
27.530        33
27.540        40
27.550        13
27.560        20
27.570        13
27.580        47
27.590        53
27.600        47
27.610        27
27.620        40
27.630        47
27.640        20
27.650        73
27.660        40
27.670        33
27.680        20
27.690        53
27.700        27
27.710        27
27.720        20
27.730        27
27.740        13
27.750        33
27.760        33
27.770        40
27.780        60
27.790        33
27.800        60
27.810        13
27.820        40
27.830        40
27.840        33
27.850        40
27.860        40
27.870        20
27.880        20
27.890        13
27.900        53
27.910        40
27.920        47
27.930        13
27.940        27
27.950        53
27.960        20
27.970        20
27.980        13
27.990        27
28.000        40
28.010        27
28.020        13
28.030        33
28.040        40
28.050        47
28.060        33
28.070        27
28.080        27
28.090        60
28.100        40
28.110        33
28.120        13
28.130        33
28.140        13
28.150        20
28.160        40
28.170        27
28.180        20
28.190        13
28.200        40
28.210         7
28.220        27
28.230        33
28.240        27
28.250        47
28.260        33
28.270        27
28.280        33
28.290        40
28.300        40
28.310        40
28.320        33
28.330         7
28.340        27
28.350        40
28.360        33
28.370        20
28.380        27
28.390        33
28.400        40
28.410        47
28.420        20
28.430        33
28.440        33
28.450        33
28.460        60
28.470         0
28.480        20
28.490        40
28.500        33
28.510        53
28.520        47
28.530        33
28.540        33
28.550        40
28.560         7
28.570        27
28.580        13
28.590        27
28.600        27
28.610        27
28.620        20
28.630        20
28.640        40
28.650        20
28.660        27
28.670        27
28.680        27
28.690        40
28.700        13
28.710        40
28.720        33
28.730        33
28.740        27
28.750        33
28.760        33
28.770        53
28.780        27
28.790        27
28.800        47
28.810        40
28.820        20
28.830        47
28.840        33
28.850        13
28.860        13
28.870        27
28.880         7
28.890        20
28.900        33
28.910         0
28.920        33
28.930        33
28.940        33
28.950        33
28.960        40
28.970        20
28.980        13
28.990        47
29.000        20
29.010        20
29.020        20
29.030        13
29.040         0
29.050        27
29.060        40
29.070        60
29.080        33
29.090        13
29.100        33
29.110        47
29.120        27
29.130        20
29.140        40
29.150        27
29.160        27
29.170        27
29.180        13
29.190        13
29.200        27
29.210        20
29.220        33
29.230        20
29.240        47
29.250        33
29.260        27
29.270        27
29.280        33
29.290         7
29.300        13
29.310        13
29.320        40
29.330        20
29.340         0
29.350        33
29.360        60
29.370        13
29.380        13
29.390        33
29.400        40
29.410        13
29.420        33
29.430        33
29.440        20
29.450        40
29.460        47
29.470        60
29.480        33
29.490        13
29.500         7
29.510        20
29.520        13
29.530         7
29.540        33
29.550        33
29.560        13
29.570         7
29.580        27
29.590        27
29.600        40
29.610        13
29.620        47
29.630         7
29.640        47
29.650         0
29.660        53
29.670        53
29.680         0
29.690         7
29.700        20
29.710        40
29.720        27
29.730        27
29.740        33
29.750        27
29.760        13
29.770        40
29.780        20
29.790        40
29.800        27
29.810        20
29.820        20
29.830        20
29.840        20
29.850        33
29.860        13
29.870        13
29.880         7
29.890        40
29.900        27
29.910        27
29.920        40
29.930        33
29.940        13
29.950        13
29.960        20
29.970        13
29.980        27
29.990        27
30.000        20
30.010        33
30.020        40
30.030        47
30.040        27
30.050        33
30.060         7
30.070        20
30.080        40
30.090        20
30.100        40
30.110        27
30.120        27
30.130        27
30.140        13
30.150        40
30.160        27
30.170        33
30.180        13
30.190        13
30.200        47
30.210        27
30.220        27
30.230        53
30.240        33
30.250        13
30.260         7
30.270        27
30.280        27
30.290        40
30.300        20
30.310        20
30.320        20
30.330        60
30.340        40
30.350        40
30.360        13
30.370        53
30.380         7
30.390        40
30.400         7
30.410        20
30.420        40
30.430        20
30.440        33
30.450        33
30.460        73
30.470        27
30.480        20
30.490        20
30.500        33
30.510        20
30.520        20
30.530        27
30.540        40
30.550        27
30.560        27
30.570        40
30.580        40
30.590        47
30.600        33
30.610        53
30.620        13
30.630        27
30.640        27
30.650        13
30.660        33
30.670        27
30.680        33
30.690        33
30.700        27
30.710         0
30.720        27
30.730        47
30.740        27
30.750        47
30.760        13
30.770        53
30.780        33
30.790        20
30.800        33
30.810         7
30.820        20
30.830        27
30.840        13
30.850        40
30.860        13
30.870        33
30.880        40
30.890        27
30.900        33
30.910        13
30.920        33
30.930        27
30.940        40
30.950        20
30.960        13
30.970        13
30.980        33
30.990        20
31.000        27
31.010         0
31.020        13
31.030        40
31.040        40
31.050        33
31.060        20
31.070        20
31.080        20
31.090        13
31.100        40
31.110        20
31.120        33
31.130        40
31.140        33
31.150        40
31.160        13
31.170        20
31.180        20
31.190        13
31.200        33
31.210        33
31.220        20
31.230        27
31.240        13
31.250        20
31.260        13
31.270        33
31.280        27
31.290        47
31.300        20
31.310        33
31.320        27
31.330        33
31.340        27
31.350        13
31.360        13
31.370        47
31.380        33
31.390        33
31.400        13
31.410         7
31.420        53
31.430        20
31.440        13
31.450        27
31.460        13
31.470        33
31.480        47
31.490        20
31.500        27
31.510        27
31.520         0
31.530        47
31.540        20
31.550        13
31.560        20
31.570        27
31.580        40
31.590        27
31.600        27
31.610         7
31.620        13
31.630        33
31.640        33
31.650        27
31.660        13
31.670        80
31.680        33
31.690         7
31.700        20
31.710        40
31.720        27
31.730        47
31.740         0
31.750        47
31.760        40
31.770        33
31.780        33
31.790        33
31.800        33
31.810        13
31.820        47
31.830        33
31.840        27
31.850        40
31.860        73
31.870        20
31.880        53
31.890        53
31.900        40
31.910         7
31.920        20
31.930        27
31.940        47
31.950        47
31.960        27
31.970        20
31.980        13
31.990        20
32.000        27
32.010         7
32.020        27
32.030        33
32.040        33
32.050        40
32.060        33
32.070        20
32.080        60
32.090        40
32.100        27
32.110        40
32.120        27
32.130        53
32.140        20
32.150        47
32.160        33
32.170        40
32.180        27
32.190        40
32.200        33
32.210        53
32.220        80
32.230        40
32.240        73
32.250        20
32.260        27
32.270        40
32.280        33
32.290        87
32.300        67
32.310        80
32.320        33
32.330        27
32.340       107
32.350        87
32.360       120
32.370        73
32.380       100
32.390        60
32.400        93
32.410        53
32.420       120
32.430       120
32.440        73
32.450        47
32.460        73
32.470       100
32.480        73
32.490        87
32.500        80
32.510        47
32.520        73
32.530        87
32.540        40
32.550        53
32.560        80
32.570        67
32.580        47
32.590        53
32.600        40
32.610        40
32.620        33
32.630        33
32.640        33
32.650        40
32.660        40
32.670        33
32.680        27
32.690        27
32.700        20
32.710        20
32.720        13
32.730        67
32.740         0
32.750        27
32.760        33
32.770        33
32.780         7
32.790        13
32.800        27
32.810        20
32.820        27
32.830        13
32.840        20
32.850        40
32.860        13
32.870        27
32.880        27
32.890        47
32.900        33
32.910        40
32.920        40
32.930        27
32.940        47
32.950        13
32.960        20
32.970        53
32.980        33
32.990        20
33.000        33
33.010        20
33.020        20
33.030        33
33.040        33
33.050        20
33.060        27
33.070        13
33.080        13
33.090         0
33.100        40
33.110        47
33.120        13
33.130        13
33.140        33
33.150        13
33.160        20
33.170        20
33.180        40
33.190        13
33.200        27
33.210        27
33.220        27
33.230        40
33.240         7
33.250        67
33.260        20
33.270        13
33.280         7
33.290        47
33.300        13
33.310        33
33.320        13
33.330        27
33.340        47
33.350        13
33.360        20
33.370        40
33.380         7
33.390        27
33.400        13
33.410        20
33.420        40
33.430        47
33.440         0
33.450         7
33.460        20
33.470        33
33.480        27
33.490        27
33.500        33
33.510        27
33.520         7
33.530        27
33.540        27
33.550        20
33.560        20
33.570        33
33.580        20
33.590         7
33.600        60
33.610        27
33.620        27
33.630        27
33.640        20
33.650        13
33.660        27
33.670        13
33.680        13
33.690        67
33.700         7
33.710         7
33.720        20
33.730        33
33.740        20
33.750        13
33.760        27
33.770        47
33.780        13
33.790        33
33.800        33
33.810        27
33.820        33
33.830        27
33.840        53
33.850        27
33.860        27
33.870        20
33.880        40
33.890        33
33.900        33
33.910        40
33.920        33
33.930        33
33.940        27
33.950        33
33.960        20
33.970        53
33.980        27
33.990        20
34.000        27
34.010        20
34.020        13
34.030         7
34.040        13
34.050        20
34.060        40
34.070        33
34.080         7
34.090        27
34.100        27
34.110        40
34.120        20
34.130        20
34.140         0
34.150         0
34.160        40
34.170        53
34.180        33
34.190        27
34.200        13
34.210        27
34.220        60
34.230        13
34.240        40
34.250        33
34.260         7
34.270        13
34.280        40
34.290         0
34.300         7
34.310        13
34.320        20
34.330         0
34.340        27
34.350         7
34.360        53
34.370         7
34.380        13
34.390        13
34.400        13
34.410        13
34.420        20
34.430        33
34.440        20
34.450        13
34.460        27
34.470         7
34.480        40
34.490        47
34.500        13
34.510        27
34.520        47
34.530        33
34.540        20
34.550        27
34.560        33
34.570        27
34.580        33
34.590        20
34.600        33
34.610        13
34.620        40
34.630        33
34.640        40
34.650        13
34.660        20
34.670        13
34.680        33
34.690        53
34.700        13
34.710        40
34.720        13
34.730        20
34.740        47
34.750         7
34.760         7
34.770        20
34.780         7
34.790        13
34.800        33
34.810        33
34.820         7
34.830        27
34.840        27
34.850        13
34.860        40
34.870         7
34.880         0
34.890        27
34.900        20
34.910        33
34.920         7
34.930        13
34.940         7
34.950        40
34.960        60
34.970        33
34.980        13
34.990        20
35.000        20
35.010        13
35.020        33
35.030        47
35.040        40
35.050        60
35.060        33
35.070        47
35.080        40
35.090        40
35.100        53
35.110        47
35.120        40
35.130        47
35.140        80
35.150        73
35.160        40
35.170        67
35.180       107
35.190       113
35.200        67
35.210        53
35.220        93
35.230        73
35.240        87
35.250        47
35.260        33
35.270        33
35.280        67
35.290        60
35.300        33
35.310        27
35.320        27
35.330        67
35.340        27
35.350        40
35.360        27
35.370        13
35.380        27
35.390        13
35.400        33
35.410        13
35.420        13
35.430        20
35.440         7
35.450        20
35.460        27
35.470        20
35.480        40
35.490        47
35.500        27
35.510        27
35.520        27
35.530        20
35.540        27
35.550        27
35.560        20
35.570         7
35.580        13
35.590        33
35.600        13
35.610        13
35.620        13
35.630        20
35.640        13
35.650        20
35.660        13
35.670        27
35.680        33
35.690        13
35.700        47
35.710        20
35.720        33
35.730        13
35.740        20
35.750         7
35.760        27
35.770        33
35.780         0
35.790        33
35.800        13
35.810        20
35.820        20
35.830        20
35.840        13
35.850        13
35.860        13
35.870        33
35.880        33
35.890        20
35.900        33
35.910        27
35.920         0
35.930        20
35.940         0
35.950        13
35.960        13
35.970         0
35.980         7
35.990        13
36.000        20
36.010        13
36.020        27
36.030        20
36.040        33
36.050         7
36.060        13
36.070        13
36.080        27
36.090        33
36.100         7
36.110        27
36.120        13
36.130        13
36.140         7
36.150         7
36.160        20
36.170        20
36.180         0
36.190        27
36.200        20
36.210        60
36.220         7
36.230        13
36.240        20
36.250         7
36.260        33
36.270        27
36.280         0
36.290         7
36.300        27
36.310        27
36.320        20
36.330        33
36.340        27
36.350        27
36.360        33
36.370        27
36.380         7
36.390        40
36.400        20
36.410        13
36.420        27
36.430        20
36.440        13
36.450        13
36.460        33
36.470        20
36.480        20
36.490         7
36.500         7
36.510        33
36.520        27
36.530        13
36.540         7
36.550        33
36.560        13
36.570        27
36.580        40
36.590         7
36.600        13
36.610        20
36.620        13
36.630        13
36.640        33
36.650        60
36.660        13
36.670         0
36.680         0
36.690        20
36.700         7
36.710        27
36.720        13
36.730        20
36.740        13
36.750        13
36.760         7
36.770        27
36.780        20
36.790        13
36.800         0
36.810        33
36.820        27
36.830        20
36.840        40
36.850        27
36.860        33
36.870         7
36.880        13
36.890        40
36.900        40
36.910        33
36.920        33
36.930        47
36.940        13
36.950        53
36.960        33
36.970        60
36.980        40
36.990        13
37.000        27
37.010        33
37.020        27
37.030        13
37.040        33
37.050        60
37.060        40
37.070        27
37.080        13
37.090        27
37.100         7
37.110        20
37.120         0
37.130        27
37.140         7
37.150        33
37.160        13
37.170        27
37.180        27
37.190        33
37.200         7
37.210         0
37.220         7
37.230        20
37.240        27
37.250        13
37.260        20
37.270        20
37.280         7
37.290         7
37.300        27
37.310         0
37.320        20
37.330        40
37.340         7
37.350        40
37.360        13
37.370        60
37.380        20
37.390        27
37.400        13
37.410         7
37.420         7
37.430        20
37.440        27
37.450        27
37.460        13
37.470        40
37.480         0
37.490        27
37.500        20
37.510        20
37.520        13
37.530        33
37.540        27
37.550        20
37.560        20
37.570        33
37.580        27
37.590        27
37.600        20
37.610        53
37.620         7
37.630        27
37.640        13
37.650        27
37.660        27
37.670        33
37.680        33
37.690        13
37.700        20
37.710        33
37.720        33
37.730        13
37.740        27
37.750        20
37.760        33
37.770        20
37.780         7
37.790        20
37.800        20
37.810        20
37.820        33
37.830        47
37.840        53
37.850        33
37.860        27
37.870        47
37.880        13
37.890         7
37.900        40
37.910        20
37.920        27
37.930        27
37.940        40
37.950        33
37.960        27
37.970         7
37.980        20
37.990        33
38.000        20
38.010        20
38.020        13
38.030        20
38.040         7
38.050        27
38.060         7
38.070        20
38.080         7
38.090         7
38.100        27
38.110        27
38.120        20
38.130        33
38.140        20
38.150         7
38.160        40
38.170        20
38.180        33
38.190        13
38.200        13
38.210        13
38.220        20
38.230         0
38.240        33
38.250        27
38.260        13
38.270        40
38.280         7
38.290        20
38.300        20
38.310        20
38.320        53
38.330        40
38.340        27
38.350        20
38.360        27
38.370        27
38.380        13
38.390         7
38.400        27
38.410        27
38.420        40
38.430         0
38.440        20
38.450        13
38.460        20
38.470        20
38.480        27
38.490         7
38.500         7
38.510        20
38.520        20
38.530        20
38.540        40
38.550        20
38.560        47
38.570        27
38.580        33
38.590        13
38.600        20
38.610         0
38.620        13
38.630        33
38.640        27
38.650        13
38.660        13
38.670        20
38.680        27
38.690         7
38.700        27
38.710         7
38.720        20
38.730         7
38.740        40
38.750        20
38.760        20
38.770        33
38.780        33
38.790        40
38.800        20
38.810        13
38.820         7
38.830        13
38.840        27
38.850        33
38.860        13
38.870        33
38.880        13
38.890        20
38.900        13
38.910        33
38.920        40
38.930        20
38.940        40
38.950         0
38.960        27
38.970        13
38.980        20
38.990        20
39.000        13
39.010        53
39.020        20
39.030        13
39.040         7
39.050        33
39.060        33
39.070        20
39.080        33
39.090        13
39.100        47
39.110        27
39.120        13
39.130         7
39.140         7
39.150        27
39.160        27
39.170        33
39.180        27
39.190        27
39.200        27
39.210        20
39.220        27
39.230        13
39.240        33
39.250        27
39.260         7
39.270        33
39.280        40
39.290        33
39.300        20
39.310         7
39.320        13
39.330        27
39.340        33
39.350        33
39.360        20
39.370        27
39.380        27
39.390        13
39.400        13
39.410        27
39.420        13
39.430        33
39.440         7
39.450       127
39.460        13
39.470        27
39.480        20
39.490        33
39.500        33
39.510        27
39.520        20
39.530        27
39.540         7
39.550         7
39.560        20
39.570        13
39.580        13
39.590        47
39.600        33
39.610        27
39.620        20
39.630        33
39.640        20
39.650        27
39.660        33
39.670        27
39.680        20
39.690        13
39.700        60
39.710        20
39.720        33
39.730        93
39.740        53
39.750        73
39.760        40
39.770        73
39.780        47
39.790        80
39.800        73
39.810        67
39.820       100
39.830        47
39.840        87
39.850        80
39.860       173
39.870       153
39.880       133
39.890       193
39.900       193
39.910       240
39.920       173
39.930       287
39.940       287
39.950       313
39.960       247
39.970       333
39.980       413
39.990       327
40.000       347
40.010       347
40.020       253
40.030       407
40.040       340
40.050       387
40.060       247
40.070       307
40.080       287
40.090       287
40.100       227
40.110       287
40.120       233
40.130       167
40.140       193
40.150       240
40.160       180
40.170       173
40.180       113
40.190       127
40.200       133
40.210       127
40.220       107
40.230       127
40.240        93
40.250        67
40.260        40
40.270        80
40.280        27
40.290        27
40.300        20
40.310        60
40.320        40
40.330        20
40.340        47
40.350        53
40.360        40
40.370         7
40.380        60
40.390        27
40.400        47
40.410        60
40.420        20
40.430        53
40.440        33
40.450         0
40.460        33
40.470        20
40.480        13
40.490        33
40.500         7
40.510        13
40.520        47
40.530        33
40.540        13
40.550        47
40.560        20
40.570        33
40.580        13
40.590        53
40.600        20
40.610        20
40.620        33
40.630        20
40.640        27
40.650        13
40.660        40
40.670        13
40.680        27
40.690        40
40.700        27
40.710        27
40.720        40
40.730        27
40.740        53
40.750        40
40.760         0
40.770        53
40.780        33
40.790        13
40.800        40
40.810        13
40.820        13
40.830        27
40.840        13
40.850        40
40.860        20
40.870        40
40.880        40
40.890        13
40.900        13
40.910        33
40.920        27
40.930        13
40.940         7
40.950        33
40.960        40
40.970        20
40.980        20
40.990        13
41.000        40
41.010         7
41.020        40
41.030        20
41.040        20
41.050        13
41.060        20
41.070        20
41.080        20
41.090        27
41.100        47
41.110        40
41.120        20
41.130        20
41.140        20
41.150        27
41.160        33
41.170        47
41.180        40
41.190        40
41.200        20
41.210        13
41.220        27
41.230         0
41.240        33
41.250        33
41.260        20
41.270        20
41.280        13
41.290        13
41.300        47
41.310        27
41.320        27
41.330         7
41.340        40
41.350        33
41.360        13
41.370        47
41.380        20
41.390        33
41.400        20
41.410        13
41.420        13
41.430         7
41.440        27
41.450        40
41.460        40
41.470        53
41.480        20
41.490        33
41.500        47
41.510        60
41.520        33
41.530        47
41.540        73
41.550        73
41.560        40
41.570        67
41.580        67
41.590        13
41.600        73
41.610       107
41.620        87
41.630       107
41.640       153
41.650       153
41.660       187
41.670       167
41.680       193
41.690       200
41.700       147
41.710       160
41.720       187
41.730       153
41.740       153
41.750       140
41.760       127
41.770       107
41.780       120
41.790       140
41.800       193
41.810        93
41.820        93
41.830        87
41.840       107
41.850        27
41.860        93
41.870        53
41.880        47
41.890        20
41.900        33
41.910        47
41.920        40
41.930        53
41.940        47
41.950        33
41.960        53
41.970        47
41.980         0
41.990        20
42.000        40
42.010        20
42.020        67
42.030        13
42.040        13
42.050        27
42.060        33
42.070        13
42.080        27
42.090        47
42.100        27
42.110        33
42.120        53
42.130        40
42.140        20
42.150        33
42.160        27
42.170         7
42.180        13
42.190        33
42.200        13
42.210        47
42.220        47
42.230        27
42.240        33
42.250        13
42.260        27
42.270        20
42.280        27
42.290         7
42.300        13
42.310        13
42.320        20
42.330         7
42.340        20
42.350        13
42.360        20
42.370        33
42.380        47
42.390        53
42.400        13
42.410        47
42.420        40
42.430        27
42.440        47
42.450        20
42.460         7
42.470        47
42.480        13
42.490        13
42.500        40
42.510        20
42.520        27
42.530        33
42.540        40
42.550        33
42.560         7
42.570        13
42.580        20
42.590         7
42.600         0
42.610        13
42.620        13
42.630        20
42.640        27
42.650         7
42.660        27
42.670        20
42.680         7
42.690        47
42.700        13
42.710        13
42.720        40
42.730         0
42.740         7
42.750        13
42.760        27
42.770        27
42.780         7
42.790        20
42.800        27
42.810        20
42.820        20
42.830        33
42.840        20
42.850        33
42.860        33
42.870        13
42.880         7
42.890         0
42.900        40
42.910         7
42.920        20
42.930        13
42.940        33
42.950        27
42.960        53
42.970         7
42.980        33
42.990        40
43.000        27
43.010        20
43.020        13
43.030        13
43.040        20
43.050         0
43.060        33
43.070        13
43.080        27
43.090        27
43.100        33
43.110         7
43.120        20
43.130        20
43.140        33
43.150        27
43.160        33
43.170        20
43.180        13
43.190        40
43.200        27
43.210        27
43.220        20
43.230        20
43.240        40
43.250        33
43.260        20
43.270        27
43.280        20
43.290        20
43.300        33
43.310        33
43.320        27
43.330        27
43.340        33
43.350        67
43.360       107
43.370        87
43.380        80
43.390        93
43.400       127
43.410       113
43.420        87
43.430       120
43.440        40
43.450        33
43.460        80
43.470        40
43.480        80
43.490        53
43.500        80
43.510        80
43.520        53
43.530        40
43.540        87
43.550        60
43.560         7
43.570         0
43.580        33
43.590        27
43.600        27
43.610        33
43.620        40
43.630        40
43.640        20
43.650        27
43.660        13
43.670        27
43.680        33
43.690         0
43.700        20
43.710        20
43.720        20
43.730        53
43.740        40
43.750        20
43.760        33
43.770        27
43.780        33
43.790        13
43.800        20
43.810        47
43.820        33
43.830        20
43.840        53
43.850        40
43.860        13
43.870        20
43.880         7
43.890        27
43.900        47
43.910        47
43.920        40
43.930        33
43.940        27
43.950        13
43.960        20
43.970        47
43.980        20
43.990         7
44.000        33
44.010         0
44.020        20
44.030         7
44.040        27
44.050        20
44.060        27
44.070        20
44.080        13
44.090        33
44.100         7
44.110        13
44.120        13
44.130        27
44.140        13
44.150        13
44.160        33
44.170        13
44.180        53
44.190        27
44.200        27
44.210        20
44.220        33
44.230        33
44.240        40
44.250        20
44.260        27
44.270        13
44.280        27
44.290        40
44.300        13
44.310        47
44.320        13
44.330        20
44.340        73
44.350        13
44.360        20
44.370        67
44.380        53
44.390        13
44.400        27
44.410        27
44.420        40
44.430        33
44.440        27
44.450        20
44.460        47
44.470        27
44.480        27
44.490        20
44.500        40
44.510         7
44.520        33
44.530        27
44.540        20
44.550        20
44.560        60
44.570         7
44.580        33
44.590        27
44.600        20
44.610        47
44.620        20
44.630        20
44.640        27
44.650        33
44.660        33
44.670        53
44.680        20
44.690        27
44.700        40
44.710        67
44.720        27
44.730        13
44.740        33
44.750        47
44.760        40
44.770        27
44.780        27
44.790        40
44.800        33
44.810        47
44.820        47
44.830        80
44.840        27
44.850        53
44.860        67
44.870        27
44.880        27
44.890        47
44.900        53
44.910        20
44.920        40
44.930        60
44.940        67
44.950        47
44.960        87
44.970        47
44.980        60
44.990       100
45.000        80
45.010        53
45.020        33
45.030        73
45.040        53
45.050        27
45.060        87
45.070        60
45.080        40
45.090        47
45.100        27
45.110        53
45.120        53
45.130        67
45.140        40
45.150        40
45.160        40
45.170        53
45.180        47
45.190        73
45.200        40
45.210        53
45.220        47
45.230        87
45.240        47
45.250        40
45.260       100
45.270        60
45.280        93
45.290        60
45.300        47
45.310        67
45.320        60
45.330        73
45.340        60
45.350        80
45.360        87
45.370       100
45.380        93
45.390        80
45.400        47
45.410        53
45.420        67
45.430        33
45.440        40
45.450        60
45.460        60
45.470        60
45.480        53
45.490        80
45.500        53
45.510        93
45.520        53
45.530        80
45.540       127
45.550        93
45.560        60
45.570       133
45.580        73
45.590        80
45.600       140
45.610        87
45.620        80
45.630        87
45.640       100
45.650        73
45.660       100
45.670       100
45.680       107
45.690       127
45.700       113
45.710       107
45.720       120
45.730        73
45.740       100
45.750       180
45.760       127
45.770       127
45.780       100
45.790       160
45.800       160
45.810       140
45.820       140
45.830       127
45.840       180
45.850       160
45.860       153
45.870       180
45.880       187
45.890       140
45.900       220
45.910       227
45.920       193
45.930       233
45.940       300
45.950       253
45.960       227
45.970       293
45.980       353
45.990       340
46.000       333
46.010       393
46.020       373
46.030       340
46.040       520
46.050       513
46.060       553
46.070       546
46.080       580
46.090       506
46.100       680
46.110       673
46.120       640
46.130       866
46.140       826
46.150       826
46.160       913
46.170      1173
46.180      1000
46.190      1100
46.200      1080
46.210      1226
46.220      1346
46.230      1413
46.240      1473
46.250      1686
46.260      1533
46.270      1679
46.280      2013
46.290      2026
46.300      1886
46.310      2132
46.320      2359
46.330      2626
46.340      2512
46.350      2672
46.360      3139
46.370      2799
46.380      3045
46.390      3172
46.400      3052
46.410      3219
46.420      3159
46.430      3552
46.440      3625
46.450      3459
46.460      3425
46.470      3818
46.480      3445
46.490      3112
46.500      3878
46.510      3565
46.520      3385
46.530      3059
46.540      3545
46.550      3139
46.560      3319
46.570      3092
46.580      3125
46.590      3112
46.600      2572
46.610      2666
46.620      2672
46.630      2299
46.640      2492
46.650      2192
46.660      2092
46.670      2146
46.680      1959
46.690      1906
46.700      1779
46.710      1406
46.720      1759
46.730      1393
46.740      1319
46.750      1293
46.760      1140
46.770       946
46.780      1113
46.790      1040
46.800       993
46.810       946
46.820       726
46.830       726
46.840       706
46.850       673
46.860       593
46.870       566
46.880       626
46.890       593
46.900       426
46.910       440
46.920       413
46.930       347
46.940       353
46.950       307
46.960       313
46.970       327
46.980       333
46.990       300
47.000       280
47.010       333
47.020       360
47.030       253
47.040       180
47.050       240
47.060       207
47.070       173
47.080       147
47.090       200
47.100       180
47.110       213
47.120       140
47.130       233
47.140       200
47.150        80
47.160       133
47.170       173
47.180       153
47.190       167
47.200       173
47.210       127
47.220       147
47.230       133
47.240       100
47.250        87
47.260       127
47.270       147
47.280       127
47.290        87
47.300        80
47.310        53
47.320        87
47.330        93
47.340       120
47.350        87
47.360       113
47.370        80
47.380        87
47.390        73
47.400       153
47.410        67
47.420        53
47.430        67
47.440       127
47.450       100
47.460        67
47.470        93
47.480        67
47.490        80
47.500        60
47.510       107
47.520        93
47.530        93
47.540        33
47.550        40
47.560        67
47.570        73
47.580        53
47.590        60
47.600        80
47.610        40
47.620        60
47.630        87
47.640        40
47.650        47
47.660        40
47.670        60
47.680        67
47.690       107
47.700        87
47.710        60
47.720        60
47.730        80
47.740        53
47.750        53
47.760        53
47.770        67
47.780        53
47.790        53
47.800        53
47.810        87
47.820        47
47.830        87
47.840        40
47.850        40
47.860        33
47.870        67
47.880        40
47.890        27
47.900        53
47.910        27
47.920        40
47.930        20
47.940        13
47.950       100
47.960        53
47.970        33
47.980        40
47.990        47
48.000        20
48.010        53
48.020        40
48.030        40
48.040        60
48.050        67
48.060        60
48.070        60
48.080        20
48.090        60
48.100        47
48.110         7
48.120        47
48.130        53
48.140        33
48.150        60
48.160        33
48.170        40
48.180        47
48.190        47
48.200        27
48.210        47
48.220        40
48.230        13
48.240        40
48.250        53
48.260        40
48.270       100
48.280        40
48.290        60
48.300        47
48.310        53
48.320        40
48.330        47
48.340        60
48.350        13
48.360        60
48.370         7
48.380        13
48.390        27
48.400        53
48.410        33
48.420        47
48.430        40
48.440        27
48.450        27
48.460        20
48.470        33
48.480        20
48.490        13
48.500        33
48.510        13
48.520        20
48.530        40
48.540        27
48.550        73
48.560        33
48.570         7
48.580        27
48.590        47
48.600        33
48.610        27
48.620        40
48.630        60
48.640        20
48.650        33
48.660        13
48.670        73
48.680        47
48.690        47
48.700        27
48.710        47
48.720        33
48.730        13
48.740        53
48.750        33
48.760        27
48.770        20
48.780        40
48.790        33
48.800        40
48.810        27
48.820        13
48.830        27
48.840        33
48.850        40
48.860        40
48.870        40
48.880        33
48.890        20
48.900        67
48.910        13
48.920        40
48.930        20
48.940        47
48.950        27
48.960        60
48.970        33
48.980        33
48.990        33
49.000        27
49.010        60
49.020        33
49.030        47
49.040        47
49.050        40
49.060        67
49.070        47
49.080        13
49.090        33
49.100        53
49.110        47
49.120        47
49.130        40
49.140        60
49.150        20
49.160        27
49.170         7
49.180        40
49.190        47
49.200        40
49.210        33
49.220        53
49.230        40
49.240        60
49.250        27
49.260        47
49.270        47
49.280        13
49.290        27
49.300        27
49.310        40
49.320        53
49.330        13
49.340        60
49.350        40
49.360        40
49.370        47
49.380        33
49.390        60
49.400        40
49.410        53
49.420        13
49.430        27
49.440        53
49.450        13
49.460        40
49.470        20
49.480        20
49.490        33
49.500        47
49.510        20
49.520        33
49.530        27
49.540        60
49.550        47
49.560        20
49.570        20
49.580         7
49.590        20
49.600        20
49.610        33
49.620        53
49.630        47
49.640        40
49.650        33
49.660        27
49.670        40
49.680        40
49.690        33
49.700        20
49.710        33
49.720        13
49.730        27
49.740        27
49.750        13
49.760        27
49.770        27
49.780        27
49.790        27
49.800        20
49.810        40
49.820         7
49.830        20
49.840        33
49.850        20
49.860        33
49.870        33
49.880        40
49.890        20
49.900        13
49.910        47
49.920        20
49.930        13
49.940        27
49.950        47
49.960         7
49.970        13
49.980        33
49.990        20
50.000         7
50.010        20
50.020        27
50.030         7
50.040        20
50.050        47
50.060        47
50.070        33
50.080         7
50.090        27
50.100        20
50.110        27
50.120        20
50.130        47
50.140        20
50.150        27
50.160        20
50.170        27
50.180        40
50.190        47
50.200        33
50.210        13
50.220        27
50.230        27
50.240        47
50.250        33
50.260        40
50.270        33
50.280        40
50.290        33
50.300        33
50.310        27
50.320        20
50.330        40
50.340        47
50.350         0
50.360        20
50.370        27
50.380        40
50.390        20
50.400        33
50.410        40
50.420        27
50.430        13
50.440        40
50.450        33
50.460        27
50.470        27
50.480        20
50.490        33
50.500        40
50.510         7
50.520        40
50.530        47
50.540        33
50.550        27
50.560        33
50.570        13
50.580        40
50.590        53
50.600         7
50.610        33
50.620        13
50.630        40
50.640        40
50.650        13
50.660        13
50.670        27
50.680        27
50.690        20
50.700        13
50.710        47
50.720        60
50.730        40
50.740        47
50.750        33
50.760        40
50.770        20
50.780        33
50.790        40
50.800        20
50.810        60
50.820        13
50.830        27
50.840        33
50.850        33
50.860        33
50.870        20
50.880        67
50.890        27
50.900        20
50.910        33
50.920        13
50.930        40
50.940        20
50.950        33
50.960        20
50.970        20
50.980        53
50.990        20
51.000        40
51.010        33
51.020        27
51.030        20
51.040        27
51.050        20
51.060        27
51.070        33
51.080        13
51.090        20
51.100        13
51.110        20
51.120        20
51.130        20
51.140        40
51.150        20
51.160        40
51.170        20
51.180        20
51.190        47
51.200         0
51.210        20
51.220        27
51.230         7
51.240        27
51.250        40
51.260        20
51.270        53
51.280        13
51.290        27
51.300         7
51.310        47
51.320        13
51.330         0
51.340        20
51.350        20
51.360        20
51.370        20
51.380        27
51.390        47
51.400        27
51.410        27
51.420        20
51.430         7
51.440        20
51.450        27
51.460        20
51.470        13
51.480        13
51.490        33
51.500        20
51.510        33
51.520        13
51.530        40
51.540        13
51.550        27
51.560        27
51.570        27
51.580        40
51.590        27
51.600         0
51.610         0
51.620         7
51.630        53
51.640         7
51.650        33
51.660        13
51.670        13
51.680        13
51.690        13
51.700        20
51.710        33
51.720        20
51.730        13
51.740        33
51.750         7
51.760        33
51.770        53
51.780         7
51.790        60
51.800        20
51.810        40
51.820        40
51.830        27
51.840        53
51.850        33
51.860        13
51.870        20
51.880        20
51.890        27
51.900        20
51.910         7
51.920        13
51.930        20
51.940        20
51.950        27
51.960         0
51.970         7
51.980         7
51.990        13
52.000        20
52.010        20
52.020        40
52.030        33
52.040        33
52.050        20
52.060        33
52.070        27
52.080        33
52.090        27
52.100        27
52.110        33
52.120        13
52.130         7
52.140        20
52.150        33
52.160        13
52.170        33
52.180        13
52.190        33
52.200        20
52.210        27
52.220         7
52.230        27
52.240        47
52.250        27
52.260        40
52.270         7
52.280        13
52.290        27
52.300        13
52.310         0
52.320        27
52.330        33
52.340        53
52.350        20
52.360        47
52.370        47
52.380        33
52.390        20
52.400        27
52.410        13
52.420        20
52.430         7
52.440        27
52.450        33
52.460        20
52.470        33
52.480        27
52.490        60
52.500        47
52.510        47
52.520        40
52.530        53
52.540        40
52.550        67
52.560        73
52.570       107
52.580        93
52.590        87
52.600       100
52.610        27
52.620        33
52.630        47
52.640        67
52.650        47
52.660        47
52.670         7
52.680        33
52.690        73
52.700        47
52.710        47
52.720        73
52.730        47
52.740        40
52.750        27
52.760        33
52.770        20
52.780         7
52.790        47
52.800        27
52.810        33
52.820        20
52.830        33
52.840        27
52.850        33
52.860        27
52.870        33
52.880        33
52.890        27
52.900        13
52.910         0
52.920         7
52.930         7
52.940         7
52.950        20
52.960         7
52.970        20
52.980        13
52.990        33
53.000        20
53.010        13
53.020        27
53.030        20
53.040        40
53.050        20
53.060        13
53.070        13
53.080        33
53.090        13
53.100        13
53.110        47
53.120         7
53.130        40
53.140        27
53.150        27
53.160         7
53.170        40
53.180        40
53.190        13
53.200        13
53.210        20
53.220        20
53.230        33
53.240        20
53.250        53
53.260         0
53.270        27
53.280         0
53.290        33
53.300        40
53.310        20
53.320        33
53.330        40
53.340        20
53.350         7
53.360        33
53.370        33
53.380        33
53.390         7
53.400        33
53.410        20
53.420        27
53.430         7
53.440        40
53.450        20
53.460        27
53.470        20
53.480        13
53.490        33
53.500        40
53.510        27
53.520        53
53.530        33
53.540        13
53.550        20
53.560        20
53.570        40
53.580        27
53.590        33
53.600        13
53.610        27
53.620        33
53.630        13
53.640        13
53.650        27
53.660        47
53.670        13
53.680        33
53.690        20
53.700         7
53.710        20
53.720        27
53.730        40
53.740        13
53.750         7
53.760        13
53.770        27
53.780        13
53.790        27
53.800        27
53.810         0
53.820         7
53.830        27
53.840        13
53.850        40
53.860        33
53.870        27
53.880        20
53.890        20
53.900        40
53.910        27
53.920        40
53.930        53
53.940        20
53.950        27
53.960        27
53.970        33
53.980        20
53.990         7
54.000         7
54.010        27
54.020         7
54.030        27
54.040        40
54.050        27
54.060        27
54.070        20
54.080        20
54.090        20
54.100        27
54.110         7
54.120        27
54.130         7
54.140         7
54.150        13
54.160        33
54.170        33
54.180        20
54.190        20
54.200        20
54.210        27
54.220        20
54.230        27
54.240        13
54.250         7
54.260         7
54.270        20
54.280        33
54.290        27
54.300         7
54.310        27
54.320         7
54.330        40
54.340        13
54.350         7
54.360        27
54.370        13
54.380        27
54.390         7
54.400        20
54.410        27
54.420        13
54.430         7
54.440        20
54.450         0
54.460         7
54.470         7
54.480        13
54.490        47
54.500        33
54.510        13
54.520        20
54.530         0
54.540        20
54.550        13
54.560        47
54.570        20
54.580        20
54.590        20
54.600        13
54.610        13
54.620        27
54.630        40
54.640        20
54.650        20
54.660        40
54.670        47
54.680        40
54.690        53
54.700        27
54.710        33
54.720        27
54.730        20
54.740        20
54.750         7
54.760        20
54.770        13
54.780        40
54.790        33
54.800        47
54.810        13
54.820        13
54.830        13
54.840        20
54.850        67
54.860        20
54.870        27
54.880         7
54.890        20
54.900        27
54.910        27
54.920        27
54.930        20
54.940        53
54.950        27
54.960         0
54.970         7
54.980        13
54.990        27
55.000        27
55.010        33
55.020        33
55.030        20
55.040        33
55.050        20
55.060         7
55.070        33
55.080        13
55.090        20
55.100        13
55.110         0
55.120        33
55.130        13
55.140        13
55.150        40
55.160        13
55.170        20
55.180        27
55.190        27
55.200         7
55.210        33
55.220        20
55.230        20
55.240        33
55.250        20
55.260         7
55.270        33
55.280        20
55.290        27
55.300        13
55.310        13
55.320        33
55.330         7
55.340        27
55.350        33
55.360        20
55.370        13
55.380        13
55.390        13
55.400        13
55.410        27
55.420        33
55.430        27
55.440        27
55.450         0
55.460        20
55.470        20
55.480        20
55.490        27
55.500        20
55.510        40
55.520        27
55.530         7
55.540        27
55.550        13
55.560        20
55.570         7
55.580        13
55.590         0
55.600        27
55.610         7
55.620        33
55.630        33
55.640        27
55.650        13
55.660         7
55.670        13
55.680        20
55.690        20
55.700        27
55.710        33
55.720        20
55.730        13
55.740         7
55.750        40
55.760        33
55.770        27
55.780         0
55.790        27
55.800        40
55.810        27
55.820        13
55.830        13
55.840        27
55.850        33
55.860         7
55.870        13
55.880         7
55.890        20
55.900        20
55.910        13
55.920        27
55.930         7
55.940        13
55.950        20
55.960        47
55.970        33
55.980         7
55.990        27
56.000        20
56.010        27
56.020        13
56.030        13
56.040        13
56.050        20
56.060        27
56.070         7
56.080        20
56.090        27
56.100        13
56.110         0
56.120        27
56.130        33
56.140        20
56.150        40
56.160        27
56.170        40
56.180        13
56.190        13
56.200        27
56.210        20
56.220        13
56.230        47
56.240        13
56.250        27
56.260        20
56.270        33
56.280        27
56.290        13
56.300        13
56.310        13
56.320        40
56.330         7
56.340        33
56.350         0
56.360        33
56.370        20
56.380        27
56.390        13
56.400        67
56.410        33
56.420        20
56.430        27
56.440        20
56.450        27
56.460         0
56.470        20
56.480        20
56.490        20
56.500        27
56.510        20
56.520        13
56.530        27
56.540        33
56.550        47
56.560        27
56.570         7
56.580        20
56.590        13
56.600        33
56.610        13
56.620        20
56.630         0
56.640        33
56.650        13
56.660        20
56.670        13
56.680        13
56.690        27
56.700         0
56.710        27
56.720        13
56.730        47
56.740         0
56.750        20
56.760        20
56.770        13
56.780        13
56.790         7
56.800         0
56.810        53
56.820        20
56.830        53
56.840        13
56.850        27
56.860         7
56.870        13
56.880        20
56.890        13
56.900         7
56.910        33
56.920        20
56.930        33
56.940        13
56.950        13
56.960         7
56.970         7
56.980        33
56.990        33
57.000        27
57.010        20
57.020        20
57.030        40
57.040        20
57.050        20
57.060         7
57.070        20
57.080        20
57.090        33
57.100         7
57.110        27
57.120        13
57.130        33
57.140        13
57.150        33
57.160        27
57.170        13
57.180        20
57.190        13
57.200        33
57.210         7
57.220        27
57.230        47
57.240        13
57.250        27
57.260        33
57.270        40
57.280        27
57.290         7
57.300        27
57.310        40
57.320        20
57.330        33
57.340        27
57.350        53
57.360        60
57.370        20
57.380        33
57.390        47
57.400         7
57.410        73
57.420        40
57.430        27
57.440        40
57.450        47
57.460        47
57.470        20
57.480        53
57.490        67
57.500       113
57.510        87
57.520       147
57.530       180
57.540       173
57.550       173
57.560       147
57.570       133
57.580       107
57.590       100
57.600        33
57.610        27
57.620        33
57.630        53
57.640        87
57.650        73
57.660        80
57.670        67
57.680       140
57.690       107
57.700       107
57.710        87
57.720        80
57.730        20
57.740        47
57.750        20
57.760        40
57.770        53
57.780        40
57.790        33
57.800        20
57.810        80
57.820        20
57.830        67
57.840        40
57.850        40
57.860        20
57.870        60
57.880        53
57.890        27
57.900        40
57.910        87
57.920        27
57.930        67
57.940        33
57.950        60
57.960        53
57.970        27
57.980        13
57.990        40
58.000        33
58.010        27
58.020        47
58.030        13
58.040        13
58.050        27
58.060        13
58.070        13
58.080        27
58.090        47
58.100        67
58.110        33
58.120        33
58.130         7
58.140        27
58.150        33
58.160        27
58.170        13
58.180        20
58.190         7
58.200        40
58.210        13
58.220        20
58.230         7
58.240        13
58.250        20
58.260         7
58.270        20
58.280        40
58.290         7
58.300        13
58.310        27
58.320        20
58.330        27
58.340        27
58.350        13
58.360        20
58.370        13
58.380         0
58.390         7
58.400        40
58.410        13
58.420        27
58.430        27
58.440        20
58.450        13
58.460        33
58.470         0
58.480        20
58.490         7
58.500        27
58.510         7
58.520         7
58.530        27
58.540        47
58.550        20
58.560         0
58.570        20
58.580        33
58.590         7
58.600         7
58.610        13
58.620        33
58.630        20
58.640        20
58.650         7
58.660        33
58.670        27
58.680         7
58.690        27
58.700        33
58.710        20
58.720        20
58.730         0
58.740        33
58.750        27
58.760        27
58.770         7
58.780        27
58.790         7
58.800         7
58.810        27
58.820        20
58.830        27
58.840        13
58.850         7
58.860        13
58.870        20
58.880        27
58.890        33
58.900        13
58.910        33
58.920        27
58.930        13
58.940        27
58.950        20
58.960        20
58.970        27
58.980         7
58.990        27
59.000        27
59.010        27
59.020        27
59.030        20
59.040         7
59.050        27
59.060        13
59.070         7
59.080        20
59.090        13
59.100        20
59.110        13
59.120        13
59.130        33
59.140         0
59.150        20
59.160        20
59.170        13
59.180        20
59.190        40
59.200        13
59.210         7
59.220         7
59.230        40
59.240         7
59.250        13
59.260        20
59.270        20
59.280        27
59.290        33
59.300         7
59.310        40
59.320        20
59.330        20
59.340        53
59.350        20
59.360        27
59.370        27
59.380        20
59.390        20
59.400        13
59.410         7
59.420        20
59.430        40
59.440         7
59.450         0
59.460         0
59.470        27
59.480         7
59.490        40
59.500        20
59.510        27
59.520         7
59.530         0
59.540         7
59.550         0
59.560         7
59.570         0
59.580        20
59.590        13
59.600         7
59.610        13
59.620        33
59.630        33
59.640        33
59.650         7
59.660         0
59.670        33
59.680        13
59.690        27
59.700        33
59.710         7
59.720        20
59.730        27
59.740        20
59.750         7
59.760         7
59.770        13
59.780        13
59.790        13
59.800        13
59.810        27
59.820        13
59.830        13
59.840        27
59.850        20
59.860        13
59.870        27
59.880         7
59.890        20
59.900        27
59.910        20
59.920         0
59.930         0
59.940        13
59.950         7
59.960        47
59.970        13
59.980         0
59.990        20
60.000        13
