20.000        67
20.010        80
20.020       133
20.030        60
20.040       107
20.050        87
20.060        53
20.070        47
20.080        87
20.090        73
20.100       113
20.110        40
20.120        60
20.130        73
20.140        93
20.150       113
20.160        93
20.170        60
20.180        67
20.190        53
20.200        87
20.210       120
20.220       100
20.230        47
20.240        80
20.250        73
20.260        73
20.270        73
20.280        73
20.290        67
20.300        60
20.310       113
20.320        53
20.330        47
20.340        60
20.350        67
20.360       107
20.370        93
20.380       100
20.390        73
20.400        33
20.410        67
20.420        80
20.430       100
20.440        53
20.450        47
20.460        87
20.470        60
20.480       120
20.490        67
20.500       107
20.510        53
20.520        67
20.530        67
20.540        40
20.550        67
20.560        53
20.570        93
20.580        53
20.590       100
20.600        87
20.610       100
20.620        80
20.630        93
20.640        53
20.650       113
20.660        93
20.670        80
20.680       100
20.690        53
20.700        60
20.710        87
20.720        93
20.730        80
20.740        53
20.750        60
20.760        47
20.770        73
20.780        67
20.790        80
20.800        73
20.810        60
20.820        73
20.830       100
20.840        67
20.850        53
20.860        93
20.870        33
20.880        53
20.890        87
20.900        40
20.910        73
20.920        67
20.930        87
20.940       100
20.950        67
20.960        67
20.970        80
20.980        73
20.990       127
21.000        53
21.010        40
21.020        93
21.030        33
21.040        73
21.050        60
21.060        40
21.070       107
21.080        73
21.090       107
21.100        87
21.110       107
21.120        47
21.130        40
21.140        67
21.150        80
21.160        73
21.170        80
21.180       113
21.190        80
21.200        67
21.210        40
21.220        93
21.230        60
21.240       120
21.250        60
21.260        93
21.270       100
21.280       113
21.290        60
21.300        80
21.310       100
21.320        73
21.330       100
21.340       100
21.350        67
21.360        73
21.370        87
21.380       113
21.390        67
21.400        93
21.410       100
21.420        60
21.430        93
21.440        40
21.450        67
21.460        40
21.470        80
21.480        80
21.490        60
21.500        53
21.510        73
21.520        67
21.530        67
21.540        87
21.550        67
21.560        93
21.570        93
21.580       100
21.590        60
21.600        87
21.610       107
21.620        53
21.630        73
21.640       107
21.650        67
21.660        53
21.670       100
21.680        60
21.690       127
21.700        60
21.710        87
21.720        53
21.730       100
21.740        80
21.750        93
21.760        93
21.770       100
21.780        80
21.790        40
21.800        87
21.810        53
21.820        47
21.830        53
21.840       113
21.850        40
21.860        40
21.870        60
21.880        47
21.890        53
21.900       100
21.910        73
21.920        73
21.930        53
21.940        87
21.950       113
21.960        93
21.970        53
21.980       127
21.990        87
22.000        87
22.010        87
22.020        87
22.030        93
22.040        73
22.050        87
22.060        67
22.070        60
22.080       100
22.090       113
22.100        40
22.110       100
22.120        60
22.130        93
22.140        60
22.150        73
22.160        73
22.170        87
22.180        53
22.190        60
22.200       100
22.210       120
22.220       120
22.230       113
22.240        87
22.250        93
22.260        73
22.270        73
22.280        93
22.290        93
22.300       140
22.310        73
22.320        47
22.330        87
22.340       127
22.350       100
22.360       100
22.370        87
22.380        87
22.390        40
22.400       100
22.410        87
22.420       113
22.430        67
22.440        60
22.450       107
22.460        67
22.470       127
22.480        67
22.490       127
22.500       113
22.510       100
22.520       120
22.530       120
22.540       167
22.550        87
22.560       100
22.570        93
22.580        87
22.590        87
22.600       153
22.610       127
22.620        93
22.630       140
22.640       167
22.650       147
22.660       127
22.670       107
22.680       133
22.690       153
22.700       187
22.710       140
22.720       153
22.730       153
22.740       120
22.750       187
22.760       160
22.770       180
22.780       140
22.790       180
22.800       180
22.810       133
22.820       107
22.830       120
22.840       140
22.850       113
22.860       147
22.870       113
22.880       140
22.890       127
22.900        80
22.910       127
22.920       180
22.930       160
22.940       220
22.950       140
22.960       220
22.970       127
22.980       187
22.990       173
23.000       200
23.010       147
23.020       193
23.030       167
23.040       193
23.050       213
23.060       293
23.070       360
23.080       573
23.090       866
23.100      1006
23.110      1253
23.120      1459
23.130      1306
23.140      1419
23.150      1126
23.160       933
23.170       640
23.180       367
23.190       293
23.200       287
23.210       207
23.220       173
23.230       207
23.240       173
23.250       160
23.260       133
23.270       180
23.280       120
23.290       133
23.300       147
23.310       120
23.320       147
23.330       133
23.340       140
23.350       140
23.360       153
23.370       153
23.380       140
23.390       107
23.400        93
23.410       147
23.420       113
23.430       153
23.440       113
23.450        73
23.460       100
23.470        93
23.480       120
23.490       180
23.500       107
23.510       120
23.520       147
23.530        40
23.540       100
23.550       127
23.560       100
23.570       113
23.580       133
23.590       167
23.600       173
23.610       133
23.620       127
23.630       160
23.640       107
23.650       140
23.660       100
23.670       160
23.680       127
23.690       100
23.700       127
23.710       147
23.720       147
23.730        80
23.740       140
23.750       133
23.760       100
23.770       113
23.780       107
23.790       180
23.800       160
23.810       160
23.820       113
23.830       107
23.840        73
23.850       120
23.860       147
23.870       127
23.880        80
23.890       127
23.900       100
23.910        67
23.920       113
23.930        67
23.940       173
23.950       127
23.960       113
23.970       140
23.980       100
23.990       107
24.000       107
24.010        93
24.020        87
24.030       133
24.040        87
24.050       127
24.060       107
24.070       187
24.080       213
24.090        87
24.100        67
24.110        93
24.120       113
24.130       133
24.140       140
24.150       127
24.160       147
24.170        67
24.180        87
24.190       153
24.200        73
24.210       100
24.220       133
24.230        73
24.240       140
24.250       100
24.260       120
24.270       133
24.280       147
24.290       120
24.300       120
24.310       140
24.320       153
24.330       127
24.340        53
24.350       120
24.360       133
24.370       140
24.380       107
24.390       120
24.400       127
24.410       127
24.420       153
24.430       180
24.440       147
24.450       107
24.460       133
24.470       153
24.480        93
24.490       147
24.500       140
24.510       160
24.520       207
24.530       107
24.540       113
24.550       127
24.560       180
24.570       127
24.580       113
24.590       153
24.600        93
24.610       160
24.620        73
24.630       153
24.640       153
24.650       147
24.660       173
24.670       200
24.680        93
24.690       200
24.700       160
24.710       200
24.720       307
24.730       440
24.740       380
24.750       513
24.760       580
24.770       566
24.780       540
24.790       626
24.800       586
24.810       660
24.820       653
24.830       753
24.840       553
24.850       620
24.860       673
24.870       593
24.880       766
24.890       666
24.900       786
24.910       666
24.920       826
24.930       653
24.940       700
24.950       680
24.960       720
24.970       606
24.980       666
24.990       680
25.000       840
25.010       646
25.020       566
25.030       726
25.040       706
25.050       680
25.060       626
25.070       653
25.080       733
25.090       760
25.100       840
25.110       673
25.120       873
25.130       746
25.140       660
25.150       653
25.160       720
25.170       706
25.180       880
25.190       773
25.200       806
25.210       813
25.220       986
25.230       786
25.240       773
25.250       853
25.260       846
25.270       906
25.280       920
25.290       953
25.300       840
25.310       786
25.320       900
25.330      1173
25.340      1013
25.350      1113
25.360      1253
25.370      1273
25.380      1653
25.390      2059
25.400      2532
25.410      3132
25.420      3645
25.430      4585
25.440      5198
25.450      6337
25.460      7004
25.470      7517
25.480      8250
25.490      9210
25.500     10403
25.510     11096
25.520     11655
25.530     12542
25.540     13435
25.550     14887
25.560     19739
25.570     32780
25.580     61362
25.590     97634
25.600    127949
25.610    146801
25.620    157397
25.630    162062
25.640    167346
25.650    165927
25.660    150740
25.670    126203
25.680    106391
25.690    100113
25.700     96108
25.710     90424
25.720     75063
25.730     51486
25.740     28802
25.750     15334
25.760     10742
25.770      8083
25.780      7304
25.790      5944
25.800      4878
25.810      4158
25.820      3305
25.830      2932
25.840      2672
25.850      2132
25.860      2033
25.870      1833
25.880      1693
25.890      1473
25.900      1313
25.910      1140
25.920      1326
25.930      1379
25.940      1040
25.950      1140
25.960       946
25.970      1100
25.980      1006
25.990      1013
26.000       820
26.010       960
26.020       953
26.030      1020
26.040      1013
26.050       986
26.060       846
26.070       940
26.080       646
26.090       680
26.100       806
26.110       680
26.120       840
26.130       726
26.140       706
26.150       746
26.160       726
26.170       566
26.180       746
26.190       680
26.200       713
26.210       726
26.220       773
26.230       713
26.240       680
26.250       646
26.260       573
26.270       693
26.280       593
26.290       653
26.300       620
26.310       700
26.320       653
26.330       740
26.340       546
26.350       426
26.360       686
26.370       660
26.380       640
26.390       620
26.400       540
26.410       600
26.420       560
26.430       633
26.440       540
26.450       520
26.460       586
26.470       613
26.480       546
26.490       513
26.500       646
26.510       586
26.520       580
26.530       566
26.540       626
26.550       586
26.560       433
26.570       473
26.580       526
26.590       513
26.600       526
26.610       586
26.620       553
26.630       546
26.640       473
26.650       446
26.660       560
26.670       433
26.680       480
26.690       573
26.700       506
26.710       460
26.720       586
26.730       460
26.740       413
26.750       486
26.760       500
26.770       486
26.780       473
26.790       493
26.800       440
26.810       546
26.820       500
26.830       486
26.840       373
26.850       580
26.860       506
26.870       426
26.880       493
26.890       426
26.900       453
26.910       473
26.920       340
26.930       526
26.940       493
26.950       426
26.960       520
26.970       500
26.980       526
26.990       506
27.000       453
27.010       506
27.020       373
27.030       533
27.040       373
27.050       520
27.060       433
27.070       426
27.080       540
27.090       560
27.100       413
27.110       426
27.120       400
27.130       573
27.140       466
27.150       426
27.160       413
27.170       413
27.180       493
27.190       340
27.200       453
27.210       446
27.220       466
27.230       420
27.240       513
27.250       473
27.260       440
27.270       446
27.280       433
27.290       400
27.300       407
27.310       486
27.320       440
27.330       393
27.340       440
27.350       460
27.360       433
27.370       513
27.380       393
27.390       440
27.400       473
27.410       540
27.420       360
27.430       367
27.440       400
27.450       360
27.460       420
27.470       440
27.480       273
27.490       420
27.500       373
27.510       327
27.520       360
27.530       433
27.540       367
27.550       420
27.560       413
27.570       393
27.580       313
27.590       360
27.600       407
27.610       480
27.620       473
27.630       460
27.640       340
27.650       486
27.660       500
27.670       420
27.680       446
27.690       426
27.700       466
27.710       413
27.720       453
27.730       380
27.740       413
27.750       367
27.760       307
27.770       433
27.780       413
27.790       407
27.800       400
27.810       340
27.820       420
27.830       466
27.840       426
27.850       387
27.860       486
27.870       433
27.880       453
27.890       360
27.900       380
27.910       413
27.920       480
27.930       426
27.940       393
27.950       367
27.960       446
27.970       367
27.980       300
27.990       387
28.000       340
28.010       373
28.020       340
28.030       333
28.040       426
28.050       393
28.060       320
28.070       380
28.080       320
28.090       440
28.100       307
28.110       393
28.120       426
28.130       353
28.140       320
28.150       320
28.160       426
28.170       380
28.180       367
28.190       373
28.200       380
28.210       413
28.220       373
28.230       300
28.240       420
28.250       387
28.260       247
28.270       340
28.280       347
28.290       367
28.300       313
28.310       393
28.320       347
28.330       300
28.340       373
28.350       353
28.360       353
28.370       300
28.380       480
28.390       387
28.400       340
28.410       320
28.420       387
28.430       267
28.440       340
28.450       433
28.460       280
28.470       353
28.480       333
28.490       313
28.500       360
28.510       340
28.520       280
28.530       327
28.540       426
28.550       367
28.560       387
28.570       426
28.580       353
28.590       293
28.600       287
28.610       387
28.620       307
28.630       260
28.640       380
28.650       307
28.660       220
28.670       293
28.680       400
28.690       387
28.700       367
28.710       340
28.720       327
28.730       293
28.740       327
28.750       347
28.760       267
28.770       333
28.780       340
28.790       307
28.800       267
28.810       293
28.820       407
28.830       313
28.840       307
28.850       293
28.860       293
28.870       340
28.880       293
28.890       313
28.900       347
28.910       307
28.920       253
28.930       253
28.940       320
28.950       380
28.960       300
28.970       220
28.980       407
28.990       353
29.000       347
29.010       313
29.020       347
29.030       293
29.040       333
29.050       327
29.060       393
29.070       353
29.080       253
29.090       300
29.100       280
29.110       333
29.120       313
29.130       287
29.140       327
29.150       293
29.160       280
29.170       367
29.180       387
29.190       260
29.200       280
29.210       400
29.220       300
29.230       320
29.240       260
29.250       267
29.260       340
29.270       227
29.280       287
29.290       253
29.300       313
29.310       213
29.320       253
29.330       273
29.340       247
29.350       267
29.360       407
29.370       287
29.380       233
29.390       373
29.400       373
29.410       240
29.420       327
29.430       267
29.440       360
29.450       367
29.460       320
29.470       267
29.480       333
29.490       293
29.500       293
29.510       267
29.520       300
29.530       273
29.540       227
29.550       313
29.560       300
29.570       293
29.580       280
29.590       327
29.600       227
29.610       253
29.620       247
29.630       327
29.640       207
29.650       240
29.660       320
29.670       280
29.680       313
29.690       220
29.700       273
29.710       207
29.720       260
29.730       300
29.740       307
29.750       247
29.760       233
29.770       313
29.780       193
29.790       267
29.800       360
29.810       293
29.820       307
29.830       273
29.840       293
29.850       247
29.860       220
29.870       260
29.880       213
29.890       313
29.900       287
29.910       247
29.920       247
29.930       280
29.940       240
29.950       287
29.960       260
29.970       247
29.980       287
29.990       300
30.000       353
30.010       313
30.020       240
30.030       253
30.040       233
30.050       227
30.060       213
30.070       360
30.080       280
30.090       253
30.100       280
30.110       273
30.120       247
30.130       247
30.140       293
30.150       273
30.160       267
30.170       247
30.180       293
30.190       233
30.200       320
30.210       260
30.220       220
30.230       307
30.240       340
30.250       227
30.260       233
30.270       280
30.280       260
30.290       247
30.300       247
30.310       293
30.320       300
30.330       273
30.340       320
30.350       260
30.360       313
30.370       353
30.380       273
30.390       300
30.400       300
30.410       247
30.420       200
30.430       247
30.440       253
30.450       227
30.460       187
30.470       227
30.480       247
30.490       253
30.500       227
30.510       207
30.520       307
30.530       313
30.540       267
30.550       313
30.560       260
30.570       287
30.580       273
30.590       213
30.600       233
30.610       187
30.620       153
30.630       227
30.640       260
30.650       253
30.660       187
30.670       227
30.680       200
30.690       240
30.700       213
30.710       260
30.720       293
30.730       200
30.740       287
30.750       287
30.760       187
30.770       233
30.780       240
30.790       180
30.800       187
30.810       240
30.820       213
30.830       193
30.840       260
30.850       280
30.860       227
30.870       213
30.880       227
30.890       253
30.900       313
30.910       227
30.920       233
30.930       227
30.940       233
30.950       307
30.960       233
30.970       233
30.980       253
30.990       253
31.000       167
31.010       200
31.020       200
31.030       253
31.040       173
31.050       187
31.060       293
31.070       267
31.080       187
31.090       227
31.100       167
31.110       187
31.120       233
31.130       213
31.140       180
31.150       207
31.160       300
31.170       160
31.180       227
31.190       173
31.200       287
31.210       200
31.220       167
31.230       140
31.240       200
31.250       273
31.260       207
31.270       207
31.280       240
31.290       187
31.300       220
31.310       200
31.320       273
31.330       220
31.340       267
31.350       200
31.360       147
31.370       227
31.380       180
31.390       187
31.400       173
31.410       200
31.420       200
31.430       233
31.440       227
31.450       207
31.460       233
31.470       147
31.480       207
31.490       233
31.500       260
31.510       253
31.520       153
31.530       133
31.540       247
31.550       120
31.560       280
31.570       200
31.580       227
31.590       187
31.600       193
31.610       247
31.620       180
31.630       180
31.640       260
31.650       213
31.660       120
31.670       267
31.680       253
31.690       247
31.700       160
31.710       247
31.720       133
31.730       213
31.740       160
31.750       213
31.760       153
31.770       187
31.780       173
31.790       160
31.800       173
31.810       213
31.820       133
31.830       207
31.840       260
31.850       160
31.860       213
31.870       127
31.880       187
31.890       200
31.900       233
31.910       240
31.920       133
31.930       160
31.940       160
31.950       180
31.960       147
31.970       193
31.980       147
31.990       187
32.000       220
32.010       153
32.020       260
32.030       187
32.040       213
32.050       207
32.060       140
32.070       193
32.080       233
32.090       187
32.100       233
32.110       253
32.120       233
32.130       240
32.140       240
32.150       233
32.160       247
32.170       300
32.180       273
32.190       247
32.200       307
32.210       333
32.220       233
32.230       233
32.240       347
32.250       413
32.260       260
32.270       440
32.280       426
32.290       460
32.300       446
32.310       446
32.320       560
32.330       686
32.340       626
32.350       653
32.360       560
32.370       746
32.380       726
32.390       920
32.400       806
32.410       853
32.420       660
32.430       746
32.440       700
32.450       726
32.460       560
32.470       553
32.480       546
32.490       520
32.500       446
32.510       433
32.520       473
32.530       453
32.540       413
32.550       320
32.560       367
32.570       280
32.580       327
32.590       307
32.600       333
32.610       267
32.620       307
32.630       200
32.640       213
32.650       213
32.660       200
32.670       147
32.680       200
32.690       140
32.700       173
32.710       227
32.720       193
32.730       153
32.740       193
32.750       193
32.760       207
32.770       127
32.780       187
32.790       220
32.800       180
32.810       187
32.820       140
32.830       167
32.840       207
32.850       167
32.860       213
32.870       240
32.880       160
32.890       140
32.900       100
32.910       167
32.920        93
32.930       160
32.940       187
32.950       200
32.960       180
32.970       233
32.980       187
32.990       147
33.000       140
33.010       167
33.020       187
33.030       180
33.040       193
33.050       120
33.060       153
33.070       120
33.080       140
33.090       153
33.100       147
33.110       107
33.120       127
33.130       160
33.140       173
33.150       140
33.160        93
33.170       160
33.180       147
33.190       193
33.200       153
33.210       133
33.220       167
33.230       127
33.240       133
33.250       140
33.260       187
33.270       167
33.280       133
33.290       147
33.300       133
33.310       180
33.320       160
33.330       107
33.340       100
33.350       153
33.360        67
33.370       160
33.380       100
33.390       187
33.400       140
33.410       100
33.420       140
33.430       153
33.440       127
33.450       140
33.460       193
33.470       133
33.480       107
33.490       173
33.500       113
33.510       160
33.520       160
33.530       160
33.540       127
33.550       160
33.560       120
33.570        93
33.580       133
33.590       113
33.600       120
33.610       153
33.620       127
33.630       113
33.640        93
33.650       127
33.660       167
33.670       113
33.680       113
33.690       173
33.700       140
33.710       140
33.720       140
33.730       107
33.740       173
33.750       127
33.760       153
33.770        87
33.780       107
33.790       127
33.800       153
33.810       147
33.820       147
33.830       200
33.840       100
33.850       187
33.860       120
33.870       153
33.880       200
33.890        93
33.900       127
33.910       127
33.920       147
33.930       153
33.940       127
33.950       133
33.960       167
33.970       113
33.980       140
33.990       107
34.000        73
34.010       127
34.020       113
34.030        87
34.040        60
34.050       153
34.060       100
34.070        87
34.080       140
34.090       147
34.100       100
34.110       107
34.120       153
34.130       160
34.140        87
34.150        93
34.160       133
34.170       127
34.180       113
34.190       120
34.200       120
34.210        80
34.220       167
34.230       120
34.240       127
34.250       120
34.260       153
34.270       153
34.280       133
34.290       107
34.300       107
34.310       113
34.320        80
34.330       153
34.340       113
34.350        73
34.360       147
34.370       167
34.380       120
34.390       140
34.400       120
34.410       100
34.420       140
34.430       100
34.440        87
34.450       107
34.460        80
34.470        80
34.480       160
34.490       127
34.500       113
34.510       153
34.520       147
34.530       120
34.540        80
34.550       127
34.560       147
34.570       147
34.580       153
34.590        60
34.600       120
34.610        87
34.620       120
34.630       113
34.640       120
34.650       107
34.660       107
34.670        93
34.680       140
34.690       113
34.700       107
34.710       120
34.720       133
34.730       113
34.740       133
34.750       147
34.760       133
34.770       120
34.780        87
34.790       113
34.800       100
34.810        87
34.820        73
34.830        67
34.840       113
34.850       107
34.860        87
34.870       153
34.880       133
34.890       120
34.900       100
34.910        53
34.920       127
34.930       127
34.940       160
34.950       127
34.960       147
34.970       127
34.980        93
34.990        87
35.000       127
35.010       133
35.020       107
35.030       120
35.040       120
35.050       127
35.060       127
35.070       113
35.080        47
35.090       107
35.100        60
35.110        87
35.120       100
35.130       120
35.140       113
35.150       127
35.160       140
35.170       153
35.180       133
35.190        93
35.200        53
35.210        93
35.220       113
35.230       107
35.240       113
35.250        93
35.260       107
35.270        93
35.280       107
35.290       113
35.300       120
35.310       113
35.320       100
35.330       133
35.340        73
35.350       100
35.360       100
35.370       133
35.380       100
35.390       107
35.400       107
35.410        33
35.420       167
35.430       113
35.440        87
35.450        80
35.460       120
35.470       100
35.480       107
35.490        73
35.500       120
35.510       147
35.520        80
35.530        60
35.540        87
35.550        93
35.560        73
35.570       107
35.580       147
35.590        93
35.600        87
35.610       100
35.620        73
35.630        93
35.640        93
35.650       160
35.660       107
35.670        73
35.680       167
35.690        73
35.700        67
35.710       153
35.720        80
35.730        67
35.740       100
35.750        67
35.760       100
35.770       100
35.780        93
35.790       113
35.800       127
35.810       127
35.820       100
35.830       180
35.840        67
35.850        87
35.860       107
35.870       133
35.880        80
35.890        73
35.900       107
35.910       107
35.920       113
35.930        60
35.940        47
35.950       107
35.960        67
35.970       100
35.980        93
35.990        60
36.000        87
36.010       160
36.020        67
36.030       100
36.040        93
36.050       100
36.060       100
36.070        87
36.080        93
36.090        93
36.100        40
36.110        80
36.120       100
36.130       127
36.140       107
36.150       113
36.160        80
36.170        87
36.180       100
36.190        87
36.200        67
36.210       100
36.220        47
36.230        73
36.240       107
36.250       127
36.260        87
36.270       107
36.280       120
36.290       100
36.300       153
36.310        80
36.320        80
36.330        73
36.340       100
36.350        60
36.360        73
36.370        60
36.380        87
36.390        67
36.400       127
36.410        73
36.420        87
36.430        87
36.440       133
36.450        93
36.460        93
36.470       113
36.480       147
36.490        80
36.500        80
36.510        60
36.520        87
36.530        93
36.540        67
36.550       100
36.560        60
36.570        73
36.580        73
36.590       113
36.600        67
36.610        47
36.620       113
36.630        73
36.640        67
36.650        67
36.660        60
36.670        73
36.680        80
36.690        93
36.700        93
36.710        73
36.720        80
36.730       127
36.740        73
36.750        53
36.760        73
36.770        73
36.780        93
36.790        47
36.800        87
36.810        87
36.820        80
36.830        80
36.840       107
36.850        53
36.860       100
36.870        47
36.880        93
36.890        67
36.900        73
36.910        73
36.920        60
36.930        73
36.940        53
36.950       107
36.960       133
36.970        60
36.980        53
36.990        87
37.000        73
37.010       107
37.020        73
37.030        80
37.040        40
37.050        60
37.060        80
37.070        87
37.080        40
37.090       107
37.100        80
37.110        40
37.120        73
37.130        53
37.140        33
37.150        40
37.160       100
37.170        87
37.180        67
37.190        67
37.200       107
37.210        67
37.220       127
37.230        80
37.240        53
37.250       120
37.260        47
37.270        73
37.280        53
37.290        80
37.300        60
37.310        67
37.320        67
37.330        67
37.340        60
37.350        60
37.360       100
37.370        53
37.380       113
37.390        67
37.400        87
37.410        47
37.420        40
37.430        80
37.440        80
37.450        40
37.460        73
37.470        27
37.480       100
37.490        67
37.500        33
37.510        60
37.520        60
37.530        73
37.540        87
37.550        47
37.560        87
37.570        80
37.580        33
37.590        53
37.600        60
37.610        67
37.620        67
37.630        60
37.640        33
37.650        53
37.660        73
37.670       127
37.680        87
37.690        73
37.700        73
37.710        60
37.720        53
37.730        33
37.740        80
37.750        47
37.760        80
37.770        87
37.780        67
37.790        67
37.800        60
37.810        87
37.820        40
37.830        53
37.840       107
37.850        53
37.860        93
37.870        53
37.880        73
37.890        67
37.900        47
37.910        47
37.920       107
37.930        73
37.940        87
37.950        67
37.960        67
37.970        73
37.980        47
37.990        53
38.000        60
38.010        67
38.020        73
38.030        67
38.040        53
38.050        27
38.060       107
38.070        67
38.080        60
38.090        53
38.100        40
38.110        60
38.120        93
38.130        80
38.140       113
38.150        53
38.160        53
38.170        93
38.180        40
38.190        87
38.200        27
38.210        87
38.220        67
38.230        60
38.240        73
38.250        53
38.260        73
38.270        80
38.280        73
38.290        60
38.300        67
38.310        40
38.320        53
38.330        53
38.340        47
38.350        60
38.360        53
38.370        67
38.380        67
38.390        67
38.400       100
38.410        67
38.420        67
38.430        60
38.440        60
38.450        33
38.460        33
38.470        93
38.480        20
38.490        87
38.500        33
38.510        73
38.520        47
38.530        73
38.540        80
38.550        67
38.560        53
38.570        33
38.580       100
38.590        73
38.600        73
38.610        53
38.620        73
38.630        87
38.640        67
38.650        53
38.660        73
38.670        27
38.680        53
38.690        67
38.700        47
38.710        87
38.720        40
38.730        47
38.740        47
38.750        47
38.760        53
38.770        60
38.780        67
38.790        73
38.800        33
38.810        27
38.820        27
38.830        53
38.840        40
38.850        53
38.860        67
38.870        73
38.880        27
38.890        67
38.900        60
38.910        53
38.920        67
38.930        73
38.940        67
38.950        47
38.960        87
38.970        67
38.980        47
38.990        47
39.000        47
39.010        53
39.020        47
39.030        33
39.040        53
39.050        47
39.060        67
39.070        80
39.080        73
39.090        40
39.100        60
39.110        60
39.120        60
39.130        67
39.140        53
39.150        27
39.160        60
39.170        53
39.180        53
39.190        60
39.200        67
39.210        33
39.220        33
39.230        40
39.240        40
39.250        40
39.260        60
39.270        67
39.280        47
39.290        20
39.300        40
39.310        60
39.320        20
39.330        40
39.340        60
39.350        53
39.360        47
39.370        33
39.380        33
39.390        27
39.400        53
39.410        33
39.420        47
39.430        47
39.440        33
39.450        13
39.460        67
39.470        60
39.480        47
39.490        73
39.500        20
39.510        40
39.520        27
39.530        27
39.540        40
39.550        60
39.560        40
39.570        73
39.580        40
39.590        33
39.600        53
39.610        53
39.620        53
39.630        53
39.640        33
39.650        60
39.660        27
39.670        60
39.680        33
39.690        60
39.700        47
39.710        40
39.720        60
39.730        67
39.740        40
39.750        60
39.760        53
39.770        47
39.780        40
39.790        33
39.800        67
39.810        40
39.820        13
39.830        13
39.840        53
39.850        67
39.860        87
39.870        27
39.880        93
39.890        60
39.900        67
39.910        60
39.920        60
39.930        60
39.940        33
39.950        67
39.960        33
39.970        53
39.980       100
39.990       100
40.000        73
40.010        67
40.020        87
40.030        53
40.040        47
40.050        53
40.060        53
40.070        80
40.080        87
40.090        80
40.100        47
40.110        53
40.120        73
40.130        53
40.140        73
40.150        53
40.160        60
40.170         7
40.180        53
40.190        33
40.200        67
40.210        53
40.220        33
40.230        73
40.240        53
40.250        40
40.260        40
40.270        73
40.280       100
40.290        13
40.300        60
40.310        53
40.320        47
40.330        60
40.340        47
40.350        20
40.360        33
40.370        80
40.380        53
40.390        47
40.400        27
40.410        87
40.420        60
40.430        47
40.440        60
40.450        47
40.460        13
40.470        47
40.480        73
40.490        33
40.500        20
40.510        60
40.520        40
40.530        33
40.540        53
40.550        53
40.560        53
40.570        40
40.580        20
40.590        47
40.600        27
40.610        47
40.620        53
40.630        20
40.640        40
40.650        40
40.660        53
40.670        33
40.680        53
40.690        40
40.700        53
40.710        33
40.720        47
40.730        20
40.740        27
40.750        47
40.760        40
40.770        20
40.780        27
40.790        13
40.800        53
40.810        40
40.820        33
40.830        47
40.840        40
40.850        60
40.860        47
40.870        27
40.880        53
40.890        40
40.900        20
40.910        40
40.920        20
40.930        27
40.940        60
40.950        53
40.960        47
40.970         7
40.980        20
40.990        67
41.000        67
41.010        53
41.020        33
41.030        40
41.040        40
41.050        40
41.060        20
41.070        27
41.080        53
41.090        13
41.100        47
41.110        80
41.120        40
41.130        33
41.140        47
41.150        60
41.160        67
41.170        33
41.180        27
41.190        40
41.200        40
41.210        47
41.220        40
41.230        33
41.240        40
41.250        33
41.260        47
41.270        33
41.280        33
41.290        53
41.300        33
41.310        53
41.320        60
41.330        53
41.340        27
41.350        20
41.360        87
41.370        27
41.380        47
41.390        27
41.400        60
41.410        40
41.420        27
41.430        53
41.440        53
41.450        53
41.460        33
41.470        40
41.480        20
41.490        40
41.500        67
41.510        67
41.520        20
41.530        40
41.540        20
41.550        47
41.560        60
41.570        87
41.580        40
41.590        73
41.600        33
41.610        27
41.620        47
41.630        27
41.640        60
41.650        33
41.660        13
41.670        53
41.680        40
41.690        47
41.700        20
41.710        67
41.720        20
41.730        27
41.740        27
41.750        27
41.760        20
41.770        67
41.780        27
41.790        27
41.800        47
41.810        73
41.820        40
41.830        33
41.840        53
41.850        20
41.860        27
41.870        40
41.880        40
41.890        33
41.900        40
41.910        33
41.920        53
41.930        20
41.940        27
41.950        87
41.960        47
41.970        27
41.980        13
41.990        73
42.000        60
42.010        27
42.020        27
42.030        27
42.040        60
42.050        40
42.060        33
42.070        53
42.080        20
42.090        13
42.100        53
42.110        13
42.120        67
42.130        47
42.140        60
42.150        53
42.160        53
42.170        20
42.180        40
42.190        40
42.200         7
42.210        53
42.220        40
42.230        53
42.240        27
42.250        47
42.260        20
42.270        33
42.280        53
42.290        47
42.300        47
42.310        40
42.320        40
42.330        40
42.340        40
42.350        27
42.360        20
42.370        60
42.380        33
42.390        40
42.400        40
42.410        27
42.420        33
42.430        27
42.440        33
42.450        47
42.460        33
42.470        40
42.480        40
42.490        40
42.500        27
42.510        13
42.520        27
42.530        47
42.540        53
42.550        33
42.560        40
42.570        40
42.580        33
42.590        27
42.600        47
42.610        47
42.620        53
42.630        13
42.640        33
42.650        53
42.660        20
42.670        40
42.680        33
42.690        73
42.700        73
42.710        53
42.720        33
42.730        20
42.740        47
42.750        60
42.760        27
42.770        33
42.780        27
42.790        33
42.800        40
42.810         7
42.820        13
42.830        40
42.840        47
42.850        47
42.860        33
42.870        60
42.880        53
42.890        47
42.900        33
42.910        60
42.920        20
42.930        20
42.940        40
42.950        33
42.960        53
42.970        47
42.980        20
42.990        40
43.000         7
43.010        53
43.020        53
43.030        27
43.040        27
43.050        53
43.060        20
43.070        27
43.080        53
43.090        40
43.100        40
43.110        47
43.120        47
43.130        27
43.140        33
43.150        33
43.160        53
43.170        20
43.180        33
43.190        33
43.200        33
43.210        47
43.220        20
43.230        33
43.240        33
43.250        60
43.260        47
43.270        53
43.280        13
43.290        53
43.300        67
43.310        13
43.320        20
43.330         7
43.340        67
43.350        40
43.360        20
43.370        13
43.380        67
43.390        33
43.400        40
43.410        47
43.420        67
43.430        20
43.440        87
43.450        20
43.460        33
43.470        27
43.480        47
43.490        27
43.500        20
43.510        13
43.520        13
43.530        33
43.540        20
43.550        53
43.560        20
43.570        33
43.580        33
43.590        27
43.600        20
43.610        27
43.620        60
43.630        20
43.640        47
43.650        40
43.660        47
43.670        33
43.680        40
43.690        40
43.700        20
43.710         7
43.720        60
43.730        27
43.740        33
43.750        33
43.760        47
43.770        33
43.780         0
43.790        47
43.800        40
43.810        27
43.820        40
43.830        27
43.840        20
43.850        33
43.860        13
43.870        27
43.880        47
43.890        33
43.900        27
43.910        53
43.920        20
43.930        53
43.940        33
43.950        40
43.960        40
43.970        33
43.980        33
43.990        33
44.000        40
44.010        33
44.020        33
44.030        27
44.040        13
44.050        40
44.060        27
44.070        40
44.080        33
44.090        33
44.100        67
44.110        33
44.120        27
44.130        27
44.140        33
44.150        40
44.160        53
44.170        27
44.180        27
44.190        60
44.200        33
44.210        40
44.220        27
44.230        33
44.240        53
44.250        47
44.260        33
44.270        20
44.280        40
44.290        13
44.300        27
44.310        60
44.320        27
44.330        40
44.340        40
44.350        53
44.360        13
44.370        33
44.380        40
44.390        27
44.400        47
44.410        47
44.420        47
44.430        27
44.440         0
44.450        40
44.460        27
44.470        33
44.480        33
44.490        20
44.500        20
44.510        33
44.520        60
44.530        40
44.540        33
44.550        33
44.560        40
44.570        27
44.580        60
44.590        27
44.600        47
44.610        73
44.620        60
44.630        20
44.640        53
44.650        67
44.660        27
44.670        40
44.680        60
44.690        20
44.700        33
44.710        53
44.720        33
44.730        80
44.740        67
44.750        33
44.760        33
44.770        20
44.780        33
44.790        13
44.800        40
44.810        53
44.820        53
44.830        20
44.840        33
44.850        13
44.860        13
44.870        33
44.880        40
44.890        20
44.900        73
44.910        60
44.920        13
44.930        20
44.940        27
44.950        53
44.960        40
44.970        33
44.980        33
44.990        27
45.000        20
45.010        27
45.020        67
45.030        20
45.040        73
45.050        47
45.060        67
45.070        40
45.080        40
45.090        40
45.100        60
45.110        67
45.120        40
45.130        27
45.140        40
45.150        27
45.160        40
45.170        40
45.180        67
45.190        40
45.200        33
45.210        47
45.220        33
45.230        60
45.240        40
45.250        40
45.260        67
45.270        20
45.280        33
45.290        40
45.300        47
45.310        27
45.320        33
45.330        13
45.340       120
45.350        27
45.360        47
45.370        53
45.380        40
45.390        53
45.400        47
45.410        40
45.420        27
45.430        27
45.440        40
45.450        20
45.460        67
45.470        67
45.480        20
45.490        40
45.500        40
45.510        13
45.520        13
45.530        53
45.540        47
45.550        13
45.560        40
45.570        27
45.580        20
45.590        60
45.600        73
45.610        53
45.620        47
45.630        80
45.640        47
45.650        47
45.660        40
45.670        73
45.680       107
45.690        40
45.700        87
45.710        93
45.720        27
45.730        60
45.740        53
45.750        33
45.760        47
45.770        27
45.780        67
45.790       107
45.800        27
45.810        53
45.820        93
45.830        53
45.840        47
45.850        93
45.860       120
45.870       100
45.880       100
45.890       127
45.900        53
45.910       133
45.920        87
45.930        80
45.940       160
45.950       140
45.960       120
45.970       133
45.980       193
45.990       173
46.000       207
46.010       233
46.020       253
46.030       200
46.040       133
46.050       260
46.060       247
46.070       187
46.080       247
46.090       193
46.100       227
46.110       300
46.120       247
46.130       207
46.140       333
46.150       380
46.160       287
46.170       400
46.180       300
46.190       373
46.200       413
46.210       466
46.220       433
46.230       633
46.240       606
46.250       526
46.260       506
46.270       520
46.280       660
46.290       653
46.300       700
46.310       686
46.320       720
46.330       686
46.340       760
46.350       740
46.360       740
46.370       866
46.380       866
46.390       933
46.400       766
46.410       860
46.420       813
46.430       753
46.440       753
46.450       700
46.460       653
46.470       666
46.480       653
46.490       613
46.500       560
46.510       613
46.520       600
46.530       500
46.540       533
46.550       393
46.560       533
46.570       393
46.580       327
46.590       393
46.600       360
46.610       340
46.620       307
46.630       340
46.640       267
46.650       213
46.660       240
46.670       240
46.680       160
46.690       260
46.700       167
46.710       167
46.720       187
46.730       147
46.740       227
46.750       153
46.760       193
46.770       187
46.780        87
46.790       167
46.800       113
46.810       140
46.820       193
46.830       147
46.840       127
46.850       147
46.860       100
46.870       147
46.880       153
46.890       107
46.900       153
46.910       120
46.920       100
46.930       107
46.940        73
46.950       100
46.960       113
46.970       107
46.980       120
46.990        93
47.000       120
47.010       133
47.020       107
47.030       113
47.040       107
47.050       193
47.060       147
47.070        93
47.080       120
47.090       140
47.100       153
47.110       133
47.120       173
47.130       273
47.140       273
47.150       373
47.160       540
47.170       606
47.180       806
47.190      1146
47.200      1093
47.210      1266
47.220      1100
47.230      1286
47.240      1066
47.250       893
47.260       626
47.270       480
47.280       387
47.290       207
47.300       280
47.310       160
47.320       147
47.330       153
47.340       147
47.350        60
47.360       140
47.370       120
47.380        80
47.390        73
47.400        80
47.410       127
47.420       147
47.430       100
47.440        93
47.450        73
47.460        93
47.470        67
47.480        73
47.490        67
47.500        67
47.510        47
47.520        53
47.530       120
47.540        13
47.550        60
47.560        60
47.570        27
47.580        80
47.590        33
47.600        53
47.610        73
47.620        60
47.630        67
47.640        47
47.650        13
47.660        33
47.670        60
47.680        60
47.690        33
47.700        53
47.710        73
47.720        87
47.730        60
47.740        40
47.750        47
47.760        67
47.770        60
47.780        33
47.790        67
47.800        27
47.810       107
47.820        33
47.830        73
47.840        27
47.850        47
47.860        40
47.870        33
47.880       100
47.890        73
47.900        27
47.910        53
47.920        53
47.930        40
47.940        80
47.950        47
47.960        80
47.970        40
47.980        53
47.990        33
48.000        27
48.010        27
48.020        40
48.030        47
48.040        40
48.050        20
48.060        27
48.070        27
48.080        27
48.090        40
48.100        67
48.110        40
48.120        53
48.130        60
48.140        80
48.150        40
48.160       100
48.170        33
48.180        33
48.190        47
48.200        60
48.210        33
48.220        53
48.230        40
48.240        47
48.250        40
48.260        60
48.270        20
48.280        40
48.290        47
48.300        60
48.310        33
48.320        53
48.330        13
48.340        47
48.350        40
48.360        47
48.370        47
48.380        27
48.390        60
48.400        40
48.410        53
48.420        80
48.430        40
48.440        27
48.450        80
48.460        20
48.470        80
48.480        53
48.490        33
48.500        53
48.510        73
48.520        27
48.530        53
48.540        40
48.550        67
48.560        60
48.570        53
48.580        33
48.590        53
48.600        27
48.610        53
48.620        53
48.630        67
48.640        27
48.650        27
48.660        60
48.670        40
48.680        47
48.690        33
48.700        33
48.710        47
48.720        40
48.730        20
48.740        27
48.750        40
48.760        20
48.770        33
48.780        27
48.790        87
48.800        33
48.810        47
48.820        27
48.830        33
48.840        33
48.850        33
48.860        40
48.870        40
48.880        40
48.890        33
48.900        40
48.910        20
48.920        27
48.930        40
48.940        20
48.950        40
48.960        27
48.970        47
48.980        67
48.990        27
49.000        67
49.010        40
49.020        40
49.030        13
49.040        47
49.050        20
49.060        27
49.070        47
49.080        40
49.090        47
49.100        27
49.110        53
49.120        40
49.130        27
49.140        47
49.150        40
49.160        27
49.170        27
49.180        27
49.190        40
49.200        40
49.210        47
49.220        33
49.230        33
49.240        33
49.250        53
49.260        33
49.270        53
49.280        40
49.290       107
49.300        53
49.310        20
49.320        20
49.330        20
49.340        40
49.350        60
49.360        27
49.370        40
49.380        20
49.390        40
49.400        33
49.410        40
49.420        47
49.430        40
49.440        27
49.450        47
49.460        67
49.470        40
49.480        20
49.490        33
49.500        33
49.510        27
49.520        40
49.530        40
49.540        47
49.550        40
49.560        47
49.570        53
49.580        13
49.590        40
49.600        27
49.610        33
49.620        47
49.630        40
49.640        60
49.650        47
49.660        47
49.670        20
49.680        40
49.690        40
49.700        47
49.710        20
49.720        20
49.730        53
49.740        47
49.750        27
49.760        20
49.770        27
49.780        33
49.790        53
49.800        47
49.810        33
49.820        53
49.830        33
49.840        20
49.850        33
49.860        53
49.870        53
49.880        20
49.890        73
49.900        73
49.910        47
49.920        53
49.930        33
49.940        60
49.950         7
49.960        40
49.970        47
49.980        60
49.990        27
50.000        27
50.010        53
50.020         7
50.030        20
50.040        13
50.050        13
50.060        20
50.070        27
50.080        33
50.090        27
50.100        13
50.110        27
50.120        20
50.130        13
50.140        20
50.150        33
50.160        40
50.170        33
50.180        53
50.190        33
50.200        40
50.210        20
50.220        20
50.230        67
50.240        33
50.250        33
50.260        33
50.270        33
50.280        33
50.290        40
50.300        13
50.310        13
50.320        40
50.330        53
50.340        20
50.350        40
50.360        40
50.370        60
50.380        53
50.390        20
50.400        53
50.410        53
50.420        53
50.430         7
50.440        40
50.450        13
50.460        40
50.470        47
50.480         7
50.490        60
50.500        40
50.510        40
50.520        27
50.530        40
50.540        47
50.550        73
50.560        53
50.570        40
50.580        40
50.590        53
50.600        73
50.610        47
50.620        73
50.630        73
50.640        67
50.650       140
50.660        73
50.670       147
50.680       180
50.690       167
50.700       220
50.710       227
50.720       213
50.730       313
50.740       327
50.750       253
50.760       307
50.770       327
50.780       307
50.790       313
50.800       313
50.810       367
50.820       307
50.830       367
50.840       340
50.850       347
50.860       353
50.870       333
50.880       347
50.890       267
50.900       353
50.910       293
50.920       380
50.930       333
50.940       287
50.950       360
50.960       300
50.970       353
50.980       267
50.990       367
51.000       387
51.010       393
51.020       260
51.030       426
51.040       420
51.050       333
51.060       273
51.070       280
51.080       393
51.090       260
51.100       320
51.110       333
51.120       313
51.130       340
51.140       347
51.150       293
51.160       393
51.170       360
51.180       307
51.190       327
51.200       367
51.210       367
51.220       287
51.230       380
51.240       367
51.250       360
51.260       320
51.270       353
51.280       333
51.290       360
51.300       307
51.310       320
51.320       340
51.330       307
51.340       380
51.350       420
51.360       367
51.370       327
51.380       373
51.390       367
51.400       387
51.410       380
51.420       407
51.430       313
51.440       307
51.450       333
51.460       300
51.470       466
51.480       340
51.490       327
51.500       333
51.510       420
51.520       367
51.530       353
51.540       360
51.550       367
51.560       440
51.570       393
51.580       360
51.590       327
51.600       340
51.610       367
51.620       340
51.630       380
51.640       367
51.650       360
51.660       287
51.670       327
51.680       367
51.690       353
51.700       393
51.710       360
51.720       320
51.730       367
51.740       426
51.750       320
51.760       340
51.770       426
51.780       333
51.790       433
51.800       393
51.810       360
51.820       347
51.830       460
51.840       393
51.850       453
51.860       393
51.870       433
51.880       433
51.890       446
51.900       407
51.910       446
51.920       413
51.930       387
51.940       440
51.950       480
51.960       453
51.970       466
51.980       360
51.990       460
52.000       466
52.010       540
52.020       526
52.030       460
52.040       526
52.050       526
52.060       480
52.070       573
52.080       513
52.090       513
52.100       606
52.110       586
52.120       506
52.130       593
52.140       740
52.150       646
52.160       573
52.170       793
52.180       620
52.190       640
52.200       746
52.210       733
52.220       833
52.230       706
52.240       853
52.250       853
52.260       980
52.270       980
52.280      1153
52.290      1253
52.300      1533
52.310      1433
52.320      1893
52.330      1993
52.340      2359
52.350      2786
52.360      3019
52.370      3545
52.380      4312
52.390      4678
52.400      5118
52.410      5804
52.420      5851
52.430      6871
52.440      7397
52.450      7484
52.460      7804
52.470      8270
52.480      9036
52.490     10056
52.500     11395
52.510     12848
52.520     15194
52.530     18659
52.540     25536
52.550     39518
52.560     63221
52.570     90377
52.580    117926
52.590    135532
52.600    147048
52.610    152026
52.620    150040
52.630    137158
52.640    115534
52.650     84266
52.660     57277
52.670     40997
52.680     33380
52.690     34473
52.700     42816
52.710     55351
52.720     70199
52.730     78449
52.740     84526
52.750     87698
52.760     84813
52.770     75210
52.780     63508
52.790     44482
52.800     29815
52.810     19359
52.820     13541
52.830      9943
52.840      7744
52.850      6791
52.860      5871
52.870      4865
52.880      3992
52.890      3785
52.900      3325
52.910      2852
52.920      2546
52.930      2092
52.940      1806
52.950      1759
52.960      1779
52.970      1706
52.980      1186
52.990      1246
53.000      1319
53.010      1106
53.020      1173
53.030      1046
53.040      1066
53.050       986
53.060       886
53.070       820
53.080       826
53.090       953
53.100       766
53.110       860
53.120       713
53.130       693
53.140       620
53.150       826
53.160       740
53.170       766
53.180       733
53.190       606
53.200       620
53.210       506
53.220       653
53.230       566
53.240       640
53.250       633
53.260       526
53.270       606
53.280       620
53.290       646
53.300       526
53.310       327
53.320       446
53.330       473
53.340       526
53.350       473
53.360       493
53.370       526
53.380       606
53.390       500
53.400       453
53.410       460
53.420       433
53.430       373
53.440       433
53.450       393
53.460       387
53.470       327
53.480       446
53.490       473
53.500       380
53.510       426
53.520       320
53.530       380
53.540       407
53.550       407
53.560       353
53.570       347
53.580       413
53.590       340
53.600       327
53.610       313
53.620       420
53.630       413
53.640       407
53.650       347
53.660       480
53.670       367
53.680       380
53.690       380
53.700       360
53.710       307
53.720       373
53.730       347
53.740       380
53.750       360
53.760       347
53.770       373
53.780       320
53.790       426
53.800       353
53.810       340
53.820       307
53.830       393
53.840       333
53.850       320
53.860       320
53.870       260
53.880       220
53.890       393
53.900       307
53.910       273
53.920       307
53.930       287
53.940       247
53.950       313
53.960       293
53.970       360
53.980       253
53.990       367
54.000       320
54.010       353
54.020       293
54.030       227
54.040       327
54.050       400
54.060       293
54.070       313
54.080       227
54.090       307
54.100       307
54.110       300
54.120       320
54.130       240
54.140       300
54.150       253
54.160       260
54.170       233
54.180       307
54.190       247
54.200       293
54.210       253
54.220       213
54.230       227
54.240       300
54.250       207
54.260       273
54.270       300
54.280       260
54.290       260
54.300       293
54.310       180
54.320       273
54.330       207
54.340       267
54.350       193
54.360       193
54.370       193
54.380       267
54.390       233
54.400       347
54.410       233
54.420       260
54.430       240
54.440       180
54.450       227
54.460       300
54.470       313
54.480       293
54.490       220
54.500       187
54.510       227
54.520       260
54.530       300
54.540       253
54.550       240
54.560       247
54.570       247
54.580       267
54.590       220
54.600       233
54.610       293
54.620       240
54.630       133
54.640       167
54.650       227
54.660       367
54.670       193
54.680       213
54.690       227
54.700       240
54.710       280
54.720       233
54.730       260
54.740       247
54.750       247
54.760       247
54.770       260
54.780       173
54.790       353
54.800       327
54.810       187
54.820       213
54.830       227
54.840       247
54.850       227
54.860       253
54.870       300
54.880       227
54.890       180
54.900       220
54.910       207
54.920       207
54.930       260
54.940       193
54.950       167
54.960       193
54.970       253
54.980       213
54.990       187
55.000       227
55.010       153
55.020       220
55.030       147
55.040       127
55.050       240
55.060       260
55.070       300
55.080       267
55.090       207
55.100       260
55.110       207
55.120       227
55.130       233
55.140       207
55.150       247
55.160       187
55.170       193
55.180       193
55.190       213
55.200       240
55.210       193
55.220       207
55.230       187
55.240       167
55.250       253
55.260       227
55.270       187
55.280       180
55.290       193
55.300       173
55.310       167
55.320       260
55.330       207
55.340       133
55.350       253
55.360       233
55.370       180
55.380       180
55.390       200
55.400       120
55.410       167
55.420       233
55.430       200
55.440       233
55.450       207
55.460       193
55.470       140
55.480       180
55.490       253
55.500       180
55.510       200
55.520       233
55.530       167
55.540       187
55.550       133
55.560       193
55.570       147
55.580       167
55.590       233
55.600       213
55.610       193
55.620       187
55.630       213
55.640       180
55.650       160
55.660       193
55.670       173
55.680       193
55.690       207
55.700       220
55.710       153
55.720       147
55.730       180
55.740       187
55.750       293
55.760       200
55.770       147
55.780       207
55.790       240
55.800       160
55.810       187
55.820       153
55.830       180
55.840       220
55.850       213
55.860       193
55.870       193
55.880       193
55.890       180
55.900       187
55.910       133
55.920       173
55.930       273
55.940       153
55.950       213
55.960       233
55.970       207
55.980       133
55.990       180
56.000       127
56.010       187
56.020       180
56.030       120
56.040       160
56.050       187
56.060       207
56.070       153
56.080       113
56.090       167
56.100       187
56.110       187
56.120       140
56.130       260
56.140       207
56.150       133
56.160       153
56.170       153
56.180       220
56.190       113
56.200       207
56.210       240
56.220       173
56.230       200
56.240       127
56.250       173
56.260       207
56.270       207
56.280       173
56.290       213
56.300       160
56.310       220
56.320       227
56.330       167
56.340       153
56.350       127
56.360       233
56.370       167
56.380       140
56.390       193
56.400       153
56.410       127
56.420       167
56.430       173
56.440       193
56.450       200
56.460       140
56.470       153
56.480       213
56.490       193
56.500       153
56.510       147
56.520       127
56.530       147
56.540       213
56.550       153
56.560       180
56.570       167
56.580       147
56.590       120
56.600       193
56.610       167
56.620       173
56.630       127
56.640       260
56.650       153
56.660       127
56.670       113
56.680       167
56.690       167
56.700       173
56.710       220
56.720       220
56.730       173
56.740       160
56.750       200
56.760       160
56.770       133
56.780       113
56.790       160
56.800       113
56.810       133
56.820       180
56.830       153
56.840       147
56.850       153
56.860       120
56.870       153
56.880       153
56.890       127
56.900       180
56.910       167
56.920       107
56.930       187
56.940       187
56.950       187
56.960       133
56.970       107
56.980       107
56.990       173
57.000       173
57.010       153
57.020       147
57.030       153
57.040       127
57.050       207
57.060       153
57.070       207
57.080       160
57.090       220
57.100       207
57.110       167
57.120       147
57.130       107
57.140       140
57.150       173
57.160       120
57.170        93
57.180       153
57.190       173
57.200       147
57.210       213
57.220       167
57.230       120
57.240       140
57.250       133
57.260       113
57.270       140
57.280       100
57.290       160
57.300       167
57.310       160
57.320       120
57.330       187
57.340       187
57.350       140
57.360       147
57.370       153
57.380       160
57.390        93
57.400       113
57.410       140
57.420       100
57.430       147
57.440       193
57.450       187
57.460       133
57.470       180
57.480       160
57.490       167
57.500       193
57.510       160
57.520       200
57.530       153
57.540       133
57.550       147
57.560       140
57.570       153
57.580       147
57.590       113
57.600       133
57.610       120
57.620       133
57.630       187
57.640       160
57.650       173
57.660       133
57.670       200
57.680       167
57.690       160
57.700       160
57.710       180
57.720       147
57.730       140
57.740       153
57.750       133
57.760        93
57.770        87
57.780       173
57.790       173
57.800       100
57.810       200
57.820       127
57.830       167
57.840       147
57.850       120
57.860       153
57.870       193
57.880       167
57.890       187
57.900       107
57.910       213
57.920       147
57.930       133
57.940       180
57.950       100
57.960       133
57.970       133
57.980       127
57.990       153
58.000       107
58.010       180
58.020       113
58.030       193
58.040       107
58.050       107
58.060       187
58.070       187
58.080       180
58.090       133
58.100       127
58.110       173
58.120       120
58.130       153
58.140        80
58.150       127
58.160       147
58.170       107
58.180       133
58.190       107
58.200       147
58.210       127
58.220       133
58.230        93
58.240       127
58.250       193
58.260       153
58.270       153
58.280       140
58.290       173
58.300       133
58.310       160
58.320       160
58.330       153
58.340       220
58.350       140
58.360        67
58.370       147
58.380       127
58.390       120
58.400       153
58.410       107
58.420        93
58.430       107
58.440       120
58.450       120
58.460       133
58.470       100
58.480       173
58.490       127
58.500       127
58.510        93
58.520       160
58.530       127
58.540       160
58.550       133
58.560       153
58.570       120
58.580       173
58.590       107
58.600       107
58.610       133
58.620       113
58.630       133
58.640       100
58.650       140
58.660       113
58.670       140
58.680       147
58.690        80
58.700       133
58.710       100
58.720        87
58.730       167
58.740       120
58.750       193
58.760       167
58.770       133
58.780       113
58.790       113
58.800       147
58.810       113
58.820       140
58.830       133
58.840       113
58.850       140
58.860        80
58.870        87
58.880       147
58.890       153
58.900       120
58.910       120
58.920       147
58.930       133
58.940        87
58.950        73
58.960       127
58.970       127
58.980       127
58.990       127
59.000       147
59.010       153
59.020       100
59.030       160
59.040       113
59.050       153
59.060       107
59.070       127
59.080       160
59.090       120
59.100       160
59.110       160
59.120       113
59.130       140
59.140       113
59.150       113
59.160       100
59.170        87
59.180        53
59.190       113
59.200       113
59.210       187
59.220        47
59.230       113
59.240       120
59.250        73
59.260       133
59.270       113
59.280       120
59.290       120
59.300       147
59.310       180
59.320       120
59.330       120
59.340        93
59.350       127
59.360       120
59.370       133
59.380       100
59.390       127
59.400        53
59.410       147
59.420       127
59.430        67
59.440        47
59.450       140
59.460        60
59.470       107
59.480       100
59.490       153
59.500       113
59.510        87
59.520        80
59.530       160
59.540        73
59.550       127
59.560       187
59.570        73
59.580        60
59.590       107
59.600       120
59.610        93
59.620        93
59.630       100
59.640        80
59.650       133
59.660       100
59.670       160
59.680       133
59.690       120
59.700       100
59.710       140
59.720       140
59.730       107
59.740        93
59.750       120
59.760       100
59.770       140
59.780       140
59.790       173
59.800        93
59.810        80
59.820       133
59.830        93
59.840       120
59.850        87
59.860        87
59.870        80
59.880        80
59.890        93
59.900        80
59.910       120
59.920       100
59.930       153
59.940        67
59.950        73
59.960       107
59.970        93
59.980       100
59.990        53
60.000        53
