20.000        40
20.010        60
20.020        47
20.030        60
20.040        27
20.050        60
20.060        73
20.070        20
20.080        40
20.090         7
20.100        73
20.110        53
20.120        93
20.130        53
20.140        87
20.150        60
20.160        13
20.170        80
20.180        47
20.190        13
20.200        73
20.210        40
20.220        80
20.230        40
20.240        40
20.250        73
20.260        53
20.270        27
20.280        53
20.290        33
20.300        27
20.310        40
20.320        47
20.330        40
20.340        33
20.350        53
20.360        13
20.370        53
20.380        60
20.390        67
20.400        27
20.410        40
20.420        40
20.430        27
20.440        40
20.450        27
20.460        47
20.470        53
20.480        33
20.490        27
20.500        33
20.510        87
20.520        20
20.530        47
20.540        47
20.550        40
20.560        33
20.570        27
20.580        67
20.590        47
20.600        33
20.610        53
20.620        40
20.630        40
20.640        20
20.650        47
20.660        27
20.670        20
20.680        27
20.690        47
20.700        40
20.710        67
20.720        33
20.730        33
20.740        40
20.750        33
20.760        53
20.770        53
20.780        27
20.790        40
20.800        60
20.810        27
20.820        47
20.830        60
20.840        33
20.850        53
20.860        33
20.870        60
20.880        33
20.890        40
20.900        40
20.910        27
20.920        47
20.930        47
20.940        40
20.950        47
20.960        33
20.970        20
20.980        67
20.990        27
21.000        87
21.010        27
21.020        53
21.030        33
21.040        47
21.050        60
21.060        73
21.070        27
21.080        27
21.090        33
21.100        47
21.110        40
21.120        27
21.130        40
21.140        47
21.150        40
21.160        47
21.170        47
21.180        47
21.190        33
21.200        20
21.210        60
21.220        60
21.230        40
21.240        60
21.250        33
21.260        47
21.270        47
21.280        33
21.290        33
21.300        40
21.310        60
21.320        47
21.330        13
21.340        47
21.350        40
21.360        53
21.370        67
21.380         7
21.390        47
21.400         7
21.410        20
21.420         7
21.430        33
21.440        47
21.450        20
21.460        53
21.470        33
21.480        20
21.490        47
21.500        53
21.510        60
21.520        73
21.530        33
21.540        53
21.550        47
21.560        53
21.570        47
21.580        20
21.590        40
21.600        47
21.610        67
21.620        47
21.630        33
21.640        33
21.650        33
21.660        33
21.670        67
21.680        20
21.690        33
21.700        60
21.710        40
21.720        27
21.730        53
21.740        33
21.750        33
21.760        60
21.770        27
21.780        67
21.790        60
21.800        13
21.810        33
21.820        33
21.830        40
21.840        40
21.850        20
21.860        40
21.870        33
21.880        13
21.890        47
21.900        47
21.910        40
21.920        40
21.930        27
21.940        60
21.950        40
21.960        33
21.970        20
21.980        27
21.990        33
22.000        20
22.010        53
22.020        20
22.030        73
22.040        60
22.050        33
22.060        53
22.070        20
22.080        27
22.090        33
22.100        27
22.110        60
22.120        27
22.130        20
22.140        27
22.150        33
22.160        53
22.170        53
22.180        33
22.190        27
22.200        53
22.210        40
22.220        40
22.230        60
22.240        13
22.250        40
22.260        33
22.270        40
22.280        47
22.290        67
22.300        47
22.310        33
22.320        60
22.330        33
22.340        20
22.350        47
22.360        33
22.370         7
22.380        40
22.390        87
22.400        33
22.410        33
22.420        47
22.430        60
22.440        67
22.450       100
22.460        40
22.470        73
22.480       120
22.490        40
22.500        87
22.510        87
22.520       100
22.530       107
22.540       133
22.550       100
22.560       147
22.570       173
22.580       160
22.590       140
22.600       147
22.610       247
22.620       240
22.630       260
22.640       360
22.650       387
22.660       340
22.670       413
22.680       393
22.690       393
22.700       333
22.710       413
22.720       407
22.730       433
22.740       380
22.750       333
22.760       387
22.770       367
22.780       380
22.790       313
22.800       307
22.810       247
22.820       287
22.830       180
22.840       227
22.850       240
22.860       200
22.870       113
22.880       160
22.890       173
22.900       160
22.910       153
22.920       133
22.930       127
22.940       120
22.950       113
22.960        93
22.970       120
22.980        67
22.990        67
23.000        60
23.010        73
23.020        33
23.030        40
23.040       113
23.050        80
23.060        73
23.070        80
23.080        80
23.090        33
23.100        40
23.110        20
23.120        80
23.130        47
23.140        53
23.150        60
23.160        53
23.170        53
23.180        53
23.190        20
23.200        47
23.210        53
23.220        60
23.230        33
23.240        13
23.250        60
23.260        60
23.270        67
23.280        47
23.290        47
23.300        33
23.310        47
23.320        33
23.330        13
23.340        60
23.350        33
23.360        33
23.370        53
23.380        40
23.390        87
23.400        53
23.410        47
23.420        47
23.430        33
23.440        60
23.450        60
23.460        33
23.470        67
23.480        40
23.490        27
23.500        13
23.510        60
23.520        47
23.530        40
23.540        93
23.550        60
23.560        40
23.570        40
23.580        20
23.590        27
23.600        20
23.610        13
23.620        40
23.630        27
23.640        60
23.650        40
23.660        27
23.670        27
23.680        47
23.690        27
23.700        27
23.710        53
23.720        33
23.730        73
23.740        60
23.750        80
23.760        47
23.770        73
23.780        47
23.790        20
23.800        53
23.810        67
23.820        40
23.830        53
23.840        40
23.850        27
23.860        20
23.870        20
23.880        40
23.890        20
23.900        53
23.910        33
23.920        27
23.930        27
23.940        40
23.950        20
23.960        53
23.970        20
23.980        40
23.990        33
24.000        80
24.010        27
24.020        27
24.030        40
24.040        47
24.050        27
24.060        33
24.070        53
24.080        33
24.090        40
24.100         7
24.110        13
24.120        60
24.130         0
24.140        53
24.150        33
24.160        47
24.170        40
24.180        33
24.190        47
24.200        27
24.210        33
24.220        47
24.230        27
24.240        53
24.250        40
24.260        47
24.270        47
24.280        20
24.290        40
24.300        47
24.310        27
24.320        33
24.330        20
24.340        27
24.350        60
24.360        47
24.370         0
24.380        40
24.390        60
24.400        33
24.410        47
24.420         7
24.430        33
24.440        40
24.450        20
24.460        53
24.470        33
24.480        20
24.490        27
24.500        13
24.510        27
24.520        20
24.530        27
24.540        60
24.550        40
24.560        33
24.570        27
24.580        40
24.590        13
24.600        13
24.610        40
24.620        13
24.630        47
24.640        20
24.650        20
24.660        67
24.670        40
24.680        40
24.690         7
24.700        33
24.710        13
24.720        40
24.730        27
24.740        27
24.750        60
24.760        40
24.770        40
24.780        53
24.790        27
24.800        20
24.810        27
24.820        47
24.830        33
24.840        27
24.850        53
24.860        33
24.870        47
24.880        33
24.890        33
24.900        33
24.910        47
24.920        60
24.930        33
24.940        33
24.950        27
24.960        40
24.970        40
24.980        47
24.990        60
25.000        40
25.010        20
25.020        47
25.030        27
25.040        20
25.050        20
25.060         7
25.070        33
25.080        33
25.090        33
25.100        20
25.110        53
25.120        20
25.130        47
25.140        67
25.150        33
25.160        33
25.170        33
25.180        33
25.190        20
25.200        47
25.210        27
25.220        73
25.230        40
25.240        13
25.250        27
25.260        33
25.270        47
25.280        40
25.290        27
25.300        47
25.310        40
25.320        53
25.330        40
25.340        27
25.350        33
25.360        60
25.370        60
25.380        33
25.390        33
25.400        13
25.410        40
25.420        40
25.430        60
25.440        40
25.450        47
25.460        20
25.470        60
25.480        33
25.490        27
25.500        40
25.510        47
25.520        53
25.530        47
25.540        87
25.550        60
25.560        53
25.570        67
25.580        80
25.590       120
25.600       140
25.610        80
25.620       100
25.630        80
25.640        87
25.650        80
25.660        87
25.670        73
25.680        60
25.690        93
25.700        73
25.710        67
25.720        60
25.730        13
25.740        33
25.750        33
25.760        33
25.770        53
25.780        47
25.790        27
25.800        27
25.810        47
25.820        53
25.830        27
25.840        33
25.850        20
25.860        13
25.870        13
25.880        47
25.890        33
25.900        53
25.910        40
25.920        20
25.930        40
25.940        40
25.950        13
25.960        27
25.970        73
25.980         7
25.990        13
26.000        53
26.010        27
26.020        40
26.030        40
26.040        40
26.050        27
26.060        47
26.070        27
26.080        20
26.090        13
26.100         7
26.110        27
26.120        53
26.130        20
26.140        60
26.150        27
26.160        27
26.170        27
26.180        73
26.190        33
26.200        33
26.210        13
26.220        27
26.230        20
26.240        53
26.250        53
26.260        47
26.270        27
26.280        20
26.290        20
26.300        33
26.310        33
26.320        80
26.330        40
26.340         0
26.350        20
26.360        20
26.370        27
26.380        47
26.390        27
26.400        20
26.410        47
26.420        27
26.430        27
26.440        20
26.450        47
26.460        20
26.470        40
26.480        40
26.490        27
26.500        13
26.510        53
26.520        27
26.530        20
26.540        40
26.550        27
26.560        20
26.570         7
26.580        20
26.590        27
26.600        40
26.610        33
26.620        20
26.630        33
26.640        20
26.650        33
26.660        20
26.670        27
26.680        13
26.690        20
26.700        33
26.710        33
26.720        33
26.730        47
26.740         7
26.750        20
26.760        33
26.770        33
26.780        20
26.790        33
26.800        13
26.810        47
26.820        13
26.830        33
26.840        40
26.850        20
26.860        13
26.870        40
26.880        40
26.890        40
26.900        13
26.910        47
26.920        20
26.930        13
26.940        40
26.950        40
26.960        33
26.970        20
26.980        13
26.990        27
27.000        20
27.010        53
27.020        40
27.030        33
27.040        33
27.050        47
27.060        47
27.070        13
27.080        33
27.090        53
27.100        27
27.110        33
27.120        13
27.130        73
27.140         0
27.150        20
27.160        33
27.170        47
27.180        27
27.190        47
27.200        27
27.210        33
27.220        40
27.230        60
27.240        60
27.250        20
27.260        20
27.270        67
27.280        40
27.290        47
27.300        13
27.310        13
27.320        13
27.330        27
27.340        47
27.350        20
27.360        13
27.370        47
27.380        27
27.390        33
27.400        47
27.410        53
27.420        33
27.430        53
27.440        27
27.450        33
27.460        33
27.470        33
27.480        27
27.490        27
27.500        33
27.510        53
27.520        27
27.530        27
27.540        33
27.550        47
27.560        13
27.570        40
27.580        13
27.590        47
27.600        20
27.610        27
27.620        27
27.630        20
27.640        33
27.650        33
27.660        40
27.670        40
27.680        33
27.690        27
27.700        27
27.710        33
27.720        47
27.730        20
27.740        47
27.750        40
27.760        27
27.770        27
27.780        40
27.790        20
27.800        13
27.810        27
27.820        27
27.830        13
27.840        20
27.850        33
27.860        20
27.870        20
27.880        27
27.890        27
27.900        20
27.910        33
27.920        47
27.930        13
27.940        40
27.950        53
27.960        20
27.970        20
27.980        20
27.990        27
28.000        27
28.010        40
28.020        13
28.030        40
28.040        27
28.050        27
28.060        20
28.070        47
28.080        33
28.090        27
28.100        27
28.110        33
28.120        27
28.130        27
28.140         7
28.150        60
28.160        40
28.170        40
28.180        20
28.190        40
28.200        40
28.210        27
28.220        53
28.230        53
28.240        27
28.250        27
28.260        33
28.270        33
28.280        13
28.290        40
28.300        27
28.310        20
28.320        33
28.330        13
28.340        27
28.350        47
28.360        13
28.370        47
28.380        20
28.390        20
28.400        33
28.410        47
28.420        40
28.430        33
28.440        20
28.450        13
28.460        27
28.470        33
28.480        33
28.490        33
28.500        27
28.510        27
28.520        33
28.530        53
28.540        27
28.550        33
28.560        40
28.570        33
28.580        33
28.590        33
28.600        20
28.610        40
28.620        13
28.630        27
28.640        27
28.650        33
28.660        13
28.670        47
28.680        13
28.690        20
28.700        33
28.710        13
28.720        40
28.730        27
28.740        27
28.750        40
28.760        27
28.770        27
28.780        33
28.790        40
28.800        20
28.810        40
28.820        20
28.830        33
28.840        33
28.850        40
28.860        20
28.870        33
28.880        20
28.890        27
28.900        27
28.910        13
28.920        27
28.930        27
28.940         7
28.950        20
28.960        40
28.970        33
28.980        53
28.990         7
29.000        27
29.010        13
29.020        53
29.030        13
29.040        27
29.050        20
29.060        33
29.070        27
29.080        20
29.090        40
29.100        33
29.110         7
29.120         0
29.130        53
29.140         7
29.150        33
29.160         7
29.170        20
29.180        13
29.190        20
29.200        13
29.210        53
29.220        33
29.230        33
29.240        27
29.250        20
29.260        20
29.270        40
29.280        27
29.290        47
29.300        13
29.310        40
29.320        13
29.330        20
29.340        47
29.350        13
29.360        13
29.370        13
29.380        60
29.390        27
29.400        13
29.410        27
29.420        20
29.430        33
29.440        27
29.450        27
29.460        27
29.470        53
29.480        40
29.490        20
29.500        33
29.510        20
29.520        27
29.530        13
29.540        13
29.550        40
29.560        20
29.570        33
29.580        33
29.590        13
29.600        27
29.610        27
29.620         7
29.630        33
29.640         7
29.650        20
29.660        27
29.670        33
29.680        33
29.690        33
29.700         7
29.710        13
29.720        40
29.730        60
29.740        47
29.750        33
29.760        20
29.770        47
29.780        27
29.790        47
29.800        60
29.810        13
29.820        53
29.830        20
29.840        20
29.850        27
29.860        20
29.870        20
29.880        27
29.890        13
29.900         7
29.910         7
29.920        40
29.930        20
29.940        53
29.950        13
29.960        27
29.970        20
29.980        20
29.990        47
30.000        27
30.010        47
30.020        33
30.030        13
30.040        33
30.050        27
30.060        40
30.070        27
30.080        33
30.090        20
30.100        33
30.110        13
30.120        20
30.130        20
30.140        13
30.150        40
30.160        33
30.170        40
30.180        60
30.190        20
30.200        33
30.210        13
30.220        20
30.230        27
30.240        47
30.250        27
30.260        33
30.270        33
30.280        53
30.290        13
30.300        60
30.310        27
30.320         7
30.330        47
30.340         7
30.350        33
30.360        33
30.370        27
30.380        33
30.390        60
30.400         0
30.410        27
30.420        33
30.430        33
30.440        27
30.450        27
30.460        40
30.470        20
30.480        20
30.490        13
30.500        33
30.510        33
30.520        27
30.530        27
30.540        27
30.550         7
30.560        33
30.570        27
30.580        20
30.590        47
30.600        27
30.610        40
30.620        53
30.630        13
30.640        27
30.650        67
30.660        33
30.670        27
30.680        20
30.690        27
30.700        13
30.710         7
30.720        47
30.730         7
30.740        13
30.750        27
30.760        40
30.770        27
30.780         7
30.790        33
30.800        27
30.810        40
30.820        33
30.830        27
30.840        27
30.850        27
30.860        13
30.870        33
30.880        13
30.890        13
30.900        13
30.910        47
30.920        20
30.930        20
30.940         7
30.950        13
30.960         7
30.970        27
30.980        20
30.990        13
31.000        33
31.010        13
31.020        13
31.030        33
31.040        40
31.050        33
31.060        20
31.070        20
31.080        13
31.090        27
31.100        13
31.110        13
31.120        33
31.130        27
31.140        27
31.150        47
31.160        13
31.170        27
31.180        27
31.190         7
31.200        20
31.210        13
31.220        27
31.230         7
31.240        20
31.250        13
31.260         7
31.270        27
31.280        13
31.290        27
31.300        13
31.310        20
31.320        20
31.330        47
31.340        33
31.350         0
31.360        27
31.370        47
31.380        33
31.390         7
31.400        33
31.410        20
31.420         7
31.430        27
31.440        33
31.450        13
31.460        33
31.470        27
31.480        47
31.490         7
31.500        47
31.510        40
31.520        27
31.530        20
31.540        33
31.550         7
31.560        27
31.570        40
31.580        40
31.590        20
31.600        20
31.610        40
31.620        13
31.630         7
31.640        40
31.650        27
31.660        27
31.670        20
31.680        27
31.690        47
31.700        60
31.710        33
31.720        27
31.730         0
31.740        27
31.750        27
31.760        27
31.770        13
31.780        33
31.790        20
31.800        20
31.810         7
31.820        20
31.830        33
31.840        33
31.850        27
31.860        27
31.870        27
31.880         7
31.890        40
31.900        33
31.910        20
31.920        13
31.930        13
31.940        33
31.950        33
31.960        20
31.970        53
31.980        33
31.990        47
32.000        47
32.010        13
32.020        27
32.030        27
32.040        40
32.050        27
32.060        20
32.070        13
32.080        20
32.090        40
32.100        73
32.110        27
32.120        27
32.130        33
32.140        73
32.150        20
32.160        20
32.170        67
32.180        20
32.190        20
32.200        67
32.210        80
32.220        73
32.230        80
32.240        93
32.250        47
32.260        93
32.270        73
32.280       107
32.290        67
32.300        73
32.310       140
32.320       147
32.330       127
32.340        67
32.350       100
32.360       120
32.370       160
32.380       133
32.390       167
32.400       140
32.410       167
32.420       153
32.430       153
32.440       267
32.450       147
32.460       127
32.470       267
32.480       140
32.490       160
32.500       153
32.510       133
32.520       153
32.530       113
32.540       100
32.550       120
32.560       113
32.570        87
32.580       113
32.590        93
32.600       107
32.610        67
32.620       100
32.630        67
32.640        47
32.650        33
32.660        60
32.670        53
32.680        60
32.690        53
32.700        73
32.710        20
32.720        13
32.730        20
32.740        80
32.750        13
32.760        33
32.770        40
32.780        40
32.790        60
32.800        27
32.810        47
32.820        47
32.830        27
32.840        47
32.850        13
32.860        27
32.870        27
32.880        33
32.890        20
32.900         7
32.910        20
32.920        13
32.930        33
32.940        20
32.950        27
32.960         7
32.970        27
32.980        13
32.990        13
33.000        20
33.010        13
33.020        27
33.030        20
33.040        27
33.050        47
33.060        27
33.070        27
33.080        47
33.090        27
33.100        33
33.110        33
33.120        27
33.130        20
33.140        27
33.150        47
33.160        40
33.170        20
33.180        40
33.190        20
33.200        27
33.210        20
33.220        13
33.230        33
33.240        33
33.250        20
33.260        20
33.270        20
33.280        13
33.290        20
33.300        13
33.310        13
33.320        20
33.330        20
33.340         0
33.350        13
33.360        20
33.370        53
33.380        40
33.390        20
33.400        13
33.410        20
33.420        13
33.430        33
33.440        33
33.450        13
33.460        47
33.470        33
33.480        13
33.490        20
33.500        13
33.510        33
33.520        13
33.530        40
33.540         7
33.550        20
33.560        27
33.570         0
33.580        20
33.590         7
33.600         7
33.610        20
33.620        27
33.630        40
33.640        20
33.650         0
33.660        20
33.670        33
33.680        20
33.690         7
33.700        33
33.710        20
33.720        20
33.730        40
33.740        20
33.750        20
33.760        13
33.770         0
33.780         7
33.790         7
33.800        33
33.810        13
33.820         7
33.830         0
33.840        13
33.850        27
33.860        13
33.870         7
33.880        13
33.890        27
33.900        13
33.910        13
33.920         7
33.930        20
33.940        33
33.950        40
33.960        13
33.970        27
33.980        27
33.990        53
34.000        13
34.010        27
34.020        27
34.030        27
34.040        40
34.050        53
34.060        47
34.070        33
34.080        40
34.090         7
34.100        27
34.110        20
34.120        20
34.130        27
34.140        20
34.150        13
34.160        27
34.170        20
34.180         7
34.190        13
34.200        27
34.210        13
34.220         7
34.230         7
34.240        20
34.250        27
34.260        13
34.270        20
34.280        20
34.290        20
34.300        27
34.310        27
34.320        33
34.330        40
34.340        33
34.350         7
34.360        40
34.370        20
34.380        33
34.390        60
34.400        20
34.410        33
34.420        27
34.430        13
34.440         7
34.450        13
34.460        27
34.470        40
34.480        33
34.490         0
34.500        33
34.510        20
34.520        20
34.530        33
34.540        27
34.550        20
34.560        40
34.570        13
34.580        47
34.590        27
34.600        47
34.610        27
34.620        13
34.630         7
34.640        27
34.650        47
34.660        27
34.670        27
34.680        40
34.690        20
34.700         7
34.710        20
34.720        20
34.730        13
34.740        40
34.750         0
34.760        20
34.770        33
34.780        13
34.790        33
34.800        13
34.810        20
34.820        33
34.830        53
34.840         7
34.850        27
34.860        40
34.870        20
34.880        20
34.890        33
34.900         7
34.910        40
34.920         7
34.930        53
34.940        20
34.950        53
34.960        40
34.970         7
34.980        40
34.990        47
35.000        53
35.010        87
35.020        87
35.030        60
35.040        53
35.050        73
35.060        47
35.070       107
35.080       100
35.090        93
35.100        73
35.110        60
35.120        73
35.130       133
35.140       127
35.150       120
35.160       193
35.170       240
35.180       327
35.190       247
35.200       227
35.210       240
35.220       113
35.230       140
35.240       120
35.250       160
35.260       153
35.270       180
35.280       147
35.290       120
35.300       120
35.310        87
35.320        27
35.330        47
35.340        33
35.350        13
35.360        27
35.370         7
35.380        27
35.390        20
35.400        33
35.410        20
35.420        40
35.430        33
35.440        60
35.450        20
35.460        20
35.470        33
35.480        27
35.490        47
35.500         7
35.510        27
35.520        20
35.530        27
35.540        13
35.550        27
35.560        13
35.570        33
35.580        33
35.590        33
35.600        13
35.610        20
35.620        13
35.630        20
35.640        13
35.650        20
35.660        27
35.670        13
35.680        27
35.690        13
35.700        40
35.710        13
35.720         7
35.730        33
35.740        27
35.750        13
35.760         7
35.770        27
35.780        40
35.790        13
35.800        13
35.810        40
35.820         0
35.830        20
35.840        20
35.850        20
35.860        27
35.870        20
35.880         7
35.890        40
35.900        20
35.910        27
35.920         7
35.930        13
35.940        20
35.950        20
35.960         7
35.970         7
35.980        13
35.990         7
36.000        20
36.010        13
36.020        40
36.030         7
36.040        27
36.050        13
36.060        13
36.070        60
36.080        13
36.090        33
36.100        20
36.110        33
36.120        27
36.130         0
36.140        20
36.150        33
36.160         0
36.170        20
36.180        33
36.190        40
36.200        13
36.210        27
36.220        27
36.230        20
36.240        13
36.250         7
36.260        53
36.270        40
36.280         7
36.290         7
36.300        60
36.310        13
36.320        13
36.330        13
36.340        20
36.350         7
36.360        40
36.370        27
36.380        13
36.390        27
36.400        47
36.410        20
36.420        27
36.430        33
36.440        27
36.450        13
36.460        27
36.470        27
36.480        13
36.490         7
36.500        20
36.510        20
36.520        13
36.530        13
36.540        13
36.550        13
36.560        27
36.570        60
36.580        13
36.590        20
36.600        13
36.610        40
36.620         7
36.630        20
36.640         7
36.650        13
36.660        40
36.670         7
36.680         7
36.690        40
36.700        40
36.710        33
36.720        27
36.730        27
36.740        47
36.750         7
36.760        13
36.770        20
36.780        13
36.790        13
36.800        20
36.810         0
36.820        13
36.830         7
36.840         7
36.850        33
36.860        27
36.870         7
36.880        33
36.890         0
36.900         7
36.910        20
36.920        13
36.930         0
36.940        13
36.950        33
36.960        47
36.970        33
36.980        33
36.990        53
37.000        33
37.010        40
37.020        40
37.030        33
37.040         7
37.050        20
37.060         0
37.070        40
37.080        13
37.090        20
37.100        20
37.110         7
37.120        13
37.130        20
37.140         7
37.150        13
37.160        13
37.170        13
37.180        13
37.190        20
37.200        40
37.210         7
37.220        27
37.230         7
37.240        13
37.250        27
37.260        27
37.270        20
37.280        13
37.290        20
37.300        13
37.310        20
37.320        40
37.330        13
37.340         0
37.350         7
37.360        20
37.370        27
37.380        13
37.390        20
37.400        33
37.410        20
37.420        27
37.430        13
37.440        40
37.450        13
37.460        33
37.470        13
37.480        20
37.490        20
37.500         0
37.510        20
37.520         7
37.530        20
37.540        20
37.550        27
37.560        33
37.570        27
37.580        13
37.590        40
37.600        13
37.610        20
37.620        13
37.630        20
37.640        20
37.650        13
37.660        13
37.670        33
37.680        33
37.690        33
37.700        47
37.710        40
37.720        13
37.730        40
37.740        20
37.750        40
37.760        47
37.770        20
37.780        20
37.790        60
37.800        13
37.810        47
37.820        27
37.830         7
37.840        40
37.850        33
37.860        27
37.870        33
37.880         7
37.890        47
37.900         7
37.910        53
37.920        27
37.930        33
37.940        33
37.950        60
37.960        20
37.970        20
37.980        20
37.990        13
38.000         7
38.010        13
38.020         7
38.030        33
38.040        27
38.050        40
38.060         0
38.070        13
38.080        27
38.090        27
38.100        20
38.110        13
38.120         7
38.130         7
38.140        20
38.150        13
38.160        20
38.170        47
38.180        20
38.190        13
38.200        13
38.210        20
38.220        20
38.230        20
38.240        27
38.250         0
38.260        13
38.270        40
38.280        13
38.290        27
38.300        20
38.310         7
38.320        13
38.330        40
38.340        33
38.350        13
38.360         7
38.370        13
38.380        13
38.390         7
38.400         7
38.410         7
38.420        27
38.430        13
38.440        27
38.450        27
38.460         7
38.470        27
38.480        13
38.490        20
38.500        40
38.510        27
38.520         7
38.530        27
38.540         0
38.550         7
38.560         7
38.570         7
38.580         7
38.590         7
38.600        27
38.610        47
38.620        20
38.630        20
38.640        20
38.650        20
38.660        33
38.670        33
38.680        20
38.690        40
38.700        27
38.710        27
38.720        20
38.730        13
38.740        40
38.750         7
38.760        13
38.770        13
38.780        20
38.790        33
38.800        33
38.810         7
38.820        27
38.830        13
38.840        27
38.850        47
38.860        27
38.870         7
38.880        27
38.890        20
38.900        27
38.910        40
38.920        13
38.930        67
38.940        13
38.950        20
38.960         7
38.970        20
38.980        20
38.990         7
39.000        13
39.010        13
39.020         0
39.030        27
39.040        13
39.050         7
39.060        27
39.070        20
39.080        27
39.090        13
39.100         7
39.110        27
39.120        13
39.130        33
39.140        20
39.150        33
39.160         7
39.170        27
39.180         7
39.190        27
39.200        20
39.210        20
39.220        27
39.230         7
39.240        40
39.250        33
39.260         7
39.270        27
39.280         7
39.290        20
39.300        13
39.310        40
39.320        13
39.330        20
39.340        27
39.350        27
39.360        20
39.370         0
39.380        27
39.390         0
39.400        40
39.410        33
39.420         0
39.430        13
39.440        20
39.450        33
39.460        13
39.470        33
39.480         0
39.490        40
39.500        20
39.510         0
39.520        13
39.530        13
39.540        20
39.550        13
39.560        20
39.570         7
39.580         7
39.590        27
39.600        20
39.610        20
39.620        27
39.630        27
39.640        13
39.650        20
39.660         0
39.670        13
39.680        40
39.690        20
39.700         7
39.710        27
39.720        40
39.730        33
39.740        20
39.750        20
39.760        20
39.770        40
39.780        47
39.790        60
39.800        40
39.810        67
39.820        40
39.830        40
39.840        53
39.850        60
39.860        73
39.870        53
39.880        93
39.890        80
39.900        87
39.910       120
39.920       160
39.930        80
39.940       140
39.950       100
39.960       207
39.970       147
39.980       193
39.990       180
40.000       253
40.010       220
40.020       200
40.030       213
40.040       213
40.050       193
40.060       187
40.070       247
40.080       293
40.090       200
40.100       247
40.110       160
40.120       160
40.130       113
40.140       147
40.150       127
40.160       120
40.170       100
40.180       160
40.190       100
40.200       120
40.210        73
40.220        60
40.230        93
40.240        80
40.250        53
40.260        27
40.270        67
40.280        53
40.290        53
40.300        40
40.310        40
40.320        27
40.330        20
40.340        53
40.350        40
40.360        47
40.370        40
40.380        33
40.390        27
40.400        13
40.410        27
40.420        27
40.430        67
40.440        20
40.450        27
40.460        47
40.470         7
40.480        27
40.490         0
40.500        20
40.510        20
40.520        13
40.530        20
40.540        20
40.550        13
40.560        20
40.570        33
40.580         7
40.590        27
40.600        20
40.610        20
40.620        13
40.630         7
40.640        20
40.650         7
40.660        27
40.670         7
40.680        20
40.690        27
40.700        47
40.710         0
40.720        40
40.730        27
40.740        20
40.750        13
40.760        20
40.770        13
40.780        13
40.790        33
40.800        20
40.810        13
40.820        20
40.830         7
40.840        13
40.850        33
40.860         7
40.870        20
40.880        13
40.890        13
40.900        13
40.910        33
40.920        13
40.930        33
40.940        20
40.950        47
40.960         7
40.970        27
40.980        13
40.990         7
41.000        27
41.010        27
41.020        13
41.030        13
41.040        13
41.050        13
41.060        27
41.070        20
41.080        27
41.090         0
41.100        20
41.110        13
41.120        33
41.130         7
41.140        20
41.150        27
41.160        27
41.170        33
41.180        13
41.190        20
41.200        20
41.210        40
41.220        13
41.230        13
41.240        33
41.250        20
41.260         0
41.270        20
41.280        20
41.290        20
41.300        13
41.310        13
41.320        13
41.330        33
41.340        33
41.350        60
41.360        13
41.370        20
41.380        40
41.390        13
41.400        20
41.410        33
41.420        20
41.430        27
41.440        27
41.450        47
41.460        47
41.470        13
41.480        47
41.490        47
41.500        20
41.510        47
41.520        13
41.530        60
41.540        53
41.550        60
41.560        73
41.570        87
41.580        60
41.590        60
41.600        47
41.610        87
41.620       127
41.630        67
41.640       127
41.650       120
41.660        93
41.670       167
41.680       140
41.690       120
41.700       140
41.710       193
41.720       140
41.730       127
41.740       173
41.750       107
41.760        53
41.770        93
41.780       100
41.790       100
41.800        93
41.810       120
41.820       113
41.830       133
41.840       120
41.850        60
41.860        73
41.870        47
41.880        33
41.890        33
41.900        40
41.910        20
41.920        27
41.930        60
41.940         7
41.950        13
41.960        40
41.970        27
41.980         7
41.990         0
42.000        13
42.010        13
42.020        27
42.030        33
42.040        27
42.050        20
42.060        33
42.070        27
42.080        33
42.090        27
42.100        13
42.110        40
42.120        20
42.130         7
42.140        27
42.150        53
42.160        27
42.170        53
42.180        53
42.190        20
42.200        20
42.210         0
42.220        20
42.230        33
42.240        20
42.250        27
42.260        40
42.270         7
42.280        27
42.290        53
42.300         7
42.310        13
42.320        13
42.330        13
42.340        33
42.350        27
42.360        33
42.370        40
42.380        13
42.390        13
42.400        27
42.410        13
42.420         7
42.430        13
42.440        13
42.450        47
42.460        20
42.470        40
42.480        13
42.490        33
42.500        20
42.510        60
42.520        20
42.530        27
42.540        20
42.550        13
42.560        20
42.570        40
42.580         0
42.590        20
42.600         0
42.610        13
42.620         7
42.630        13
42.640        13
42.650         7
42.660         7
42.670        13
42.680        40
42.690        20
42.700        13
42.710        27
42.720         7
42.730         7
42.740        20
42.750        13
42.760        13
42.770        27
42.780        33
42.790        33
42.800        33
42.810         7
42.820        27
42.830        33
42.840        27
42.850         0
42.860        13
42.870        20
42.880        20
42.890        40
42.900        33
42.910        40
42.920        33
42.930        40
42.940        27
42.950        33
42.960        20
42.970        33
42.980        33
42.990        27
43.000        20
43.010        20
43.020        13
43.030        13
43.040        13
43.050        33
43.060        27
43.070        13
43.080         0
43.090        27
43.100        20
43.110        27
43.120        33
43.130        20
43.140        27
43.150        33
43.160        20
43.170        20
43.180        40
43.190        20
43.200        53
43.210        53
43.220        20
43.230        13
43.240        20
43.250        20
43.260        40
43.270        27
43.280        13
43.290        33
43.300        13
43.310        67
43.320        20
43.330        47
43.340       100
43.350       147
43.360       107
43.370       140
43.380       193
43.390       180
43.400       147
43.410       160
43.420       160
43.430       120
43.440       107
43.450        87
43.460        47
43.470        87
43.480       100
43.490       113
43.500       127
43.510       100
43.520        93
43.530       100
43.540        67
43.550        60
43.560        33
43.570        60
43.580        27
43.590        53
43.600        27
43.610        40
43.620        40
43.630        33
43.640        13
43.650        20
43.660        13
43.670        13
43.680        13
43.690        33
43.700         7
43.710         0
43.720        13
43.730        20
43.740         7
43.750        13
43.760        40
43.770        20
43.780        13
43.790        13
43.800        20
43.810        27
43.820         0
43.830         7
43.840        20
43.850        60
43.860         7
43.870        40
43.880        13
43.890        33
43.900        33
43.910        20
43.920        13
43.930        20
43.940        47
43.950        33
43.960        27
43.970        33
43.980        40
43.990        13
44.000        60
44.010        20
44.020        33
44.030        20
44.040        20
44.050        27
44.060        27
44.070        13
44.080        40
44.090         7
44.100        20
44.110        27
44.120        27
44.130        20
44.140         7
44.150        20
44.160        20
44.170        13
44.180         7
44.190        53
44.200         0
44.210        20
44.220        33
44.230        20
44.240        33
44.250        27
44.260        33
44.270        20
44.280        53
44.290        20
44.300        40
44.310        33
44.320         7
44.330        20
44.340        33
44.350        47
44.360         7
44.370        20
44.380        27
44.390        20
44.400        27
44.410        20
44.420        27
44.430        67
44.440        33
44.450        20
44.460        40
44.470        33
44.480        13
44.490        53
44.500        20
44.510        47
44.520        33
44.530        27
44.540        40
44.550        20
44.560        27
44.570        13
44.580        47
44.590        47
44.600        40
44.610        27
44.620        87
44.630        20
44.640        20
44.650        33
44.660        20
44.670        40
44.680        33
44.690        47
44.700        53
44.710        47
44.720        40
44.730        40
44.740        20
44.750        53
44.760        87
44.770        33
44.780        27
44.790        73
44.800        87
44.810        53
44.820        47
44.830        60
44.840        53
44.850        87
44.860        87
44.870        27
44.880        73
44.890        27
44.900        40
44.910        47
44.920        27
44.930        80
44.940        60
44.950        73
44.960        53
44.970        53
44.980        80
44.990        67
45.000        27
45.010        60
45.020        40
45.030        73
45.040        67
45.050        67
45.060        47
45.070        67
45.080        73
45.090        47
45.100        47
45.110       113
45.120        67
45.130        80
45.140        87
45.150        73
45.160        47
45.170        40
45.180        87
45.190        67
45.200        47
45.210        60
45.220        80
45.230        93
45.240        87
45.250        53
45.260        60
45.270        53
45.280        60
45.290        60
45.300        93
45.310        67
45.320       100
45.330        60
45.340        93
45.350        93
45.360        80
45.370        87
45.380        53
45.390        60
45.400       127
45.410       113
45.420       100
45.430       167
45.440       107
45.450        40
45.460       107
45.470        87
45.480        93
45.490        73
45.500        93
45.510        80
45.520       100
45.530       120
45.540        73
45.550        93
45.560       113
45.570       107
45.580       120
45.590       113
45.600       153
45.610       107
45.620       133
45.630       187
45.640       140
45.650       120
45.660       147
45.670       140
45.680       113
45.690       173
45.700       180
45.710       147
45.720       193
45.730       140
45.740       193
45.750       167
45.760       207
45.770       207
45.780       253
45.790       187
45.800       207
45.810       287
45.820       253
45.830       273
45.840       313
45.850       313
45.860       280
45.870       300
45.880       227
45.890       373
45.900       393
45.910       353
45.920       340
45.930       300
45.940       353
45.950       513
45.960       466
45.970       513
45.980       666
45.990       553
46.000       700
46.010       680
46.020       786
46.030       606
46.040       626
46.050       833
46.060       786
46.070       960
46.080      1073
46.090       980
46.100      1120
46.110      1200
46.120      1226
46.130      1220
46.140      1406
46.150      1546
46.160      1859
46.170      1826
46.180      1659
46.190      1886
46.200      1946
46.210      2099
46.220      2552
46.230      2526
46.240      2479
46.250      2732
46.260      2965
46.270      2886
46.280      2992
46.290      3432
46.300      3499
46.310      3605
46.320      3139
46.330      3758
46.340      3585
46.350      3459
46.360      3685
46.370      3878
46.380      3699
46.390      3905
46.400      4285
46.410      3858
46.420      3605
46.430      3778
46.440      3858
46.450      3865
46.460      3645
46.470      3645
46.480      3745
46.490      3432
46.500      3665
46.510      3212
46.520      3245
46.530      3079
46.540      3399
46.550      2899
46.560      2806
46.570      2646
46.580      2459
46.590      2432
46.600      2326
46.610      2053
46.620      2299
46.630      1879
46.640      1939
46.650      1919
46.660      1713
46.670      1853
46.680      1599
46.690      1433
46.700      1466
46.710      1373
46.720      1399
46.730      1233
46.740      1046
46.750      1240
46.760      1040
46.770       953
46.780       900
46.790       920
46.800       880
46.810       766
46.820       720
46.830       693
46.840       620
46.850       606
46.860       686
46.870       540
46.880       513
46.890       560
46.900       540
46.910       387
46.920       493
46.930       466
46.940       413
46.950       400
46.960       373
46.970       393
46.980       287
46.990       253
47.000       307
47.010       267
47.020       307
47.030       287
47.040       207
47.050       220
47.060       360
47.070       207
47.080       213
47.090       227
47.100       253
47.110       173
47.120       160
47.130       247
47.140       200
47.150       160
47.160       180
47.170       113
47.180       120
47.190       213
47.200       180
47.210       113
47.220       187
47.230       147
47.240       133
47.250       160
47.260       173
47.270       107
47.280       147
47.290       220
47.300       140
47.310       120
47.320       147
47.330       100
47.340        93
47.350        93
47.360       133
47.370       100
47.380       140
47.390        80
47.400       113
47.410        93
47.420        67
47.430       133
47.440       133
47.450        87
47.460       120
47.470        80
47.480        60
47.490        80
47.500       107
47.510        93
47.520       107
47.530       127
47.540        93
47.550        67
47.560       100
47.570        60
47.580        53
47.590       100
47.600        47
47.610        87
47.620        60
47.630        73
47.640        80
47.650        73
47.660        40
47.670        47
47.680        67
47.690        60
47.700        73
47.710        60
47.720        87
47.730        53
47.740        40
47.750        40
47.760        73
47.770        33
47.780        53
47.790        53
47.800        73
47.810        73
47.820        73
47.830        67
47.840        33
47.850        67
47.860        53
47.870        60
47.880        20
47.890        40
47.900        80
47.910        33
47.920        47
47.930        60
47.940        53
47.950        60
47.960        53
47.970        60
47.980        27
47.990        40
48.000        67
48.010        47
48.020        60
48.030        40
48.040        53
48.050        47
48.060        40
48.070        40
48.080        53
48.090        67
48.100        40
48.110        20
48.120        53
48.130        80
48.140        53
48.150        47
48.160        53
48.170        87
48.180        47
48.190        40
48.200        67
48.210        60
48.220        27
48.230        33
48.240        33
48.250        40
48.260        47
48.270        80
48.280        20
48.290        67
48.300        40
48.310        67
48.320        40
48.330        60
48.340         7
48.350        67
48.360        13
48.370        53
48.380        20
48.390        40
48.400        40
48.410        27
48.420        60
48.430        47
48.440        40
48.450        67
48.460        47
48.470        13
48.480        47
48.490        33
48.500        27
48.510        47
48.520        47
48.530        47
48.540        53
48.550        33
48.560        67
48.570        47
48.580        53
48.590        47
48.600        47
48.610        47
48.620        33
48.630        47
48.640        47
48.650        33
48.660        40
48.670        27
48.680        20
48.690        53
48.700        27
48.710        33
48.720        33
48.730        40
48.740        27
48.750        33
48.760        33
48.770        33
48.780        67
48.790        53
48.800        47
48.810        60
48.820        13
48.830        40
48.840        47
48.850        27
48.860        53
48.870        40
48.880        27
48.890        40
48.900        20
48.910        47
48.920        33
48.930        60
48.940        13
48.950        27
48.960        27
48.970        33
48.980        47
48.990        27
49.000        13
49.010        33
49.020        13
49.030        60
49.040        53
49.050        33
49.060        33
49.070        47
49.080        20
49.090        33
49.100        20
49.110        27
49.120        20
49.130        13
49.140        47
49.150        27
49.160        47
49.170        33
49.180        33
49.190        33
49.200        60
49.210        47
49.220        13
49.230        67
49.240        33
49.250        27
49.260        40
49.270        67
49.280        33
49.290        20
49.300        20
49.310        33
49.320        33
49.330        20
49.340        47
49.350        47
49.360        33
49.370        20
49.380        40
49.390        33
49.400        13
49.410        27
49.420        40
49.430        20
49.440        20
49.450        47
49.460        47
49.470        13
49.480        53
49.490        60
49.500        20
49.510        13
49.520        33
49.530        33
49.540        33
49.550        60
49.560        47
49.570        40
49.580        40
49.590        27
49.600        40
49.610        87
49.620        27
49.630        33
49.640        20
49.650        53
49.660        47
49.670        13
49.680        27
49.690        20
49.700        13
49.710        40
49.720        20
49.730        40
49.740        27
49.750        53
49.760        40
49.770        20
49.780        13
49.790        47
49.800        13
49.810        27
49.820        40
49.830        40
49.840        27
49.850        40
49.860        33
49.870         0
49.880        13
49.890        60
49.900        47
49.910        13
49.920        33
49.930        53
49.940        40
49.950        27
49.960        53
49.970        53
49.980        53
49.990        27
50.000        60
50.010        40
50.020         7
50.030        27
50.040        40
50.050        27
50.060        13
50.070        40
50.080        53
50.090        47
50.100        47
50.110        13
50.120        20
50.130        33
50.140        27
50.150        13
50.160        33
50.170        33
50.180        13
50.190        33
50.200        27
50.210        33
50.220        33
50.230        33
50.240        20
50.250        20
50.260        13
50.270        20
50.280        40
50.290        20
50.300         7
50.310        47
50.320        40
50.330        20
50.340        13
50.350        33
50.360         7
50.370        13
50.380         0
50.390        13
50.400        47
50.410        27
50.420        60
50.430        13
50.440        13
50.450        20
50.460        13
50.470         0
50.480        40
50.490        47
50.500        27
50.510        40
50.520        27
50.530        13
50.540        13
50.550        33
50.560        27
50.570        13
50.580        47
50.590        27
50.600        53
50.610        27
50.620        33
50.630        20
50.640        40
50.650        20
50.660        27
50.670        53
50.680        27
50.690        33
50.700        47
50.710        40
50.720        13
50.730        47
50.740        53
50.750         7
50.760        27
50.770        40
50.780        27
50.790        20
50.800         7
50.810        13
50.820        33
50.830        20
50.840        33
50.850        33
50.860        33
50.870        13
50.880        20
50.890        67
50.900        27
50.910        27
50.920        40
50.930        13
50.940        27
50.950        13
50.960        40
50.970        27
50.980        80
50.990        27
51.000        40
51.010        27
51.020        20
51.030         7
51.040        53
51.050        27
51.060        20
51.070        13
51.080        20
51.090        20
51.100         7
51.110        27
51.120        13
51.130         7
51.140        20
51.150        13
51.160        20
51.170        40
51.180        40
51.190        33
51.200        47
51.210        27
51.220         0
51.230        40
51.240        40
51.250        20
51.260        20
51.270         7
51.280        40
51.290        20
51.300        13
51.310        20
51.320        27
51.330        73
51.340        40
51.350        13
51.360        33
51.370        13
51.380        13
51.390        13
51.400        13
51.410        13
51.420         7
51.430        33
51.440        27
51.450        40
51.460        40
51.470        20
51.480        27
51.490        20
51.500        27
51.510        20
51.520        80
51.530        13
51.540        13
51.550        27
51.560        20
51.570        27
51.580        27
51.590        53
51.600        13
51.610        20
51.620        27
51.630        27
51.640        33
51.650        33
51.660        27
51.670        53
51.680        20
51.690         7
51.700        40
51.710        20
51.720        13
51.730        47
51.740        20
51.750        33
51.760        13
51.770         0
51.780        20
51.790        20
51.800        20
51.810         7
51.820        33
51.830        33
51.840        33
51.850        47
51.860        20
51.870        20
51.880        13
51.890        33
51.900        20
51.910        47
51.920        27
51.930        40
51.940        27
51.950        20
51.960         7
51.970        13
51.980        13
51.990        33
52.000        47
52.010         7
52.020         7
52.030        33
52.040        13
52.050        33
52.060        20
52.070         7
52.080        40
52.090        40
52.100        13
52.110        27
52.120        40
52.130        47
52.140        27
52.150        20
52.160         0
52.170        47
52.180        13
52.190        20
52.200        27
52.210         7
52.220        20
52.230        27
52.240         7
52.250         7
52.260        33
52.270        13
52.280        20
52.290        27
52.300        27
52.310        27
52.320        40
52.330        13
52.340        27
52.350        33
52.360        20
52.370        33
52.380        33
52.390        27
52.400        27
52.410        47
52.420        67
52.430        20
52.440        40
52.450        40
52.460        13
52.470        47
52.480        47
52.490        33
52.500        47
52.510        47
52.520        47
52.530        67
52.540        60
52.550        67
52.560       147
52.570       153
52.580       293
52.590       147
52.600       253
52.610       247
52.620       213
52.630       160
52.640       120
52.650       147
52.660        93
52.670        53
52.680        73
52.690        47
52.700        60
52.710        87
52.720        93
52.730       127
52.740       127
52.750        87
52.760       113
52.770        47
52.780        93
52.790        40
52.800        53
52.810         7
52.820        47
52.830        53
52.840        33
52.850        33
52.860        40
52.870        33
52.880        20
52.890        20
52.900        13
52.910        27
52.920        27
52.930        27
52.940        33
52.950        47
52.960        27
52.970        20
52.980        13
52.990        13
53.000        33
53.010        13
53.020        27
53.030        20
53.040        20
53.050        20
53.060        33
53.070        33
53.080        27
53.090        27
53.100        33
53.110        33
53.120         7
53.130        47
53.140        13
53.150         7
53.160         7
53.170        20
53.180        13
53.190        40
53.200        20
53.210        20
53.220        47
53.230        27
53.240        47
53.250        13
53.260        20
53.270        20
53.280        20
53.290        33
53.300        13
53.310        20
53.320        53
53.330        33
53.340        20
53.350        27
53.360        27
53.370        13
53.380        20
53.390         7
53.400        27
53.410        40
53.420        20
53.430        33
53.440        13
53.450        27
53.460        27
53.470        20
53.480        20
53.490        13
53.500        13
53.510        13
53.520        33
53.530        33
53.540        13
53.550        20
53.560        27
53.570        40
53.580        40
53.590        20
53.600        13
53.610        40
53.620        33
53.630        20
53.640        33
53.650        33
53.660        40
53.670        27
53.680        13
53.690        53
53.700         7
53.710        27
53.720         7
53.730         7
53.740        27
53.750        33
53.760        20
53.770        27
53.780        53
53.790        40
53.800        27
53.810        47
53.820        40
53.830        20
53.840        40
53.850        13
53.860        13
53.870         7
53.880         7
53.890         7
53.900         7
53.910        27
53.920        47
53.930        27
53.940        13
53.950        27
53.960        20
53.970        27
53.980        33
53.990        40
54.000        33
54.010        27
54.020        13
54.030        33
54.040        20
54.050         7
54.060         0
54.070        27
54.080        20
54.090        20
54.100        40
54.110        33
54.120        20
54.130        20
54.140        13
54.150        33
54.160         7
54.170        13
54.180        13
54.190        33
54.200        20
54.210        33
54.220        27
54.230         7
54.240        27
54.250        27
54.260        13
54.270        33
54.280         7
54.290        40
54.300        33
54.310         7
54.320        13
54.330         7
54.340        33
54.350        20
54.360         7
54.370        20
54.380        20
54.390        27
54.400        20
54.410         7
54.420        27
54.430         7
54.440        20
54.450        20
54.460        33
54.470        33
54.480        20
54.490        20
54.500        27
54.510        20
54.520        27
54.530        20
54.540        27
54.550        27
54.560         0
54.570         0
54.580        27
54.590        33
54.600        13
54.610        13
54.620        33
54.630        33
54.640        13
54.650        27
54.660        20
54.670         7
54.680         7
54.690        20
54.700        40
54.710        40
54.720        40
54.730        27
54.740        40
54.750        47
54.760         7
54.770        53
54.780        40
54.790        60
54.800         7
54.810        20
54.820        33
54.830        20
54.840         0
54.850        20
54.860        20
54.870        13
54.880         7
54.890        20
54.900        33
54.910        27
54.920         7
54.930        20
54.940        20
54.950        33
54.960         7
54.970        13
54.980        27
54.990        13
55.000        20
55.010        40
55.020         0
55.030        27
55.040         7
55.050        27
55.060        53
55.070        20
55.080        27
55.090        33
55.100        20
55.110        27
55.120        40
55.130        20
55.140        40
55.150        27
55.160        53
55.170        27
55.180        13
55.190        20
55.200        40
55.210        40
55.220        13
55.230        33
55.240        20
55.250         7
55.260        20
55.270        20
55.280        20
55.290        27
55.300        27
55.310        13
55.320         7
55.330        27
55.340        20
55.350         0
55.360        20
55.370        33
55.380        13
55.390        27
55.400        13
55.410        20
55.420        60
55.430        27
55.440        33
55.450        13
55.460        20
55.470        20
55.480        20
55.490        27
55.500        40
55.510        13
55.520         7
55.530         0
55.540        20
55.550        33
55.560        13
55.570        20
55.580         7
55.590        13
55.600        13
55.610        13
55.620        47
55.630        40
55.640         7
55.650        20
55.660        13
55.670        27
55.680        47
55.690        33
55.700        40
55.710        13
55.720        33
55.730        20
55.740        13
55.750        20
55.760        13
55.770        13
55.780        20
55.790        20
55.800         7
55.810        27
55.820        20
55.830        27
55.840        13
55.850        33
55.860         7
55.870         7
55.880         7
55.890        27
55.900        13
55.910        27
55.920        13
55.930         7
55.940        33
55.950        33
55.960        20
55.970        33
55.980        33
55.990        40
56.000         7
56.010        33
56.020         0
56.030        27
56.040         7
56.050         0
56.060         0
56.070        20
56.080         7
56.090         7
56.100        33
56.110        13
56.120        20
56.130        40
56.140         7
56.150         7
56.160        20
56.170        13
56.180        20
56.190        53
56.200         7
56.210        13
56.220        13
56.230        33
56.240        13
56.250        20
56.260        40
56.270        20
56.280        33
56.290         7
56.300        33
56.310        27
56.320        20
56.330        13
56.340        20
56.350        13
56.360        27
56.370         7
56.380        20
56.390        20
56.400        13
56.410        27
56.420        27
56.430        13
56.440        27
56.450        13
56.460        20
56.470         7
56.480        13
56.490        27
56.500        27
56.510         7
56.520         7
56.530        27
56.540        13
56.550        47
56.560        13
56.570        20
56.580        20
56.590        20
56.600        20
56.610        20
56.620         0
56.630         7
56.640        27
56.650        13
56.660        20
56.670        13
56.680         7
56.690        13
56.700         0
56.710        27
56.720        13
56.730        13
56.740        40
56.750        40
56.760         0
56.770        13
56.780        13
56.790        20
56.800        33
56.810        13
56.820        27
56.830         7
56.840         7
56.850         7
56.860        27
56.870         7
56.880         7
56.890        13
56.900        20
56.910        13
56.920         0
56.930         0
56.940        27
56.950        20
56.960        27
56.970        13
56.980        20
56.990        20
57.000        47
57.010        27
57.020        20
57.030         7
57.040        13
57.050        13
57.060        20
57.070        33
57.080        13
57.090        33
57.100         7
57.110        33
57.120        33
57.130        13
57.140        27
57.150        47
57.160        27
57.170        40
57.180        13
57.190         7
57.200        27
57.210        20
57.220         7
57.230        20
57.240        33
57.250        27
57.260        13
57.270         7
57.280        20
57.290        33
57.300        40
57.310        20
57.320        40
57.330        20
57.340        20
57.350        33
57.360        27
57.370        27
57.380        27
57.390        20
57.400        60
57.410        40
57.420        47
57.430        33
57.440        53
57.450        27
57.460        87
57.470       100
57.480        93
57.490       227
57.500       180
57.510       253
57.520       327
57.530       300
57.540       273
57.550       180
57.560       167
57.570        87
57.580       140
57.590        73
57.600        87
57.610        53
57.620        40
57.630       120
57.640        33
57.650       100
57.660       107
57.670       167
57.680       147
57.690       120
57.700       140
57.710       120
57.720        80
57.730        80
57.740        53
57.750        33
57.760        53
57.770        47
57.780        47
57.790        47
57.800        33
57.810        73
57.820        27
57.830        27
57.840        27
57.850        53
57.860        53
57.870        27
57.880        53
57.890        53
57.900        40
57.910        13
57.920        47
57.930        20
57.940        47
57.950        40
57.960        27
57.970        27
57.980        33
57.990        47
58.000        27
58.010         0
58.020        40
58.030        20
58.040        20
58.050        47
58.060        60
58.070         7
58.080        53
58.090        53
58.100         7
58.110         7
58.120        20
58.130        20
58.140        40
58.150        20
58.160        20
58.170        27
58.180        40
58.190        13
58.200        20
58.210        13
58.220        27
58.230        20
58.240        27
58.250         0
58.260        27
58.270        20
58.280        40
58.290        13
58.300        20
58.310        13
58.320        20
58.330         7
58.340        33
58.350        20
58.360        13
58.370        20
58.380        33
58.390        20
58.400        27
58.410        33
58.420        27
58.430        47
58.440         7
58.450        33
58.460        33
58.470         7
58.480         7
58.490         7
58.500        13
58.510         7
58.520        47
58.530        13
58.540        20
58.550         7
58.560        20
58.570        20
58.580        33
58.590         0
58.600         7
58.610        33
58.620        20
58.630         7
58.640        13
58.650        13
58.660        20
58.670        13
58.680         0
58.690         7
58.700        20
58.710        33
58.720        13
58.730         7
58.740        13
58.750        27
58.760        20
58.770        13
58.780        13
58.790        33
58.800        20
58.810         0
58.820        13
58.830        13
58.840        33
58.850        13
58.860         7
58.870        40
58.880        13
58.890         7
58.900         7
58.910        20
58.920        20
58.930        13
58.940        13
58.950        13
58.960        27
58.970        27
58.980        33
58.990        53
59.000        47
59.010         7
59.020        27
59.030        20
59.040        20
59.050        27
59.060        27
59.070        27
59.080        20
59.090        13
59.100         0
59.110        60
59.120        13
59.130        13
59.140         7
59.150        20
59.160        33
59.170        27
59.180        20
59.190        20
59.200        20
59.210        20
59.220         0
59.230        13
59.240        27
59.250        20
59.260        27
59.270        13
59.280        13
59.290        13
59.300        13
59.310         0
59.320        40
59.330         7
59.340         7
59.350         0
59.360        13
59.370        20
59.380         7
59.390        20
59.400        40
59.410        20
59.420        20
59.430        20
59.440        20
59.450        20
59.460        27
59.470         7
59.480         7
59.490        40
59.500         7
59.510        13
59.520        20
59.530        13
59.540         7
59.550         7
59.560        27
59.570        27
59.580         0
59.590         7
59.600        20
59.610        13
59.620        20
59.630        13
59.640        13
59.650         7
59.660         7
59.670         7
59.680        27
59.690        27
59.700        20
59.710        13
59.720        33
59.730         7
59.740        33
59.750        47
59.760        20
59.770        27
59.780        47
59.790        27
59.800        20
59.810        47
59.820        27
59.830         0
59.840        27
59.850        13
59.860         7
59.870         7
59.880        27
59.890        33
59.900         0
59.910         0
59.920        27
59.930        20
59.940        13
59.950        47
59.960        27
59.970        60
59.980        20
59.990        13
60.000        13
