20.000        20
20.010        20
20.020        20
20.030        13
20.040        53
20.050        33
20.060        40
20.070        27
20.080        60
20.090        40
20.100        33
20.110        47
20.120        33
20.130        60
20.140        47
20.150        20
20.160        47
20.170        73
20.180        33
20.190        40
20.200        33
20.210        47
20.220        53
20.230        20
20.240        40
20.250        60
20.260        53
20.270        27
20.280        20
20.290        33
20.300        27
20.310        47
20.320        13
20.330        47
20.340        33
20.350        53
20.360        60
20.370        60
20.380        53
20.390        27
20.400        20
20.410        40
20.420        27
20.430        33
20.440        33
20.450        60
20.460        20
20.470        47
20.480        53
20.490        80
20.500        47
20.510        53
20.520        33
20.530        40
20.540        27
20.550        33
20.560        60
20.570        27
20.580        13
20.590         7
20.600        53
20.610        20
20.620        33
20.630        27
20.640        33
20.650        33
20.660        33
20.670        47
20.680        27
20.690        60
20.700        47
20.710        13
20.720        20
20.730        27
20.740        33
20.750        47
20.760        47
20.770         7
20.780        20
20.790        53
20.800        67
20.810        53
20.820        20
20.830        33
20.840        47
20.850        60
20.860        53
20.870        40
20.880        47
20.890        33
20.900        20
20.910        33
20.920        47
20.930        20
20.940        33
20.950        33
20.960        27
20.970        53
20.980        40
20.990        67
21.000        67
21.010        73
21.020        13
21.030        33
21.040        40
21.050        33
21.060        40
21.070        40
21.080        13
21.090        53
21.100        20
21.110        13
21.120        53
21.130        80
21.140        33
21.150        47
21.160        20
21.170        33
21.180        47
21.190        53
21.200         7
21.210        73
21.220        33
21.230        40
21.240        73
21.250        40
21.260        47
21.270        87
21.280        73
21.290        33
21.300        53
21.310        53
21.320        13
21.330        33
21.340        13
21.350        53
21.360        20
21.370        33
21.380        33
21.390         7
21.400        47
21.410         7
21.420        27
21.430        87
21.440        40
21.450        27
21.460        53
21.470        33
21.480        20
21.490         7
21.500        60
21.510        67
21.520        20
21.530        47
21.540        33
21.550        40
21.560        47
21.570        27
21.580        33
21.590        33
21.600        20
21.610         7
21.620        33
21.630        33
21.640        27
21.650        20
21.660        47
21.670        40
21.680        33
21.690        53
21.700        53
21.710        47
21.720        20
21.730        13
21.740        47
21.750        47
21.760        40
21.770        40
21.780        20
21.790        27
21.800        20
21.810        33
21.820        20
21.830        33
21.840        40
21.850        20
21.860        53
21.870        47
21.880        47
21.890        33
21.900        60
21.910        47
21.920        33
21.930        33
21.940        53
21.950        27
21.960        47
21.970        33
21.980        27
21.990        60
22.000        47
22.010        20
22.020        20
22.030        27
22.040        27
22.050        27
22.060        27
22.070        33
22.080        53
22.090        20
22.100        33
22.110        27
22.120        13
22.130        47
22.140        60
22.150        47
22.160        53
22.170        53
22.180        13
22.190        47
22.200        47
22.210        40
22.220        27
22.230        13
22.240        33
22.250        40
22.260        47
22.270        33
22.280        47
22.290        13
22.300        53
22.310        20
22.320        47
22.330        67
22.340        33
22.350        53
22.360        40
22.370        47
22.380        47
22.390        33
22.400        40
22.410        27
22.420        67
22.430        20
22.440        27
22.450        73
22.460        40
22.470        40
22.480        47
22.490        67
22.500        40
22.510        67
22.520        47
22.530        47
22.540        60
22.550        60
22.560        27
22.570        67
22.580        47
22.590        40
22.600        73
22.610        60
22.620        67
22.630        73
22.640        33
22.650        53
22.660        73
22.670        67
22.680        67
22.690        60
22.700        93
22.710        40
22.720        67
22.730       107
22.740        40
22.750       127
22.760        53
22.770       113
22.780        53
22.790        60
22.800        80
22.810        33
22.820        67
22.830       140
22.840       100
22.850        33
22.860        60
22.870        53
22.880        47
22.890        60
22.900        47
22.910        60
22.920        40
22.930        47
22.940        40
22.950        53
22.960        40
22.970        20
22.980        40
22.990        20
23.000        20
23.010        27
23.020        67
23.030        20
23.040        27
23.050        93
23.060        33
23.070        27
23.080        33
23.090        33
23.100        20
23.110        20
23.120        13
23.130        53
23.140        47
23.150        27
23.160        33
23.170        27
23.180        27
23.190        27
23.200        33
23.210        33
23.220        27
23.230        27
23.240        47
23.250        53
23.260        33
23.270        33
23.280        33
23.290        40
23.300        27
23.310        27
23.320        33
23.330        47
23.340        40
23.350        20
23.360         7
23.370         7
23.380        13
23.390        47
23.400        53
23.410        20
23.420        27
23.430        20
23.440        33
23.450        33
23.460        13
23.470        33
23.480        67
23.490        47
23.500        40
23.510        20
23.520         7
23.530        20
23.540        33
23.550        40
23.560        60
23.570        40
23.580        20
23.590        27
23.600        27
23.610        13
23.620        20
23.630        33
23.640        47
23.650        47
23.660        13
23.670        47
23.680         7
23.690        13
23.700        33
23.710        20
23.720        73
23.730        27
23.740        27
23.750        33
23.760        13
23.770        20
23.780        40
23.790        47
23.800        47
23.810        20
23.820        47
23.830        20
23.840        40
23.850        33
23.860        40
23.870        20
23.880        40
23.890        33
23.900        20
23.910        20
23.920        27
23.930        33
23.940        47
23.950        40
23.960        40
23.970        33
23.980        33
23.990        53
24.000        40
24.010        53
24.020        20
24.030        33
24.040        13
24.050        47
24.060        47
24.070        33
24.080        47
24.090        27
24.100        27
24.110        27
24.120        40
24.130        20
24.140        53
24.150        27
24.160        53
24.170        20
24.180        53
24.190        20
24.200        13
24.210        27
24.220        33
24.230        40
24.240        20
24.250        27
24.260        33
24.270        20
24.280        13
24.290        33
24.300        33
24.310         0
24.320        20
24.330        33
24.340        33
24.350        40
24.360        40
24.370        47
24.380        27
24.390        33
24.400        40
24.410        13
24.420        40
24.430        40
24.440        40
24.450        27
24.460        33
24.470        27
24.480        67
24.490        33
24.500        47
24.510        20
24.520        33
24.530        13
24.540        13
24.550         7
24.560        20
24.570        33
24.580        80
24.590        47
24.600        40
24.610        27
24.620        20
24.630        13
24.640        20
24.650        27
24.660         7
24.670        13
24.680        13
24.690        13
24.700        67
24.710        13
24.720        27
24.730        27
24.740        27
24.750        13
24.760        53
24.770        20
24.780        33
24.790        33
24.800        27
24.810        13
24.820        20
24.830        27
24.840         7
24.850        27
24.860        33
24.870        27
24.880        33
24.890        27
24.900        40
24.910        47
24.920        20
24.930        33
24.940        33
24.950        73
24.960        20
24.970        27
24.980        40
24.990        27
25.000         7
25.010        33
25.020        33
25.030        27
25.040        20
25.050        53
25.060        27
25.070        20
25.080        53
25.090        13
25.100        13
25.110        13
25.120         0
25.130        33
25.140        27
25.150        27
25.160        40
25.170        20
25.180        40
25.190        40
25.200         7
25.210        20
25.220        20
25.230        47
25.240        27
25.250        47
25.260        40
25.270        20
25.280        13
25.290         7
25.300        53
25.310        40
25.320        27
25.330        33
25.340        67
25.350        47
25.360        20
25.370        27
25.380        13
25.390        33
25.400        33
25.410        20
25.420        60
25.430        27
25.440        60
25.450        40
25.460        33
25.470       107
25.480        73
25.490       140
25.500       147
25.510       127
25.520        87
25.530        47
25.540        67
25.550       147
25.560        93
25.570       113
25.580        87
25.590       107
25.600       120
25.610        53
25.620       107
25.630       113
25.640        93
25.650        87
25.660        73
25.670        80
25.680        53
25.690        93
25.700        47
25.710        47
25.720        47
25.730        33
25.740        13
25.750        33
25.760         7
25.770        13
25.780        20
25.790        33
25.800        33
25.810        13
25.820        53
25.830        33
25.840        47
25.850        20
25.860        47
25.870        33
25.880        20
25.890        13
25.900        20
25.910        20
25.920        27
25.930        33
25.940        27
25.950        20
25.960        20
25.970        40
25.980        20
25.990        13
26.000        13
26.010        20
26.020        33
26.030        13
26.040        40
26.050        60
26.060        53
26.070         7
26.080        27
26.090         7
26.100        20
26.110        33
26.120        40
26.130        20
26.140         7
26.150        60
26.160        20
26.170        13
26.180        33
26.190        13
26.200        40
26.210        40
26.220         0
26.230        60
26.240        13
26.250        27
26.260        33
26.270        13
26.280        13
26.290        33
26.300         7
26.310        13
26.320        33
26.330        13
26.340        13
26.350        33
26.360        13
26.370        20
26.380        33
26.390        47
26.400        13
26.410        40
26.420        53
26.430        27
26.440        40
26.450        27
26.460        40
26.470        13
26.480        27
26.490        27
26.500        40
26.510        47
26.520        13
26.530        33
26.540        33
26.550        33
26.560        40
26.570        53
26.580        20
26.590        33
26.600        20
26.610        33
26.620        13
26.630        27
26.640         0
26.650        20
26.660        40
26.670        27
26.680        13
26.690        60
26.700        27
26.710        33
26.720        27
26.730        40
26.740        27
26.750        33
26.760        20
26.770        13
26.780        20
26.790        27
26.800        33
26.810        20
26.820        27
26.830        20
26.840         7
26.850        20
26.860        40
26.870        33
26.880        27
26.890        27
26.900        47
26.910        13
26.920        20
26.930         7
26.940        53
26.950        33
26.960         7
26.970        27
26.980        20
26.990        27
27.000        20
27.010        67
27.020        47
27.030        13
27.040         7
27.050        27
27.060        27
27.070        27
27.080        60
27.090        13
27.100        20
27.110        13
27.120        27
27.130        47
27.140        20
27.150        53
27.160        27
27.170        27
27.180        13
27.190        27
27.200        27
27.210        20
27.220        27
27.230        13
27.240        47
27.250         7
27.260        27
27.270        20
27.280        53
27.290        20
27.300        20
27.310         7
27.320        33
27.330        40
27.340        33
27.350        20
27.360        40
27.370        40
27.380        47
27.390        20
27.400        27
27.410        27
27.420        47
27.430        13
27.440        13
27.450        53
27.460        47
27.470        20
27.480        13
27.490        53
27.500         7
27.510         7
27.520        27
27.530        27
27.540        47
27.550        33
27.560        20
27.570        40
27.580        13
27.590        20
27.600        87
27.610        20
27.620        20
27.630        20
27.640        13
27.650         7
27.660        13
27.670        20
27.680        40
27.690        33
27.700        27
27.710        33
27.720        13
27.730        20
27.740        13
27.750        20
27.760        33
27.770         7
27.780        33
27.790         7
27.800         7
27.810        13
27.820         7
27.830        20
27.840        13
27.850        13
27.860        13
27.870        27
27.880        27
27.890        27
27.900        20
27.910        20
27.920        13
27.930        27
27.940         7
27.950        27
27.960        20
27.970        33
27.980        40
27.990        27
28.000        73
28.010        33
28.020        33
28.030        33
28.040        33
28.050        20
28.060        27
28.070        27
28.080        33
28.090         7
28.100        33
28.110        20
28.120        40
28.130        13
28.140        33
28.150        27
28.160         7
28.170        40
28.180        13
28.190        20
28.200         0
28.210        40
28.220        27
28.230        47
28.240        27
28.250        33
28.260        47
28.270         7
28.280        33
28.290        33
28.300        47
28.310        40
28.320        13
28.330        20
28.340         7
28.350        40
28.360         7
28.370        33
28.380        33
28.390         7
28.400        33
28.410        20
28.420        13
28.430        20
28.440         7
28.450        20
28.460        20
28.470        13
28.480        13
28.490        40
28.500        27
28.510        47
28.520        40
28.530         7
28.540        27
28.550        27
28.560         7
28.570        53
28.580        33
28.590        40
28.600        20
28.610        13
28.620        20
28.630        40
28.640        13
28.650        47
28.660        27
28.670        33
28.680        13
28.690        33
28.700        60
28.710        33
28.720        13
28.730        13
28.740        20
28.750        20
28.760        13
28.770         7
28.780        20
28.790        53
28.800        13
28.810        53
28.820        40
28.830        27
28.840        20
28.850        47
28.860        40
28.870        20
28.880        20
28.890        13
28.900        27
28.910        27
28.920        53
28.930        33
28.940        20
28.950        13
28.960        27
28.970        20
28.980        47
28.990        27
29.000        40
29.010        53
29.020        20
29.030        33
29.040        13
29.050        13
29.060        13
29.070        33
29.080        40
29.090        13
29.100        27
29.110        20
29.120        27
29.130        13
29.140        40
29.150        33
29.160        40
29.170        27
29.180        47
29.190        40
29.200        40
29.210        27
29.220         7
29.230        33
29.240        40
29.250         7
29.260        20
29.270        27
29.280        20
29.290        27
29.300        53
29.310         0
29.320        20
29.330         7
29.340        27
29.350        20
29.360        47
29.370        20
29.380        13
29.390        20
29.400        20
29.410        27
29.420        13
29.430        27
29.440        53
29.450        20
29.460        20
29.470        40
29.480        27
29.490         7
29.500        40
29.510        13
29.520         7
29.530         7
29.540        20
29.550        13
29.560        13
29.570        33
29.580        13
29.590        33
29.600        20
29.610        27
29.620        20
29.630        13
29.640        20
29.650         7
29.660         0
29.670        33
29.680        20
29.690        47
29.700        13
29.710        40
29.720        13
29.730        40
29.740        47
29.750        27
29.760        20
29.770        40
29.780        20
29.790        40
29.800        33
29.810        33
29.820        27
29.830        20
29.840        33
29.850        47
29.860         7
29.870        40
29.880        20
29.890        33
29.900        13
29.910         7
29.920         0
29.930        13
29.940        33
29.950        40
29.960        13
29.970        40
29.980        20
29.990        27
30.000        40
30.010         7
30.020         7
30.030        47
30.040        33
30.050        40
30.060         7
30.070        40
30.080        13
30.090        47
30.100         7
30.110         7
30.120        20
30.130        27
30.140        47
30.150        20
30.160        27
30.170        33
30.180        20
30.190         7
30.200        33
30.210        27
30.220        13
30.230         7
30.240         7
30.250         0
30.260        60
30.270        27
30.280        33
30.290        20
30.300        20
30.310        27
30.320        20
30.330        27
30.340        33
30.350        13
30.360        20
30.370        20
30.380        20
30.390        13
30.400        47
30.410        40
30.420        27
30.430        13
30.440         0
30.450        20
30.460         7
30.470         7
30.480        13
30.490        20
30.500         7
30.510        13
30.520        13
30.530        33
30.540        20
30.550        20
30.560        27
30.570        20
30.580        27
30.590        27
30.600        27
30.610        27
30.620        20
30.630        13
30.640        33
30.650         7
30.660        13
30.670        20
30.680        13
30.690        27
30.700        27
30.710        27
30.720        13
30.730        33
30.740        20
30.750        53
30.760         7
30.770        13
30.780        20
30.790         7
30.800        20
30.810        33
30.820        13
30.830        20
30.840         0
30.850        33
30.860        20
30.870        33
30.880        40
30.890        27
30.900        33
30.910        27
30.920         7
30.930         7
30.940         7
30.950        13
30.960         7
30.970        20
30.980        47
30.990        40
31.000         0
31.010         0
31.020         0
31.030        33
31.040        33
31.050         0
31.060        13
31.070         0
31.080        20
31.090        27
31.100        40
31.110        20
31.120        20
31.130        20
31.140        20
31.150        33
31.160        27
31.170        27
31.180        33
31.190         7
31.200        13
31.210        33
31.220         7
31.230        27
31.240         0
31.250        20
31.260        20
31.270         7
31.280        20
31.290        27
31.300        33
31.310        13
31.320        20
31.330        67
31.340        40
31.350        47
31.360         7
31.370         7
31.380        33
31.390        27
31.400        33
31.410        40
31.420        33
31.430        13
31.440        20
31.450        13
31.460        20
31.470        33
31.480        20
31.490        40
31.500         7
31.510        27
31.520        47
31.530        40
31.540        13
31.550        27
31.560         0
31.570        13
31.580        13
31.590        33
31.600        47
31.610        20
31.620        40
31.630        33
31.640        47
31.650        47
31.660        47
31.670        40
31.680        40
31.690         7
31.700        20
31.710        13
31.720        13
31.730        20
31.740        73
31.750        27
31.760        60
31.770         7
31.780         7
31.790        20
31.800         7
31.810        33
31.820        33
31.830        27
31.840        20
31.850        20
31.860        33
31.870         7
31.880        27
31.890         0
31.900        20
31.910        47
31.920         7
31.930        13
31.940         7
31.950        20
31.960        33
31.970        27
31.980         7
31.990        20
32.000         0
32.010        20
32.020         7
32.030        13
32.040        20
32.050        33
32.060        27
32.070        13
32.080        13
32.090        33
32.100        13
32.110        27
32.120         7
32.130        33
32.140        47
32.150        27
32.160        33
32.170        40
32.180        47
32.190        40
32.200        73
32.210        80
32.220        33
32.230        67
32.240        47
32.250        20
32.260        60
32.270        67
32.280        47
32.290        67
32.300        60
32.310        80
32.320       107
32.330       140
32.340        80
32.350       133
32.360       127
32.370       107
32.380       100
32.390       100
32.400       133
32.410       153
32.420       133
32.430       107
32.440        73
32.450       160
32.460       100
32.470       160
32.480        93
32.490        87
32.500        80
32.510        60
32.520        87
32.530        87
32.540       107
32.550        73
32.560        60
32.570        27
32.580        60
32.590        93
32.600        53
32.610        33
32.620        53
32.630        60
32.640        27
32.650        13
32.660        40
32.670        20
32.680        33
32.690        27
32.700         0
32.710         7
32.720        13
32.730        13
32.740        33
32.750        40
32.760        13
32.770        40
32.780        53
32.790        13
32.800        47
32.810        40
32.820        20
32.830        47
32.840        13
32.850        20
32.860        53
32.870        20
32.880        47
32.890        47
32.900         7
32.910        27
32.920        40
32.930        27
32.940        20
32.950         7
32.960        13
32.970        20
32.980        20
32.990        33
33.000        27
33.010        33
33.020        20
33.030        20
33.040        20
33.050         0
33.060        13
33.070        20
33.080         7
33.090        40
33.100        27
33.110        27
33.120        33
33.130        13
33.140        13
33.150        20
33.160        27
33.170        47
33.180        33
33.190        33
33.200        40
33.210        20
33.220        20
33.230        33
33.240        47
33.250        20
33.260        27
33.270        27
33.280        20
33.290        13
33.300         7
33.310        20
33.320        13
33.330        27
33.340        33
33.350        33
33.360        27
33.370        13
33.380        27
33.390        27
33.400        20
33.410        40
33.420        13
33.430         7
33.440        13
33.450         7
33.460        20
33.470        33
33.480        20
33.490         7
33.500        13
33.510        27
33.520        47
33.530        13
33.540        27
33.550        20
33.560        13
33.570        27
33.580        27
33.590         0
33.600         0
33.610        20
33.620        13
33.630        33
33.640        13
33.650         0
33.660        27
33.670        13
33.680        27
33.690        33
33.700        20
33.710         7
33.720        13
33.730        13
33.740        13
33.750        20
33.760        20
33.770        27
33.780        20
33.790        33
33.800        33
33.810         7
33.820        20
33.830        13
33.840        33
33.850        13
33.860        13
33.870        13
33.880        13
33.890        40
33.900        13
33.910        27
33.920        13
33.930         7
33.940         7
33.950        13
33.960        40
33.970        33
33.980         0
33.990        20
34.000        20
34.010        20
34.020        13
34.030        27
34.040        13
34.050        13
34.060        53
34.070        13
34.080         7
34.090         0
34.100         7
34.110        27
34.120        40
34.130         7
34.140        20
34.150        40
34.160        33
34.170        20
34.180        20
34.190        27
34.200        27
34.210        47
34.220        20
34.230        33
34.240        13
34.250        13
34.260        33
34.270        20
34.280         7
34.290        33
34.300        53
34.310        27
34.320        13
34.330        27
34.340        27
34.350        27
34.360        60
34.370        13
34.380        27
34.390         7
34.400        20
34.410        13
34.420        27
34.430        20
34.440        13
34.450         0
34.460        20
34.470         7
34.480        13
34.490        20
34.500        20
34.510         7
34.520        20
34.530        13
34.540        13
34.550        40
34.560        60
34.570        33
34.580         7
34.590        20
34.600        20
34.610        13
34.620         7
34.630        33
34.640        13
34.650         7
34.660        13
34.670        33
34.680        33
34.690        27
34.700         0
34.710        47
34.720        20
34.730        40
34.740        27
34.750        13
34.760        20
34.770        27
34.780        33
34.790        20
34.800        13
34.810        13
34.820        20
34.830        13
34.840        13
34.850        20
34.860         7
34.870        40
34.880        33
34.890        33
34.900         7
34.910        13
34.920        40
34.930        27
34.940        53
34.950        53
34.960        53
34.970        93
34.980        47
34.990        53
35.000        80
35.010        27
35.020        40
35.030        73
35.040       160
35.050        67
35.060        60
35.070       133
35.080       107
35.090       160
35.100       120
35.110       153
35.120       113
35.130       120
35.140       173
35.150       133
35.160       213
35.170       247
35.180       213
35.190       240
35.200       253
35.210       247
35.220       293
35.230       160
35.240       107
35.250       127
35.260       107
35.270       127
35.280       107
35.290       133
35.300       127
35.310        93
35.320        67
35.330        27
35.340        53
35.350        47
35.360        47
35.370        33
35.380        33
35.390        20
35.400        33
35.410        53
35.420        40
35.430        20
35.440        33
35.450        27
35.460        20
35.470        27
35.480        33
35.490        40
35.500        13
35.510         0
35.520         7
35.530         7
35.540        20
35.550        20
35.560        20
35.570        20
35.580         7
35.590         7
35.600        27
35.610        27
35.620         7
35.630        20
35.640         7
35.650        33
35.660        13
35.670        27
35.680        13
35.690        20
35.700        33
35.710        33
35.720        20
35.730        13
35.740        27
35.750         7
35.760         0
35.770        40
35.780        20
35.790        27
35.800        20
35.810        13
35.820         7
35.830        20
35.840        20
35.850        13
35.860         7
35.870         0
35.880        20
35.890        33
35.900         7
35.910        47
35.920        53
35.930        27
35.940        33
35.950         7
35.960         0
35.970        33
35.980        13
35.990        20
36.000         7
36.010        27
36.020        20
36.030         7
36.040        33
36.050         0
36.060        33
36.070        20
36.080        33
36.090        20
36.100        40
36.110        13
36.120         0
36.130        13
36.140        47
36.150        27
36.160        20
36.170        27
36.180         7
36.190        20
36.200        33
36.210        40
36.220        20
36.230        33
36.240         7
36.250         7
36.260         7
36.270        13
36.280        27
36.290        20
36.300        80
36.310        27
36.320        33
36.330         7
36.340         0
36.350        53
36.360        20
36.370        20
36.380         7
36.390        20
36.400        20
36.410        13
36.420        20
36.430        20
36.440        20
36.450        47
36.460        20
36.470        13
36.480         7
36.490        13
36.500        13
36.510         7
36.520         7
36.530        20
36.540        33
36.550        20
36.560        27
36.570        27
36.580        20
36.590        13
36.600        13
36.610         7
36.620        40
36.630         7
36.640        13
36.650         7
36.660        20
36.670        13
36.680        20
36.690        27
36.700        13
36.710        13
36.720        20
36.730         0
36.740         7
36.750        13
36.760         0
36.770        13
36.780        13
36.790         7
36.800        13
36.810         7
36.820        20
36.830        33
36.840         7
36.850        13
36.860        33
36.870        20
36.880        33
36.890        27
36.900        20
36.910         7
36.920        27
36.930        20
36.940        33
36.950        27
36.960        13
36.970        13
36.980        27
36.990         7
37.000         7
37.010        27
37.020        27
37.030         0
37.040        13
37.050        20
37.060        13
37.070         7
37.080        13
37.090         7
37.100        20
37.110        13
37.120        27
37.130        13
37.140        20
37.150        47
37.160        13
37.170        13
37.180         0
37.190         7
37.200        13
37.210        33
37.220        13
37.230        13
37.240        33
37.250        20
37.260         7
37.270         7
37.280        27
37.290         7
37.300        20
37.310         0
37.320        20
37.330        13
37.340        13
37.350        13
37.360        13
37.370        13
37.380         0
37.390        20
37.400        27
37.410        20
37.420         7
37.430        13
37.440         0
37.450         0
37.460        27
37.470        27
37.480        20
37.490        20
37.500        20
37.510        27
37.520        13
37.530        27
37.540        33
37.550        27
37.560        20
37.570        13
37.580         7
37.590        33
37.600        13
37.610        13
37.620        27
37.630        20
37.640        53
37.650        27
37.660        27
37.670        47
37.680         7
37.690        13
37.700        13
37.710        27
37.720        20
37.730        40
37.740        13
37.750        20
37.760        20
37.770         7
37.780        27
37.790        47
37.800        40
37.810        53
37.820        47
37.830        53
37.840        53
37.850        33
37.860        47
37.870        20
37.880        60
37.890        33
37.900        13
37.910        40
37.920         7
37.930        27
37.940        40
37.950        33
37.960        13
37.970        27
37.980         7
37.990        13
38.000        27
38.010        33
38.020        13
38.030        20
38.040        13
38.050        13
38.060        40
38.070         7
38.080        13
38.090        47
38.100        27
38.110        13
38.120        13
38.130         7
38.140        13
38.150        27
38.160        13
38.170         7
38.180        27
38.190        27
38.200        20
38.210        27
38.220        27
38.230        13
38.240        27
38.250        13
38.260        20
38.270         7
38.280         7
38.290         7
38.300        27
38.310         7
38.320        20
38.330        20
38.340        27
38.350        27
38.360         7
38.370         7
38.380        20
38.390        13
38.400        33
38.410        27
38.420        27
38.430        13
38.440        27
38.450        27
38.460        13
38.470        13
38.480        13
38.490        13
38.500        20
38.510        27
38.520         7
38.530         7
38.540        27
38.550        33
38.560        13
38.570         7
38.580        20
38.590        13
38.600        20
38.610        27
38.620        13
38.630        20
38.640        13
38.650        13
38.660        40
38.670        53
38.680        20
38.690        13
38.700        27
38.710        20
38.720         0
38.730         7
38.740        20
38.750        27
38.760        20
38.770        20
38.780        20
38.790        40
38.800        20
38.810         0
38.820        13
38.830        33
38.840        20
38.850        20
38.860        13
38.870         7
38.880         7
38.890        20
38.900        53
38.910        27
38.920        27
38.930        27
38.940        20
38.950         7
38.960        40
38.970        13
38.980         7
38.990        20
39.000        27
39.010         0
39.020        13
39.030        27
39.040        27
39.050        20
39.060        20
39.070         7
39.080        20
39.090        27
39.100        27
39.110        13
39.120         7
39.130        27
39.140        13
39.150        13
39.160        33
39.170         7
39.180        33
39.190        13
39.200        13
39.210        20
39.220        27
39.230        13
39.240         7
39.250        20
39.260        13
39.270        20
39.280        13
39.290        20
39.300        20
39.310        13
39.320        13
39.330         0
39.340         7
39.350        27
39.360        20
39.370        13
39.380        20
39.390         7
39.400        13
39.410        20
39.420        27
39.430        27
39.440        13
39.450        20
39.460        13
39.470        27
39.480        20
39.490        20
39.500        27
39.510        40
39.520         7
39.530        27
39.540        20
39.550        27
39.560        33
39.570        13
39.580         7
39.590        20
39.600         7
39.610        13
39.620         0
39.630        20
39.640        13
39.650        27
39.660        20
39.670        20
39.680        27
39.690        40
39.700         0
39.710         7
39.720        20
39.730        33
39.740        27
39.750        20
39.760        27
39.770        20
39.780        20
39.790        27
39.800         7
39.810        60
39.820        27
39.830        20
39.840        67
39.850        73
39.860        27
39.870        60
39.880       113
39.890        47
39.900        80
39.910       120
39.920        80
39.930        67
39.940        53
39.950        67
39.960        60
39.970        80
39.980        80
39.990       100
40.000        87
40.010        73
40.020        53
40.030       100
40.040        60
40.050       127
40.060        67
40.070        47
40.080        60
40.090        53
40.100        67
40.110        73
40.120        73
40.130        67
40.140        73
40.150        60
40.160        40
40.170        20
40.180        47
40.190        13
40.200        27
40.210        13
40.220        13
40.230        27
40.240        20
40.250         7
40.260        13
40.270        33
40.280        27
40.290        13
40.300        13
40.310        27
40.320        20
40.330        20
40.340        13
40.350        13
40.360        13
40.370         0
40.380        20
40.390        27
40.400        53
40.410         7
40.420         7
40.430        13
40.440        20
40.450        33
40.460        20
40.470        13
40.480        20
40.490        20
40.500        20
40.510        27
40.520        20
40.530        20
40.540        47
40.550        20
40.560        13
40.570        20
40.580        20
40.590         7
40.600         7
40.610        27
40.620        33
40.630        13
40.640        40
40.650        13
40.660         7
40.670         7
40.680        27
40.690        13
40.700        13
40.710        27
40.720        13
40.730        13
40.740        40
40.750        13
40.760        20
40.770        20
40.780        13
40.790         7
40.800        13
40.810        20
40.820        20
40.830        20
40.840        27
40.850        27
40.860        27
40.870        27
40.880        13
40.890        33
40.900        13
40.910        20
40.920        27
40.930         0
40.940        40
40.950        27
40.960        13
40.970        20
40.980        47
40.990        27
41.000         0
41.010        13
41.020        20
41.030         7
41.040        33
41.050        13
41.060         7
41.070        27
41.080        33
41.090        47
41.100        47
41.110        27
41.120         7
41.130        40
41.140         7
41.150        40
41.160         7
41.170        20
41.180         7
41.190         0
41.200        13
41.210        13
41.220         0
41.230         7
41.240        20
41.250        27
41.260        13
41.270        33
41.280        13
41.290        13
41.300        27
41.310        13
41.320        13
41.330        27
41.340        27
41.350        20
41.360         0
41.370        20
41.380        40
41.390        20
41.400        20
41.410        20
41.420        33
41.430         7
41.440        13
41.450         7
41.460        33
41.470        20
41.480        13
41.490        33
41.500        27
41.510        13
41.520        13
41.530        27
41.540        40
41.550        27
41.560        33
41.570        33
41.580        33
41.590        40
41.600        47
41.610        40
41.620        80
41.630        60
41.640        80
41.650       120
41.660       127
41.670       107
41.680       287
41.690       253
41.700       207
41.710       280
41.720       213
41.730       227
41.740       267
41.750       200
41.760       133
41.770       107
41.780        93
41.790       120
41.800        93
41.810        93
41.820       120
41.830       120
41.840       113
41.850       100
41.860        67
41.870        53
41.880        33
41.890        60
41.900        47
41.910        13
41.920        27
41.930        40
41.940         7
41.950        33
41.960        33
41.970        13
41.980        13
41.990        40
42.000        13
42.010         0
42.020        20
42.030        20
42.040        13
42.050        20
42.060         7
42.070        13
42.080        20
42.090        47
42.100        13
42.110        33
42.120        33
42.130         7
42.140        13
42.150        33
42.160        13
42.170         7
42.180         7
42.190         7
42.200        13
42.210        20
42.220        27
42.230        20
42.240         7
42.250        20
42.260        13
42.270        20
42.280        47
42.290         7
42.300        27
42.310        13
42.320        20
42.330        13
42.340        13
42.350        47
42.360        33
42.370        33
42.380         7
42.390         7
42.400        13
42.410         7
42.420        13
42.430        13
42.440        13
42.450         7
42.460        13
42.470        33
42.480        20
42.490        27
42.500        33
42.510        13
42.520         0
42.530         7
42.540         0
42.550        40
42.560        27
42.570        33
42.580        13
42.590        20
42.600         0
42.610        27
42.620        20
42.630         7
42.640         7
42.650        13
42.660         7
42.670        27
42.680        20
42.690        13
42.700         7
42.710        27
42.720        13
42.730        13
42.740        40
42.750        27
42.760         0
42.770        20
42.780        27
42.790        20
42.800        13
42.810         7
42.820         0
42.830        20
42.840         0
42.850        20
42.860        27
42.870         0
42.880         0
42.890        27
42.900        40
42.910        27
42.920        27
42.930        47
42.940         7
42.950        27
42.960        13
42.970         7
42.980        13
42.990        20
43.000        13
43.010        13
43.020        33
43.030        13
43.040         7
43.050        47
43.060        33
43.070        27
43.080        13
43.090        20
43.100        27
43.110        27
43.120        27
43.130        13
43.140         7
43.150         7
43.160         0
43.170         7
43.180        27
43.190         7
43.200        27
43.210        13
43.220        33
43.230        40
43.240        13
43.250        27
43.260        20
43.270        20
43.280        20
43.290        33
43.300        40
43.310         7
43.320        27
43.330        40
43.340        40
43.350        87
43.360        53
43.370        67
43.380        87
43.390        93
43.400        80
43.410       140
43.420       100
43.430        80
43.440       133
43.450        33
43.460        47
43.470        53
43.480        47
43.490        73
43.500        40
43.510        53
43.520        20
43.530        87
43.540        53
43.550        47
43.560        40
43.570        33
43.580        13
43.590        20
43.600        47
43.610        33
43.620        13
43.630        20
43.640        27
43.650         0
43.660        13
43.670        27
43.680        20
43.690         7
43.700         7
43.710        20
43.720        27
43.730        13
43.740         7
43.750        20
43.760        40
43.770        13
43.780        33
43.790        20
43.800        33
43.810        20
43.820        27
43.830        33
43.840         7
43.850        13
43.860         7
43.870         7
43.880        20
43.890        20
43.900        13
43.910        13
43.920        13
43.930        13
43.940        20
43.950        33
43.960        40
43.970        33
43.980        13
43.990        13
44.000        27
44.010        27
44.020        20
44.030         0
44.040         7
44.050        20
44.060        20
44.070         0
44.080         7
44.090        20
44.100        27
44.110        33
44.120         7
44.130        20
44.140        33
44.150        13
44.160        40
44.170        33
44.180        27
44.190        13
44.200        13
44.210        47
44.220        27
44.230         7
44.240        13
44.250        13
44.260         7
44.270        13
44.280        33
44.290        27
44.300        13
44.310         7
44.320        27
44.330        27
44.340        13
44.350         7
44.360         0
44.370        27
44.380        33
44.390        33
44.400        13
44.410         7
44.420        20
44.430         0
44.440         0
44.450        27
44.460        20
44.470        20
44.480         7
44.490        13
44.500        13
44.510        13
44.520        33
44.530        20
44.540        20
44.550        27
44.560        20
44.570        13
44.580        27
44.590         7
44.600        13
44.610        20
44.620        20
44.630        20
44.640         0
44.650        40
44.660         0
44.670         7
44.680         7
44.690        27
44.700         7
44.710         0
44.720         0
44.730        40
44.740        33
44.750        27
44.760        27
44.770        33
44.780        20
44.790        20
44.800        20
44.810        13
44.820        20
44.830        20
44.840        20
44.850        13
44.860        13
44.870        40
44.880        27
44.890         0
44.900        20
44.910        13
44.920         7
44.930        13
44.940        33
44.950        27
44.960        40
44.970        20
44.980        47
44.990        33
45.000         0
45.010         7
45.020        20
45.030         7
45.040        27
45.050        13
45.060        13
45.070        13
45.080        27
45.090        33
45.100         7
45.110        47
45.120        13
45.130        13
45.140        20
45.150         7
45.160        27
45.170         0
45.180        20
45.190        33
45.200        20
45.210        13
45.220        27
45.230        33
45.240        33
45.250        33
45.260        27
45.270         7
45.280        13
45.290        33
45.300        27
45.310        33
45.320        13
45.330         0
45.340        33
45.350        20
45.360        33
45.370         7
45.380        27
45.390        13
45.400        27
45.410        33
45.420        33
45.430         0
45.440        33
45.450        13
45.460        13
45.470         0
45.480        27
45.490        33
45.500        13
45.510        40
45.520        40
45.530         0
45.540        13
45.550        20
45.560         0
45.570        20
45.580        13
45.590        20
45.600        40
45.610        27
45.620        27
45.630        20
45.640        33
45.650        33
45.660        27
45.670        33
45.680        40
45.690        40
45.700        27
45.710        13
45.720        33
45.730        20
45.740        13
45.750        33
45.760        20
45.770        20
45.780        13
45.790        67
45.800        33
45.810        13
45.820        13
45.830        33
45.840        40
45.850        40
45.860        13
45.870        47
45.880        33
45.890        40
45.900        47
45.910        27
45.920        53
45.930        47
45.940        40
45.950        53
45.960        67
45.970        73
45.980        60
45.990        40
46.000        13
46.010        40
46.020        40
46.030        60
46.040        33
46.050        73
46.060        80
46.070        73
46.080        87
46.090        80
46.100       120
46.110       120
46.120       120
46.130       147
46.140       100
46.150       127
46.160       120
46.170       133
46.180        87
46.190       107
46.200       147
46.210       140
46.220       167
46.230       193
46.240       193
46.250       353
46.260       167
46.270       293
46.280       227
46.290       300
46.300       240
46.310       273
46.320       293
46.330       367
46.340       293
46.350       280
46.360       293
46.370       413
46.380       387
46.390       347
46.400       307
46.410       446
46.420       533
46.430       540
46.440       520
46.450       506
46.460       393
46.470       407
46.480       426
46.490       393
46.500       387
46.510       373
46.520       347
46.530       400
46.540       313
46.550       293
46.560       373
46.570       280
46.580       267
46.590       280
46.600       213
46.610       213
46.620       247
46.630       187
46.640       220
46.650       187
46.660       153
46.670       160
46.680       180
46.690       133
46.700       147
46.710       113
46.720        73
46.730        80
46.740       127
46.750        87
46.760       120
46.770        93
46.780        93
46.790       107
46.800        53
46.810        53
46.820        67
46.830        60
46.840        53
46.850        47
46.860        53
46.870        53
46.880        20
46.890        60
46.900        27
46.910        60
46.920        53
46.930        27
46.940        60
46.950        60
46.960        60
46.970        47
46.980        20
46.990        40
47.000        20
47.010        47
47.020        40
47.030        27
47.040        53
47.050        13
47.060        40
47.070        33
47.080        40
47.090        13
47.100        33
47.110        40
47.120        20
47.130        27
47.140        40
47.150        73
47.160         7
47.170         7
47.180        33
47.190        27
47.200        33
47.210         7
47.220         7
47.230        40
47.240        20
47.250        40
47.260        47
47.270        40
47.280        20
47.290        27
47.300        13
47.310        27
47.320        27
47.330        33
47.340        40
47.350         7
47.360        13
47.370        27
47.380        13
47.390        47
47.400        40
47.410        33
47.420        13
47.430        20
47.440        33
47.450        27
47.460         7
47.470        27
47.480        13
47.490        20
47.500        40
47.510        27
47.520         7
47.530        13
47.540         7
47.550        20
47.560        13
47.570        27
47.580        20
47.590         7
47.600        27
47.610        33
47.620        20
47.630        27
47.640         7
47.650         7
47.660        20
47.670         7
47.680        13
47.690        20
47.700        27
47.710        33
47.720         7
47.730         7
47.740        27
47.750         7
47.760        13
47.770        20
47.780        40
47.790        27
47.800        13
47.810        20
47.820        20
47.830        33
47.840        13
47.850         7
47.860        27
47.870        40
47.880         7
47.890        20
47.900        47
47.910         0
47.920        13
47.930        27
47.940        13
47.950        20
47.960         7
47.970         7
47.980         7
47.990        13
48.000        20
48.010        33
48.020        27
48.030         0
48.040        33
48.050        13
48.060        27
48.070        27
48.080        27
48.090        13
48.100        13
48.110        20
48.120        27
48.130        40
48.140        20
48.150         7
48.160         0
48.170         7
48.180         7
48.190        20
48.200         0
48.210        20
48.220        20
48.230        27
48.240         7
48.250         7
48.260        27
48.270        33
48.280        20
48.290        13
48.300        47
48.310         0
48.320        40
48.330        27
48.340        20
48.350        13
48.360        13
48.370         7
48.380        20
48.390         7
48.400        27
48.410        27
48.420        27
48.430        20
48.440         7
48.450        33
48.460        27
48.470         7
48.480         0
48.490        13
48.500        20
48.510        13
48.520         7
48.530        33
48.540         7
48.550        33
48.560         7
48.570        27
48.580        27
48.590        13
48.600        20
48.610        47
48.620         0
48.630        27
48.640        33
48.650        13
48.660        27
48.670        33
48.680         7
48.690        33
48.700        33
48.710        60
48.720        27
48.730        13
48.740         7
48.750         7
48.760        20
48.770        13
48.780        20
48.790        13
48.800        13
48.810         7
48.820         7
48.830        20
48.840         7
48.850        13
48.860        13
48.870        13
48.880        20
48.890        20
48.900        13
48.910         7
48.920         7
48.930         7
48.940        40
48.950         7
48.960        20
48.970        13
48.980         7
48.990        20
49.000        13
49.010         7
49.020         0
49.030        13
49.040        33
49.050         7
49.060        13
49.070        33
49.080        33
49.090        20
49.100        20
49.110        40
49.120        27
49.130        20
49.140        20
49.150         0
49.160        13
49.170        20
49.180         0
49.190         7
49.200         0
49.210        33
49.220         7
49.230        13
49.240        13
49.250        27
49.260        27
49.270        33
49.280        20
49.290         7
49.300        20
49.310        33
49.320        47
49.330        20
49.340        20
49.350        13
49.360        27
49.370        13
49.380        40
49.390        13
49.400        20
49.410        33
49.420        20
49.430         7
49.440         7
49.450        20
49.460         7
49.470         0
49.480        13
49.490        53
49.500        13
49.510         0
49.520        40
49.530        13
49.540        27
49.550         7
49.560        20
49.570        47
49.580         0
49.590         0
49.600         7
49.610         7
49.620        20
49.630         7
49.640        13
49.650        27
49.660        20
49.670        20
49.680        20
49.690       173
49.700        27
49.710         7
49.720        13
49.730        13
49.740         0
49.750        13
49.760        13
49.770        13
49.780        20
49.790         7
49.800        20
49.810        20
49.820        13
49.830         7
49.840        20
49.850        33
49.860        27
49.870        20
49.880        20
49.890        13
49.900        13
49.910        13
49.920        13
49.930        13
49.940         0
49.950         7
49.960        13
49.970        13
49.980        13
49.990        13
50.000         7
50.010        27
50.020         7
50.030         7
50.040        20
50.050        27
50.060        27
50.070         7
50.080         7
50.090        20
50.100        33
50.110        13
50.120        20
50.130         7
50.140         0
50.150         7
50.160        33
50.170        33
50.180        20
50.190        13
50.200        13
50.210         0
50.220        20
50.230        20
50.240        20
50.250        13
50.260        27
50.270         7
50.280        13
50.290        27
50.300        33
50.310        13
50.320        13
50.330         7
50.340        13
50.350        33
50.360         7
50.370         7
50.380        13
50.390        13
50.400        13
50.410        20
50.420         7
50.430         0
50.440        27
50.450         7
50.460        13
50.470        13
50.480        20
50.490        40
50.500         7
50.510        27
50.520        20
50.530        13
50.540        13
50.550        13
50.560        20
50.570        20
50.580         7
50.590        13
50.600         0
50.610        40
50.620        20
50.630         0
50.640         7
50.650        33
50.660        13
50.670        13
50.680        20
50.690        20
50.700        20
50.710        40
50.720        13
50.730        20
50.740         7
50.750         0
50.760         7
50.770        13
50.780        13
50.790        13
50.800        13
50.810        20
50.820         0
50.830        20
50.840        27
50.850         7
50.860        27
50.870         7
50.880        27
50.890        20
50.900        20
50.910        33
50.920        33
50.930        13
50.940        13
50.950         7
50.960         7
50.970         7
50.980         0
50.990        20
51.000        33
51.010        20
51.020         7
51.030        40
51.040        27
51.050        33
51.060        20
51.070        13
51.080         0
51.090         7
51.100        20
51.110        27
51.120         7
51.130        13
51.140         7
51.150        13
51.160        27
51.170         7
51.180         7
51.190        33
51.200         7
51.210        13
51.220        13
51.230         7
51.240        27
51.250         7
51.260        20
51.270        13
51.280        20
51.290        20
51.300         7
51.310        20
51.320        20
51.330         7
51.340        33
51.350         7
51.360        13
51.370         0
51.380        33
51.390        20
51.400        20
51.410         7
51.420         7
51.430        20
51.440        27
51.450        20
51.460        20
51.470         7
51.480        20
51.490         7
51.500        27
51.510        13
51.520         0
51.530        13
51.540         7
51.550        20
51.560         7
51.570        13
51.580        20
51.590         7
51.600        13
51.610        33
51.620         0
51.630        47
51.640        13
51.650         0
51.660        13
51.670        13
51.680        20
51.690         7
51.700        27
51.710         7
51.720         7
51.730        20
51.740        20
51.750        27
51.760        13
51.770        13
51.780        27
51.790        27
51.800         0
51.810        20
51.820        13
51.830         7
51.840         7
51.850        20
51.860         7
51.870        13
51.880        13
51.890         0
51.900        27
51.910        27
51.920        20
51.930         0
51.940        20
51.950        33
51.960         7
51.970         0
51.980         7
51.990        20
52.000        20
52.010         7
52.020        20
52.030         7
52.040         7
52.050        27
52.060        20
52.070        20
52.080        13
52.090        27
52.100        13
52.110        20
52.120        53
52.130        13
52.140         7
52.150        40
52.160         7
52.170        20
52.180        27
52.190        27
52.200        13
52.210        13
52.220         7
52.230         7
52.240         0
52.250        20
52.260        20
52.270        13
52.280        13
52.290         7
52.300         7
52.310         0
52.320        27
52.330        13
52.340        13
52.350        27
52.360         7
52.370        27
52.380        27
52.390         0
52.400        20
52.410        33
52.420         7
52.430        13
52.440         0
52.450        20
52.460        47
52.470        27
52.480        13
52.490        13
52.500        20
52.510        20
52.520         7
52.530        27
52.540        27
52.550        13
52.560         0
52.570        27
52.580        13
52.590        27
52.600        53
52.610        27
52.620        27
52.630        27
52.640        40
52.650        27
52.660        40
52.670        20
52.680         0
52.690        40
52.700        20
52.710        13
52.720        13
52.730        33
52.740        13
52.750        33
52.760        20
52.770        20
52.780        27
52.790         7
52.800        13
52.810        20
52.820        33
52.830         7
52.840        33
52.850        47
52.860         0
52.870        27
52.880         7
52.890        27
52.900        20
52.910         7
52.920        13
52.930         0
52.940         7
52.950         7
52.960         7
52.970         7
52.980         7
52.990        20
53.000         7
53.010         0
53.020        27
53.030         0
53.040        13
53.050        13
53.060         7
53.070         0
53.080        13
53.090        13
53.100        13
53.110        20
53.120        13
53.130        20
53.140         0
53.150         7
53.160         7
53.170         7
53.180        20
53.190        13
53.200        13
53.210         7
53.220        27
53.230        20
53.240         7
53.250        33
53.260        27
53.270         7
53.280        20
53.290         0
53.300        13
53.310        13
53.320        27
53.330        20
53.340         0
53.350        13
53.360        20
53.370        27
53.380        20
53.390        27
53.400        13
53.410        20
53.420        40
53.430        27
53.440        13
53.450        20
53.460        13
53.470        27
53.480        13
53.490         7
53.500        13
53.510        13
53.520        13
53.530        13
53.540        20
53.550        20
53.560        33
53.570         0
53.580         7
53.590        13
53.600        13
53.610         7
53.620         7
53.630        13
53.640         7
53.650        20
53.660        13
53.670         7
53.680         7
53.690        33
53.700        27
53.710         7
53.720        13
53.730         0
53.740         7
53.750        27
53.760         7
53.770        13
53.780        13
53.790        20
53.800         7
53.810        20
53.820        20
53.830         0
53.840        13
53.850        20
53.860        20
53.870         0
53.880         7
53.890        20
53.900        13
53.910        27
53.920        20
53.930        20
53.940         7
53.950        13
53.960        13
53.970        27
53.980         0
53.990         7
54.000         7
54.010        20
54.020        33
54.030         7
54.040        27
54.050        33
54.060         7
54.070        13
54.080        27
54.090        20
54.100         7
54.110        13
54.120         7
54.130        13
54.140        13
54.150         0
54.160         0
54.170        13
54.180        13
54.190         7
54.200        20
54.210        20
54.220        20
54.230         7
54.240        20
54.250        13
54.260         7
54.270        33
54.280        27
54.290        33
54.300        20
54.310        27
54.320        20
54.330         0
54.340        27
54.350        13
54.360         0
54.370        20
54.380        20
54.390         7
54.400        20
54.410         7
54.420        27
54.430        13
54.440         7
54.450         7
54.460        13
54.470        13
54.480        20
54.490        27
54.500        27
54.510        20
54.520        13
54.530        33
54.540         0
54.550        13
54.560        13
54.570        20
54.580        20
54.590        13
54.600         7
54.610        27
54.620        40
54.630        13
54.640        20
54.650         7
54.660        13
54.670        13
54.680         7
54.690        13
54.700        40
54.710         7
54.720        13
54.730        13
54.740        20
54.750        13
54.760        27
54.770        27
54.780        13
54.790         7
54.800         7
54.810        13
54.820         0
54.830        13
54.840         0
54.850        27
54.860         7
54.870        27
54.880         0
54.890        33
54.900        20
54.910         0
54.920        20
54.930        13
54.940        33
54.950        33
54.960         7
54.970        13
54.980        13
54.990         7
55.000        20
55.010         7
55.020         7
55.030        20
55.040        13
55.050        13
55.060        40
55.070        27
55.080        13
55.090        20
55.100         7
55.110        13
55.120         0
55.130        13
55.140        20
55.150        60
55.160        33
55.170        13
55.180        27
55.190        27
55.200         0
55.210         7
55.220        13
55.230         7
55.240         0
55.250         7
55.260         7
55.270        13
55.280        40
55.290        13
55.300        13
55.310         7
55.320         7
55.330         7
55.340         0
55.350        13
55.360         7
55.370        20
55.380        20
55.390         7
55.400         0
55.410        20
55.420         0
55.430         7
55.440        13
55.450         7
55.460        20
55.470        13
55.480         7
55.490        20
55.500        13
55.510         7
55.520        20
55.530         0
55.540        13
55.550         7
55.560        20
55.570        13
55.580         0
55.590         0
55.600        40
55.610        20
55.620        13
55.630         0
55.640         7
55.650        33
55.660        27
55.670        20
55.680         7
55.690        13
55.700         0
55.710        20
55.720         0
55.730         0
55.740        13
55.750        13
55.760        20
55.770        47
55.780        13
55.790        27
55.800        13
55.810        27
55.820         7
55.830        20
55.840         7
55.850         7
55.860        13
55.870         0
55.880        20
55.890         7
55.900         0
55.910         7
55.920        13
55.930        27
55.940        13
55.950        27
55.960        13
55.970         0
55.980        20
55.990         7
56.000         7
56.010        13
56.020         7
56.030        27
56.040        20
56.050        20
56.060         0
56.070         7
56.080        20
56.090         7
56.100         7
56.110         7
56.120         7
56.130         7
56.140        27
56.150        33
56.160        20
56.170        20
56.180        20
56.190        20
56.200        20
56.210        27
56.220        20
56.230         7
56.240        20
56.250         7
56.260        27
56.270        13
56.280        13
56.290        13
56.300         0
56.310        13
56.320        13
56.330        20
56.340        13
56.350        20
56.360         7
56.370         7
56.380         7
56.390        20
56.400        20
56.410        20
56.420        13
56.430        27
56.440        13
56.450         7
56.460        20
56.470         7
56.480         7
56.490        20
56.500        13
56.510         7
56.520        13
56.530         7
56.540         7
56.550        20
56.560         7
56.570         0
56.580        33
56.590        13
56.600        13
56.610        13
56.620        13
56.630        20
56.640         0
56.650        27
56.660         7
56.670        20
56.680        13
56.690        13
56.700        20
56.710        40
56.720         0
56.730        13
56.740        20
56.750         7
56.760        27
56.770         0
56.780         7
56.790         7
56.800        27
56.810         7
56.820         7
56.830        13
56.840        20
56.850        13
56.860        20
56.870        20
56.880        27
56.890        20
56.900         7
56.910        13
56.920         0
56.930        13
56.940        13
56.950        33
56.960        13
56.970        20
56.980         7
56.990        13
57.000        13
57.010         7
57.020         0
57.030        20
57.040         7
57.050        13
57.060        20
57.070         0
57.080        27
57.090        33
57.100        13
57.110        13
57.120        27
57.130        13
57.140        27
57.150        13
57.160        13
57.170        33
57.180        20
57.190        20
57.200         0
57.210        13
57.220         0
57.230        20
57.240        33
57.250        13
57.260         7
57.270         0
57.280        33
57.290        20
57.300        20
57.310         0
57.320        20
57.330        13
57.340        27
57.350        20
57.360        40
57.370        33
57.380        27
57.390        40
57.400        40
57.410        67
57.420        40
57.430        27
57.440        40
57.450        60
57.460        40
57.470        80
57.480        73
57.490        87
57.500       160
57.510       293
57.520       187
57.530       260
57.540       240
57.550       267
57.560       253
57.570       207
57.580       273
57.590       160
57.600        87
57.610        87
57.620        53
57.630        80
57.640        87
57.650        80
57.660        87
57.670       113
57.680       127
57.690       100
57.700       147
57.710       133
57.720       160
57.730       147
57.740       107
57.750       127
57.760        80
57.770        20
57.780        13
57.790        33
57.800        33
57.810        33
57.820        40
57.830        20
57.840        40
57.850        27
57.860        40
57.870        27
57.880        13
57.890        33
57.900        33
57.910        20
57.920        13
57.930        20
57.940        20
57.950        33
57.960        20
57.970        47
57.980        13
57.990        27
58.000        20
58.010        13
58.020        13
58.030        40
58.040        27
58.050        20
58.060        20
58.070        27
58.080         7
58.090        40
58.100        20
58.110        13
58.120        13
58.130        13
58.140         0
58.150        20
58.160        20
58.170        20
58.180        27
58.190        13
58.200         7
58.210        20
58.220        13
58.230        27
58.240        27
58.250        27
58.260         7
58.270         7
58.280        33
58.290        40
58.300        13
58.310         7
58.320        27
58.330        13
58.340        27
58.350         0
58.360        20
58.370         0
58.380        33
58.390         0
58.400        13
58.410        20
58.420        13
58.430        33
58.440        20
58.450        13
58.460        20
58.470         7
58.480        13
58.490        33
58.500        33
58.510        20
58.520        27
58.530        13
58.540        27
58.550        40
58.560        13
58.570        27
58.580        20
58.590         0
58.600        13
58.610         7
58.620        13
58.630         7
58.640        13
58.650        13
58.660        13
58.670        27
58.680         7
58.690        13
58.700        13
58.710         0
58.720        27
58.730        20
58.740         7
58.750        27
58.760        13
58.770        27
58.780        40
58.790        13
58.800        20
58.810        13
58.820         7
58.830        27
58.840         0
58.850         7
58.860        13
58.870         7
58.880         7
58.890         7
58.900        20
58.910        33
58.920        13
58.930         7
58.940        27
58.950        13
58.960        20
58.970         0
58.980        13
58.990        20
59.000        27
59.010         7
59.020        13
59.030        13
59.040         7
59.050         7
59.060        33
59.070        13
59.080         7
59.090        20
59.100        20
59.110         7
59.120        20
59.130        13
59.140        13
59.150         7
59.160        20
59.170        27
59.180         7
59.190        20
59.200        27
59.210         7
59.220         0
59.230        13
59.240        27
59.250         0
59.260         7
59.270        13
59.280         0
59.290         7
59.300        13
59.310        27
59.320        13
59.330        13
59.340        27
59.350        20
59.360        13
59.370         0
59.380         7
59.390         0
59.400        27
59.410        13
59.420        20
59.430         7
59.440        20
59.450        13
59.460        20
59.470         7
59.480        53
59.490        27
59.500         0
59.510        27
59.520         0
59.530        40
59.540        40
59.550         7
59.560        20
59.570        13
59.580         7
59.590         7
59.600        13
59.610        13
59.620        33
59.630        20
59.640        13
59.650        33
59.660         7
59.670        27
59.680        20
59.690        13
59.700        13
59.710        33
59.720         7
59.730         7
59.740        27
59.750        20
59.760        20
59.770        27
59.780         7
59.790        27
59.800        40
59.810        20
59.820        20
59.830         7
59.840        20
59.850         0
59.860        13
59.870        13
59.880        13
59.890         0
59.900        13
59.910         0
59.920         7
59.930        13
59.940        13
59.950        33
59.960         7
59.970        33
59.980         7
59.990        27
60.000        20
