20.000        40
20.010        40
20.020        40
20.030        67
20.040        40
20.050        13
20.060        33
20.070        53
20.080        40
20.090        47
20.100        53
20.110        40
20.120        20
20.130        40
20.140        53
20.150        40
20.160        33
20.170        80
20.180        40
20.190        53
20.200        33
20.210        40
20.220        53
20.230        20
20.240        33
20.250        53
20.260        33
20.270        13
20.280        40
20.290        40
20.300        20
20.310        40
20.320        13
20.330        27
20.340        47
20.350        33
20.360        60
20.370        53
20.380        33
20.390        33
20.400        53
20.410        47
20.420        47
20.430        33
20.440        33
20.450        60
20.460        40
20.470        80
20.480        60
20.490        27
20.500        20
20.510        93
20.520        40
20.530        40
20.540        40
20.550        27
20.560        67
20.570        60
20.580        33
20.590        47
20.600        47
20.610        47
20.620        27
20.630        27
20.640        33
20.650        67
20.660        33
20.670        27
20.680        47
20.690        47
20.700        40
20.710        13
20.720        53
20.730        40
20.740        20
20.750        67
20.760        40
20.770        53
20.780        47
20.790        40
20.800        27
20.810        60
20.820        33
20.830        33
20.840        60
20.850        47
20.860        67
20.870        40
20.880        53
20.890        47
20.900        53
20.910        20
20.920        27
20.930        53
20.940        53
20.950         7
20.960        40
20.970        27
20.980        40
20.990        33
21.000        13
21.010        93
21.020        20
21.030        40
21.040        20
21.050        20
21.060        47
21.070        40
21.080        73
21.090        20
21.100        80
21.110        13
21.120        47
21.130        40
21.140        33
21.150        53
21.160        27
21.170        27
21.180        47
21.190        33
21.200        53
21.210        20
21.220        33
21.230        33
21.240        33
21.250        33
21.260        40
21.270        33
21.280        27
21.290        27
21.300        47
21.310        40
21.320        40
21.330        67
21.340        47
21.350        13
21.360        47
21.370        33
21.380        33
21.390        47
21.400        27
21.410        53
21.420        40
21.430        27
21.440        47
21.450        13
21.460        40
21.470        33
21.480        40
21.490        13
21.500        40
21.510        40
21.520        33
21.530        20
21.540        47
21.550        27
21.560        47
21.570        60
21.580        47
21.590        33
21.600        33
21.610        27
21.620        47
21.630        53
21.640        27
21.650        60
21.660        67
21.670        33
21.680        67
21.690        40
21.700        13
21.710        27
21.720        40
21.730        20
21.740        33
21.750        27
21.760        53
21.770        53
21.780        33
21.790        33
21.800        27
21.810        27
21.820        40
21.830        53
21.840        47
21.850        47
21.860        47
21.870        60
21.880        40
21.890        27
21.900        20
21.910        40
21.920        40
21.930        13
21.940        40
21.950        47
21.960        40
21.970        27
21.980        40
21.990        33
22.000        47
22.010        40
22.020        33
22.030        53
22.040        20
22.050        20
22.060        33
22.070        60
22.080        47
22.090        33
22.100        47
22.110        27
22.120        33
22.130        47
22.140        40
22.150        33
22.160        40
22.170        47
22.180        40
22.190        60
22.200        40
22.210        73
22.220        40
22.230        27
22.240        60
22.250        27
22.260        27
22.270        53
22.280        40
22.290        20
22.300        20
22.310        47
22.320        33
22.330        47
22.340        53
22.350        27
22.360        47
22.370        20
22.380        73
22.390        53
22.400        60
22.410        73
22.420        47
22.430        40
22.440        53
22.450        67
22.460        40
22.470        53
22.480        53
22.490        80
22.500        53
22.510        53
22.520       107
22.530       100
22.540        67
22.550        33
22.560       100
22.570        93
22.580       120
22.590        73
22.600       107
22.610       113
22.620       127
22.630        87
22.640       153
22.650       167
22.660       107
22.670       153
22.680       187
22.690       140
22.700       200
22.710       153
22.720       173
22.730       160
22.740       127
22.750       147
22.760       207
22.770       193
22.780       120
22.790       113
22.800       113
22.810       120
22.820        73
22.830        93
22.840        93
22.850       107
22.860        47
22.870       100
22.880        87
22.890        93
22.900        73
22.910        73
22.920        53
22.930        80
22.940        93
22.950       107
22.960        53
22.970        47
22.980        33
22.990        67
23.000        53
23.010        93
23.020        47
23.030        27
23.040        47
23.050        47
23.060        60
23.070        33
23.080        27
23.090        27
23.100        73
23.110       107
23.120        20
23.130        53
23.140        73
23.150         7
23.160        27
23.170        20
23.180        40
23.190        47
23.200        33
23.210        47
23.220        40
23.230        53
23.240        80
23.250        20
23.260        33
23.270        47
23.280        40
23.290        20
23.300        47
23.310        27
23.320        47
23.330        53
23.340        33
23.350        40
23.360        33
23.370        47
23.380        33
23.390        60
23.400        40
23.410        40
23.420        40
23.430        60
23.440        20
23.450        27
23.460        33
23.470        53
23.480        27
23.490        53
23.500        20
23.510        33
23.520        47
23.530        73
23.540        53
23.550        40
23.560        87
23.570        40
23.580        27
23.590        27
23.600        53
23.610        53
23.620        53
23.630        27
23.640        87
23.650        47
23.660        20
23.670        27
23.680        27
23.690        33
23.700        20
23.710        40
23.720        27
23.730        47
23.740        20
23.750        40
23.760        40
23.770        27
23.780        47
23.790        27
23.800        20
23.810        33
23.820        53
23.830        47
23.840        27
23.850        27
23.860        20
23.870         7
23.880        20
23.890        67
23.900        47
23.910        27
23.920        33
23.930        47
23.940        27
23.950        20
23.960        33
23.970        53
23.980        47
23.990        40
24.000        53
24.010        20
24.020        67
24.030        33
24.040        40
24.050        47
24.060        53
24.070        47
24.080        47
24.090        33
24.100        33
24.110        20
24.120        60
24.130        53
24.140        27
24.150        47
24.160        40
24.170        20
24.180        27
24.190        27
24.200        20
24.210        13
24.220        27
24.230        33
24.240        20
24.250        73
24.260        60
24.270        20
24.280         7
24.290        20
24.300        53
24.310        27
24.320        33
24.330        40
24.340        40
24.350         7
24.360        13
24.370        20
24.380        27
24.390        33
24.400        20
24.410        27
24.420        20
24.430        47
24.440        33
24.450        33
24.460        33
24.470        33
24.480         7
24.490        40
24.500        60
24.510        13
24.520        33
24.530        33
24.540         7
24.550        40
24.560        47
24.570        40
24.580        20
24.590        40
24.600        47
24.610         7
24.620        20
24.630        33
24.640        20
24.650        27
24.660        27
24.670        20
24.680         7
24.690        33
24.700        27
24.710         7
24.720        13
24.730        20
24.740        47
24.750        27
24.760        20
24.770        20
24.780        13
24.790        13
24.800        47
24.810        33
24.820        40
24.830         7
24.840        33
24.850        47
24.860        33
24.870        53
24.880        53
24.890        27
24.900        27
24.910        40
24.920        33
24.930        27
24.940        27
24.950        20
24.960        27
24.970        13
24.980        20
24.990        20
25.000        40
25.010        27
25.020        27
25.030        27
25.040        33
25.050        47
25.060        33
25.070        33
25.080        53
25.090        40
25.100        20
25.110        33
25.120        27
25.130        53
25.140        27
25.150        27
25.160        20
25.170        60
25.180        40
25.190        47
25.200        40
25.210        47
25.220        13
25.230        33
25.240        13
25.250        13
25.260        40
25.270        27
25.280        33
25.290        20
25.300        33
25.310        40
25.320        33
25.330        33
25.340        27
25.350        40
25.360         7
25.370        27
25.380        67
25.390        40
25.400         7
25.410         7
25.420        27
25.430        27
25.440        27
25.450        13
25.460        20
25.470        20
25.480        13
25.490        20
25.500        27
25.510        27
25.520        27
25.530        20
25.540        40
25.550        53
25.560        27
25.570         0
25.580        27
25.590        27
25.600        27
25.610        27
25.620        33
25.630        67
25.640        60
25.650        33
25.660        33
25.670        47
25.680        33
25.690        47
25.700        47
25.710        47
25.720        33
25.730        27
25.740        27
25.750        33
25.760        33
25.770        13
25.780        33
25.790        47
25.800        27
25.810        33
25.820        27
25.830        13
25.840        20
25.850        33
25.860         7
25.870        33
25.880        33
25.890        40
25.900        47
25.910         7
25.920         7
25.930        53
25.940        13
25.950        40
25.960        33
25.970        27
25.980        27
25.990        33
26.000        53
26.010        33
26.020        13
26.030        27
26.040        20
26.050        40
26.060        27
26.070        27
26.080        60
26.090        13
26.100        27
26.110        13
26.120        20
26.130        20
26.140        20
26.150        33
26.160        33
26.170        33
26.180        40
26.190        27
26.200        13
26.210         7
26.220        20
26.230        20
26.240        40
26.250        33
26.260        53
26.270        27
26.280        27
26.290        27
26.300        27
26.310        33
26.320        13
26.330        40
26.340        40
26.350        47
26.360        20
26.370        47
26.380        47
26.390        40
26.400        33
26.410        33
26.420         7
26.430        53
26.440        53
26.450        47
26.460        13
26.470        40
26.480        47
26.490         0
26.500        13
26.510        20
26.520        13
26.530        40
26.540        20
26.550        53
26.560        33
26.570        13
26.580        27
26.590        40
26.600        27
26.610         7
26.620        47
26.630        47
26.640        27
26.650        20
26.660        27
26.670         7
26.680        20
26.690        33
26.700        40
26.710        33
26.720        33
26.730        13
26.740        47
26.750        20
26.760        27
26.770         7
26.780        53
26.790        27
26.800        67
26.810        40
26.820        53
26.830        33
26.840        53
26.850        27
26.860        27
26.870        33
26.880        27
26.890        27
26.900        27
26.910        20
26.920        20
26.930        33
26.940        27
26.950        33
26.960        53
26.970        13
26.980        20
26.990        27
27.000        20
27.010         7
27.020        27
27.030        33
27.040        27
27.050        33
27.060        47
27.070        20
27.080         7
27.090        40
27.100        47
27.110        13
27.120        47
27.130        53
27.140        53
27.150        20
27.160        47
27.170        13
27.180        27
27.190        13
27.200         7
27.210        33
27.220        40
27.230         7
27.240        13
27.250        27
27.260         7
27.270        40
27.280        13
27.290        20
27.300        40
27.310        47
27.320        40
27.330        53
27.340        20
27.350        13
27.360        33
27.370        13
27.380        13
27.390        40
27.400        27
27.410        33
27.420        33
27.430        40
27.440        47
27.450        20
27.460        27
27.470        20
27.480        13
27.490        13
27.500        20
27.510        20
27.520        27
27.530        20
27.540        40
27.550        20
27.560        40
27.570        40
27.580        13
27.590        33
27.600        20
27.610         7
27.620        27
27.630        33
27.640        20
27.650        27
27.660         7
27.670        40
27.680        20
27.690        33
27.700        20
27.710        20
27.720        33
27.730         0
27.740        20
27.750        27
27.760        33
27.770        53
27.780        20
27.790        33
27.800         7
27.810         7
27.820        20
27.830        20
27.840        13
27.850        40
27.860         7
27.870        13
27.880        20
27.890        20
27.900        27
27.910         7
27.920        33
27.930        27
27.940        40
27.950        13
27.960        27
27.970        20
27.980        13
27.990        40
28.000        40
28.010        20
28.020        27
28.030        40
28.040        33
28.050         7
28.060        20
28.070        20
28.080        13
28.090        47
28.100        60
28.110        20
28.120         7
28.130        20
28.140         7
28.150        33
28.160        33
28.170        20
28.180        60
28.190        20
28.200        27
28.210        33
28.220        13
28.230        20
28.240        20
28.250         0
28.260        13
28.270         7
28.280        40
28.290        27
28.300        47
28.310        27
28.320        20
28.330        33
28.340        20
28.350        20
28.360         0
28.370        27
28.380        40
28.390        40
28.400        27
28.410        27
28.420        33
28.430        20
28.440         7
28.450        20
28.460        33
28.470        20
28.480        33
28.490        33
28.500        33
28.510        13
28.520        13
28.530        20
28.540        40
28.550         7
28.560        33
28.570        40
28.580        60
28.590        27
28.600        47
28.610        33
28.620        27
28.630        40
28.640        27
28.650        20
28.660        13
28.670        27
28.680        33
28.690        33
28.700        27
28.710        40
28.720        13
28.730        33
28.740        27
28.750        53
28.760        27
28.770        33
28.780        27
28.790        33
28.800        33
28.810        60
28.820        27
28.830        47
28.840        53
28.850        40
28.860        33
28.870        20
28.880        13
28.890        27
28.900        67
28.910        47
28.920        33
28.930        20
28.940        13
28.950        53
28.960        20
28.970        27
28.980        33
28.990        33
29.000        33
29.010        13
29.020        13
29.030        33
29.040        53
29.050        33
29.060        40
29.070        47
29.080        13
29.090        33
29.100        20
29.110        47
29.120        20
29.130        27
29.140        27
29.150        20
29.160        33
29.170        40
29.180        27
29.190        33
29.200        47
29.210        27
29.220        13
29.230        73
29.240        27
29.250        53
29.260        20
29.270        20
29.280        27
29.290        13
29.300        27
29.310        20
29.320        13
29.330        20
29.340        40
29.350        20
29.360        20
29.370        13
29.380         7
29.390        13
29.400        13
29.410        20
29.420        13
29.430        13
29.440        20
29.450        27
29.460        33
29.470        27
29.480        27
29.490        33
29.500        13
29.510        33
29.520        20
29.530         7
29.540        27
29.550        33
29.560        20
29.570        27
29.580        27
29.590        40
29.600        40
29.610         7
29.620        27
29.630        33
29.640        20
29.650        33
29.660        40
29.670        53
29.680         7
29.690        33
29.700        27
29.710        27
29.720        20
29.730        13
29.740        27
29.750         7
29.760        13
29.770        13
29.780        53
29.790        13
29.800         7
29.810        67
29.820        20
29.830         0
29.840        20
29.850        20
29.860        33
29.870         7
29.880        40
29.890        20
29.900        20
29.910        27
29.920        20
29.930        20
29.940        13
29.950        13
29.960        27
29.970        13
29.980        33
29.990         0
30.000        20
30.010        53
30.020        27
30.030        40
30.040        13
30.050        47
30.060        20
30.070        47
30.080        40
30.090        40
30.100        20
30.110        33
30.120        27
30.130        27
30.140        40
30.150         7
30.160        20
30.170        20
30.180        33
30.190        20
30.200        20
30.210        47
30.220        27
30.230        40
30.240        33
30.250        13
30.260        13
30.270        20
30.280        33
30.290        20
30.300         7
30.310        33
30.320        13
30.330        27
30.340        27
30.350        20
30.360        20
30.370        40
30.380        20
30.390        27
30.400        60
30.410        20
30.420        33
30.430         7
30.440        20
30.450        13
30.460        20
30.470        27
30.480        20
30.490         7
30.500        33
30.510        20
30.520        27
30.530        40
30.540        13
30.550        13
30.560        13
30.570        33
30.580        33
30.590         7
30.600        13
30.610        27
30.620        33
30.630        13
30.640        60
30.650        20
30.660        40
30.670        13
30.680        13
30.690        20
30.700        13
30.710        27
30.720        40
30.730        27
30.740        20
30.750        20
30.760        20
30.770        20
30.780        27
30.790        20
30.800        27
30.810         0
30.820        33
30.830        13
30.840        13
30.850        20
30.860        13
30.870        13
30.880        73
30.890        53
30.900        13
30.910         0
30.920         0
30.930         0
30.940        27
30.950        20
30.960         7
30.970         7
30.980        33
30.990        33
31.000        20
31.010        60
31.020        13
31.030        20
31.040        33
31.050         7
31.060         0
31.070        47
31.080         7
31.090        13
31.100        40
31.110        40
31.120         7
31.130        27
31.140         7
31.150         7
31.160        27
31.170        47
31.180        13
31.190        13
31.200         7
31.210        27
31.220         7
31.230        27
31.240        27
31.250        20
31.260        47
31.270         7
31.280        27
31.290        27
31.300        33
31.310        20
31.320        13
31.330        33
31.340        13
31.350         7
31.360        53
31.370        60
31.380         7
31.390        20
31.400        27
31.410        20
31.420        27
31.430        20
31.440        20
31.450         0
31.460        27
31.470        20
31.480        33
31.490        33
31.500        40
31.510        40
31.520         7
31.530        13
31.540         7
31.550        27
31.560        47
31.570        27
31.580        13
31.590         7
31.600        20
31.610        47
31.620        33
31.630        20
31.640        20
31.650        27
31.660        27
31.670        27
31.680        13
31.690         0
31.700        33
31.710        20
31.720        33
31.730        27
31.740        20
31.750        20
31.760        13
31.770        20
31.780        27
31.790        20
31.800        13
31.810        40
31.820         7
31.830         7
31.840        20
31.850        20
31.860        27
31.870         7
31.880        27
31.890        33
31.900        13
31.910        27
31.920        27
31.930        13
31.940        47
31.950        13
31.960        13
31.970        27
31.980        20
31.990        67
32.000        20
32.010        33
32.020        33
32.030        33
32.040        33
32.050        40
32.060        27
32.070        27
32.080        53
32.090        53
32.100         0
32.110        60
32.120        40
32.130        40
32.140        47
32.150        47
32.160        47
32.170        60
32.180        53
32.190        87
32.200        40
32.210        47
32.220        40
32.230        93
32.240        27
32.250        80
32.260        80
32.270        93
32.280        80
32.290        93
32.300        40
32.310        60
32.320        80
32.330        87
32.340       113
32.350        73
32.360       140
32.370       127
32.380       187
32.390       147
32.400       140
32.410       180
32.420       140
32.430       140
32.440        87
32.450       167
32.460       100
32.470        73
32.480       120
32.490       113
32.500       113
32.510        80
32.520       113
32.530       113
32.540        80
32.550        47
32.560       127
32.570        47
32.580        93
32.590        53
32.600        40
32.610        67
32.620       107
32.630        13
32.640        33
32.650        20
32.660        13
32.670        40
32.680        47
32.690        40
32.700        27
32.710        33
32.720        40
32.730        27
32.740        20
32.750        33
32.760        13
32.770        27
32.780        20
32.790        53
32.800        13
32.810        40
32.820        20
32.830        33
32.840        27
32.850        33
32.860         7
32.870        47
32.880        20
32.890        13
32.900        27
32.910        53
32.920        20
32.930        20
32.940        27
32.950        20
32.960        20
32.970        33
32.980        53
32.990         7
33.000        20
33.010        20
33.020        13
33.030        13
33.040        13
33.050         7
33.060        13
33.070        33
33.080        13
33.090        20
33.100        13
33.110        40
33.120        20
33.130        20
33.140        20
33.150        47
33.160        27
33.170         7
33.180        20
33.190        33
33.200        13
33.210        20
33.220        47
33.230         7
33.240        20
33.250        20
33.260        20
33.270        53
33.280        13
33.290        33
33.300        13
33.310        13
33.320         7
33.330        33
33.340        33
33.350        13
33.360        27
33.370        20
33.380        13
33.390        20
33.400        13
33.410        27
33.420         7
33.430         7
33.440        20
33.450        27
33.460         7
33.470        20
33.480         7
33.490        27
33.500        13
33.510        27
33.520        13
33.530         0
33.540        20
33.550        27
33.560        33
33.570        13
33.580        27
33.590        20
33.600        13
33.610         7
33.620        20
33.630        13
33.640         7
33.650        27
33.660        27
33.670        13
33.680        47
33.690        27
33.700        47
33.710        20
33.720        60
33.730        20
33.740        20
33.750        20
33.760        27
33.770        47
33.780        27
33.790        27
33.800        27
33.810        47
33.820         0
33.830        13
33.840        20
33.850        20
33.860         7
33.870        33
33.880        20
33.890        20
33.900        27
33.910        27
33.920        20
33.930        13
33.940        27
33.950        33
33.960         7
33.970         7
33.980        27
33.990        33
34.000        33
34.010        33
34.020        47
34.030         7
34.040         7
34.050        20
34.060        40
34.070        20
34.080        27
34.090         7
34.100         0
34.110        33
34.120        27
34.130        27
34.140         7
34.150         7
34.160        13
34.170        20
34.180        13
34.190        20
34.200        13
34.210        40
34.220         7
34.230        40
34.240         0
34.250        20
34.260        13
34.270        13
34.280        20
34.290        13
34.300        33
34.310        20
34.320        40
34.330        13
34.340        27
34.350         7
34.360        13
34.370        47
34.380         7
34.390         7
34.400        20
34.410        27
34.420        13
34.430        47
34.440        33
34.450        20
34.460         7
34.470        13
34.480         0
34.490        27
34.500        20
34.510        27
34.520        20
34.530        13
34.540        20
34.550        27
34.560         0
34.570        20
34.580        40
34.590        27
34.600        40
34.610        13
34.620        20
34.630        13
34.640        27
34.650        33
34.660        20
34.670         7
34.680        33
34.690        27
34.700        40
34.710         7
34.720        20
34.730        40
34.740        33
34.750         0
34.760        13
34.770         0
34.780        13
34.790        53
34.800         7
34.810         7
34.820        60
34.830        13
34.840        20
34.850        20
34.860        27
34.870         7
34.880        27
34.890         7
34.900        27
34.910        20
34.920        53
34.930        27
34.940        40
34.950        20
34.960        20
34.970         7
34.980        27
34.990        13
35.000        40
35.010         7
35.020         0
35.030        13
35.040        20
35.050        40
35.060        20
35.070        27
35.080        33
35.090        20
35.100        53
35.110        73
35.120        53
35.130       100
35.140       107
35.150        87
35.160       120
35.170       193
35.180       153
35.190       107
35.200       100
35.210       113
35.220        93
35.230        80
35.240        73
35.250       127
35.260       153
35.270        80
35.280        60
35.290        13
35.300        40
35.310        40
35.320        53
35.330        33
35.340         7
35.350        27
35.360         7
35.370        20
35.380        27
35.390        13
35.400         7
35.410        27
35.420         7
35.430        27
35.440        40
35.450        27
35.460        20
35.470         7
35.480        13
35.490        27
35.500         0
35.510        47
35.520        13
35.530        13
35.540        40
35.550        40
35.560        13
35.570        20
35.580         7
35.590        33
35.600        27
35.610        20
35.620        20
35.630        20
35.640        20
35.650        20
35.660        33
35.670        20
35.680        13
35.690        40
35.700        20
35.710        20
35.720        13
35.730         7
35.740        33
35.750        47
35.760        33
35.770        27
35.780        13
35.790        13
35.800        20
35.810        20
35.820        27
35.830        13
35.840         7
35.850        27
35.860        27
35.870         7
35.880        20
35.890        20
35.900        13
35.910         7
35.920        27
35.930        33
35.940        13
35.950        40
35.960        33
35.970        27
35.980        20
35.990        13
36.000        20
36.010        13
36.020        13
36.030        20
36.040        13
36.050        20
36.060         0
36.070        20
36.080        20
36.090        13
36.100        13
36.110        20
36.120         0
36.130        13
36.140        13
36.150         0
36.160         7
36.170        13
36.180        27
36.190        27
36.200        27
36.210         7
36.220        20
36.230        27
36.240        13
36.250        40
36.260        20
36.270         7
36.280        20
36.290        47
36.300        13
36.310        53
36.320        27
36.330        33
36.340        13
36.350         7
36.360        33
36.370        13
36.380        13
36.390         7
36.400        20
36.410         0
36.420        27
36.430        27
36.440        27
36.450        13
36.460        27
36.470        53
36.480         7
36.490        13
36.500        13
36.510        27
36.520        40
36.530        13
36.540        20
36.550         7
36.560        20
36.570        13
36.580        27
36.590         0
36.600        20
36.610        33
36.620        13
36.630        13
36.640        20
36.650        27
36.660        13
36.670        13
36.680        33
36.690        13
36.700        27
36.710        13
36.720        13
36.730        13
36.740        13
36.750        27
36.760        27
36.770        13
36.780         7
36.790         7
36.800        27
36.810         7
36.820        27
36.830        33
36.840        27
36.850        20
36.860        33
36.870        13
36.880        20
36.890        20
36.900        20
36.910        20
36.920        20
36.930         7
36.940        27
36.950        47
36.960         7
36.970        20
36.980         7
36.990        33
37.000        47
37.010        33
37.020        13
37.030        27
37.040        13
37.050        33
37.060        20
37.070        13
37.080        20
37.090        33
37.100        20
37.110        20
37.120        20
37.130         0
37.140        20
37.150        13
37.160        27
37.170        40
37.180        20
37.190        20
37.200        20
37.210         0
37.220        33
37.230        13
37.240         0
37.250        27
37.260        20
37.270        13
37.280        13
37.290        13
37.300        33
37.310        13
37.320        33
37.330        53
37.340        27
37.350        27
37.360        13
37.370         0
37.380        20
37.390        20
37.400        20
37.410        20
37.420        13
37.430         7
37.440        40
37.450        13
37.460        13
37.470        20
37.480        33
37.490        20
37.500        33
37.510        13
37.520        27
37.530        20
37.540        20
37.550        20
37.560        20
37.570         7
37.580        13
37.590        33
37.600        13
37.610        13
37.620        20
37.630         7
37.640        20
37.650        33
37.660        33
37.670        47
37.680         0
37.690        20
37.700        20
37.710        47
37.720        33
37.730        13
37.740        27
37.750        13
37.760        40
37.770        47
37.780        47
37.790        27
37.800        33
37.810        93
37.820        67
37.830        60
37.840        73
37.850        53
37.860        53
37.870        73
37.880        53
37.890        47
37.900        40
37.910        60
37.920        53
37.930        53
37.940        20
37.950        33
37.960        20
37.970        27
37.980        13
37.990        40
38.000        20
38.010        40
38.020        20
38.030        33
38.040        13
38.050        33
38.060        20
38.070        20
38.080        13
38.090        47
38.100        33
38.110        40
38.120        40
38.130         7
38.140        20
38.150        27
38.160        13
38.170        33
38.180         7
38.190        13
38.200        20
38.210        27
38.220         7
38.230        20
38.240        13
38.250        27
38.260        27
38.270        40
38.280        40
38.290        13
38.300        13
38.310         7
38.320        20
38.330        27
38.340        33
38.350        13
38.360        33
38.370        27
38.380         7
38.390         7
38.400        27
38.410        27
38.420        33
38.430        20
38.440        20
38.450        33
38.460         7
38.470        13
38.480        27
38.490        13
38.500        13
38.510        27
38.520        20
38.530        27
38.540        27
38.550         7
38.560        13
38.570         7
38.580        40
38.590        27
38.600        27
38.610        13
38.620        47
38.630        27
38.640        33
38.650         7
38.660         0
38.670         0
38.680        33
38.690         7
38.700         7
38.710        40
38.720         0
38.730        40
38.740        20
38.750        33
38.760         7
38.770        47
38.780        20
38.790         7
38.800         7
38.810        27
38.820        13
38.830        40
38.840        20
38.850        13
38.860        33
38.870        27
38.880        27
38.890         7
38.900        33
38.910        27
38.920        20
38.930        20
38.940        40
38.950        27
38.960        20
38.970        27
38.980        33
38.990        13
39.000        27
39.010        13
39.020         7
39.030        13
39.040         7
39.050        13
39.060        20
39.070        20
39.080        27
39.090         7
39.100         7
39.110        27
39.120        20
39.130        33
39.140        20
39.150        20
39.160        13
39.170        27
39.180        20
39.190        40
39.200         7
39.210        27
39.220        20
39.230        20
39.240         0
39.250        13
39.260        20
39.270        33
39.280         7
39.290        20
39.300        13
39.310        13
39.320        20
39.330        40
39.340         7
39.350        20
39.360        13
39.370         0
39.380        20
39.390        40
39.400        13
39.410        13
39.420        13
39.430        20
39.440        47
39.450        27
39.460         7
39.470        27
39.480        27
39.490        20
39.500         7
39.510        53
39.520        33
39.530        40
39.540        27
39.550        33
39.560        20
39.570        13
39.580        20
39.590        13
39.600        40
39.610        20
39.620        20
39.630        27
39.640        13
39.650        33
39.660        60
39.670        53
39.680        20
39.690        47
39.700        40
39.710        47
39.720        40
39.730         7
39.740        60
39.750        40
39.760        80
39.770        53
39.780        47
39.790        87
39.800       100
39.810        47
39.820        73
39.830       100
39.840        87
39.850        47
39.860       120
39.870       173
39.880       127
39.890       153
39.900       100
39.910       120
39.920       140
39.930       140
39.940       147
39.950       200
39.960       160
39.970       227
39.980       133
39.990       213
40.000       187
40.010       187
40.020       173
40.030       233
40.040       193
40.050       213
40.060       193
40.070       180
40.080       200
40.090       160
40.100       107
40.110       147
40.120       100
40.130       113
40.140       113
40.150       113
40.160       100
40.170       107
40.180        73
40.190        53
40.200        87
40.210        73
40.220        47
40.230        60
40.240        47
40.250        60
40.260        47
40.270        33
40.280        33
40.290        40
40.300        40
40.310        33
40.320        33
40.330        33
40.340        27
40.350         7
40.360        13
40.370        20
40.380        20
40.390        33
40.400        27
40.410         7
40.420        40
40.430         7
40.440        13
40.450        20
40.460        27
40.470        27
40.480        20
40.490         7
40.500         0
40.510        20
40.520        20
40.530        40
40.540        20
40.550        27
40.560         7
40.570        33
40.580        20
40.590         7
40.600        20
40.610        13
40.620        27
40.630        20
40.640        13
40.650         7
40.660        27
40.670        20
40.680         7
40.690        40
40.700        33
40.710        27
40.720        27
40.730        20
40.740        20
40.750         7
40.760        13
40.770        40
40.780        27
40.790        33
40.800        13
40.810        33
40.820        53
40.830         7
40.840        13
40.850        40
40.860        20
40.870        53
40.880        20
40.890        13
40.900        20
40.910        13
40.920        20
40.930        40
40.940         7
40.950        13
40.960        20
40.970        27
40.980        47
40.990        13
41.000        27
41.010         0
41.020        27
41.030         7
41.040        13
41.050        13
41.060         7
41.070        13
41.080        33
41.090         0
41.100        27
41.110         0
41.120        33
41.130         7
41.140        20
41.150        20
41.160        47
41.170         7
41.180        13
41.190        20
41.200        47
41.210        20
41.220        27
41.230        47
41.240        27
41.250        27
41.260        47
41.270        47
41.280        13
41.290         7
41.300        20
41.310        13
41.320        13
41.330        13
41.340        27
41.350        27
41.360        33
41.370        20
41.380        27
41.390        27
41.400        33
41.410        20
41.420        20
41.430        27
41.440        33
41.450        27
41.460        27
41.470        20
41.480        20
41.490        40
41.500        20
41.510        27
41.520        47
41.530        47
41.540        53
41.550        67
41.560        27
41.570        67
41.580         7
41.590        67
41.600        73
41.610       107
41.620        33
41.630        73
41.640        87
41.650       147
41.660       147
41.670       160
41.680       220
41.690       187
41.700       240
41.710       273
41.720       287
41.730       247
41.740       180
41.750       147
41.760       127
41.770        87
41.780       160
41.790       113
41.800       153
41.810       107
41.820       113
41.830       173
41.840       100
41.850        73
41.860       100
41.870        13
41.880        53
41.890        13
41.900        40
41.910        27
41.920        13
41.930        47
41.940        33
41.950        33
41.960        20
41.970         7
41.980        27
41.990        13
42.000        20
42.010         7
42.020         7
42.030        20
42.040        13
42.050        13
42.060         7
42.070        20
42.080        13
42.090        27
42.100        13
42.110        20
42.120        13
42.130        47
42.140         7
42.150         0
42.160        33
42.170        20
42.180        27
42.190        13
42.200        27
42.210        20
42.220        20
42.230        20
42.240        27
42.250        13
42.260        20
42.270        13
42.280        13
42.290        40
42.300        20
42.310         7
42.320        27
42.330        13
42.340        33
42.350        27
42.360        33
42.370        27
42.380        13
42.390        13
42.400        13
42.410        40
42.420        13
42.430        13
42.440        20
42.450         7
42.460        27
42.470        27
42.480        27
42.490         7
42.500        20
42.510        40
42.520        20
42.530        40
42.540        33
42.550        13
42.560        27
42.570        40
42.580        27
42.590        13
42.600        27
42.610        27
42.620        27
42.630        33
42.640        27
42.650        13
42.660        27
42.670        13
42.680        13
42.690        47
42.700        20
42.710         7
42.720        13
42.730        40
42.740         0
42.750        20
42.760         7
42.770        20
42.780         7
42.790        27
42.800        33
42.810        33
42.820        47
42.830        40
42.840         7
42.850        13
42.860        13
42.870        27
42.880        13
42.890        27
42.900        40
42.910         0
42.920        13
42.930        20
42.940        33
42.950         7
42.960        20
42.970        33
42.980        27
42.990        13
43.000        33
43.010        53
43.020        13
43.030        13
43.040        20
43.050        13
43.060        20
43.070        27
43.080        33
43.090        20
43.100        20
43.110        27
43.120         7
43.130        13
43.140        33
43.150        13
43.160        13
43.170        33
43.180        27
43.190         7
43.200        27
43.210        40
43.220        27
43.230        13
43.240        13
43.250        40
43.260        33
43.270        27
43.280        33
43.290        40
43.300        47
43.310        20
43.320        33
43.330        67
43.340        33
43.350        33
43.360        27
43.370        53
43.380        33
43.390        40
43.400        13
43.410        40
43.420        40
43.430        27
43.440        47
43.450        20
43.460        40
43.470         7
43.480        13
43.490        47
43.500        33
43.510        20
43.520        20
43.530         7
43.540        20
43.550        27
43.560        13
43.570        20
43.580        13
43.590        40
43.600        13
43.610        33
43.620        27
43.630        20
43.640        20
43.650        33
43.660        20
43.670        33
43.680        27
43.690         7
43.700        13
43.710        20
43.720        20
43.730        20
43.740        20
43.750        33
43.760         7
43.770        60
43.780        33
43.790         7
43.800         7
43.810        60
43.820        13
43.830        40
43.840        20
43.850        13
43.860        47
43.870        40
43.880        13
43.890        33
43.900        40
43.910        33
43.920        27
43.930        33
43.940        13
43.950        33
43.960        20
43.970        40
43.980        20
43.990         0
44.000        13
44.010        33
44.020        20
44.030        27
44.040        27
44.050        13
44.060        13
44.070        20
44.080        20
44.090        20
44.100        20
44.110        20
44.120        20
44.130        33
44.140        20
44.150         7
44.160        27
44.170        27
44.180         7
44.190        27
44.200         0
44.210         7
44.220        60
44.230        20
44.240        13
44.250        40
44.260         7
44.270        20
44.280        27
44.290        27
44.300        27
44.310        13
44.320        33
44.330        27
44.340        20
44.350        13
44.360        20
44.370        27
44.380        47
44.390        33
44.400        53
44.410        20
44.420        40
44.430         0
44.440        40
44.450        40
44.460        33
44.470        20
44.480        33
44.490        27
44.500        33
44.510        40
44.520        13
44.530        47
44.540         7
44.550        27
44.560        40
44.570        20
44.580        20
44.590         7
44.600        20
44.610        27
44.620        40
44.630        13
44.640         7
44.650        27
44.660        27
44.670        20
44.680        33
44.690        13
44.700        40
44.710        33
44.720        27
44.730        20
44.740        47
44.750        27
44.760        33
44.770        20
44.780        53
44.790        53
44.800        27
44.810        20
44.820        40
44.830        20
44.840        27
44.850        13
44.860        33
44.870        47
44.880        40
44.890        33
44.900        33
44.910        27
44.920        40
44.930        40
44.940        33
44.950        27
44.960        27
44.970        33
44.980        47
44.990        27
45.000        60
45.010        20
45.020        40
45.030        13
45.040        47
45.050        40
45.060        20
45.070        20
45.080        20
45.090        33
45.100        40
45.110        47
45.120        53
45.130        67
45.140        47
45.150        33
45.160        73
45.170        13
45.180        40
45.190        27
45.200        53
45.210        47
45.220        33
45.230        40
45.240        73
45.250        40
45.260        27
45.270        47
45.280        27
45.290        67
45.300        40
45.310        40
45.320        67
45.330        33
45.340        73
45.350        33
45.360        47
45.370        67
45.380        27
45.390        73
45.400        87
45.410        40
45.420        80
45.430        27
45.440        33
45.450        47
45.460        53
45.470        67
45.480        60
45.490        67
45.500        80
45.510        67
45.520        67
45.530        53
45.540        47
45.550        60
45.560        80
45.570        80
45.580        73
45.590        53
45.600        33
45.610        73
45.620       100
45.630       100
45.640        67
45.650        87
45.660        93
45.670        93
45.680       127
45.690       113
45.700        87
45.710       120
45.720       120
45.730       140
45.740       113
45.750       100
45.760       120
45.770       127
45.780        93
45.790       120
45.800       120
45.810       140
45.820       187
45.830       180
45.840       180
45.850       200
45.860       193
45.870       207
45.880       200
45.890       167
45.900       253
45.910       313
45.920       260
45.930       320
45.940       387
45.950       280
45.960       280
45.970       260
45.980       260
45.990       320
46.000       420
46.010       466
46.020       353
46.030       526
46.040       440
46.050       486
46.060       466
46.070       506
46.080       540
46.090       560
46.100       613
46.110       560
46.120       653
46.130       746
46.140       726
46.150       673
46.160       786
46.170       666
46.180       893
46.190       726
46.200       853
46.210       860
46.220      1000
46.230       960
46.240       986
46.250      1033
46.260      1146
46.270      1213
46.280      1013
46.290      1140
46.300      1120
46.310      1066
46.320      1233
46.330      1180
46.340      1226
46.350      1220
46.360      1153
46.370      1253
46.380      1266
46.390      1253
46.400      1413
46.410      1259
46.420      1353
46.430      1286
46.440      1133
46.450      1173
46.460      1246
46.470      1073
46.480      1206
46.490      1046
46.500      1233
46.510       993
46.520       986
46.530      1073
46.540      1046
46.550       920
46.560       860
46.570       826
46.580       920
46.590       946
46.600       740
46.610       833
46.620       760
46.630       706
46.640       606
46.650       593
46.660       613
46.670       520
46.680       466
46.690       660
46.700       653
46.710       506
46.720       513
46.730       473
46.740       486
46.750       333
46.760       526
46.770       480
46.780       373
46.790       320
46.800       347
46.810       293
46.820       360
46.830       280
46.840       347
46.850       227
46.860       167
46.870       253
46.880       253
46.890       200
46.900       273
46.910       220
46.920       187
46.930       220
46.940       200
46.950       167
46.960       127
46.970       193
46.980        93
46.990       160
47.000        80
47.010       153
47.020       133
47.030       160
47.040       127
47.050       127
47.060        93
47.070        93
47.080       120
47.090       187
47.100        87
47.110       147
47.120       100
47.130       100
47.140        80
47.150        47
47.160       113
47.170       120
47.180        93
47.190        87
47.200       113
47.210       100
47.220        47
47.230       107
47.240        80
47.250        80
47.260       127
47.270        87
47.280        53
47.290        60
47.300        60
47.310        67
47.320       100
47.330        67
47.340        47
47.350        53
47.360        53
47.370        73
47.380        47
47.390       120
47.400        20
47.410        40
47.420        47
47.430        47
47.440        27
47.450        40
47.460        60
47.470        20
47.480        53
47.490        47
47.500        33
47.510        40
47.520        40
47.530        47
47.540        53
47.550        67
47.560        20
47.570        47
47.580        47
47.590        60
47.600        40
47.610        20
47.620        47
47.630        20
47.640        60
47.650        53
47.660        47
47.670        40
47.680        33
47.690        53
47.700        27
47.710        27
47.720        47
47.730        20
47.740        20
47.750        73
47.760        47
47.770        47
47.780        53
47.790        67
47.800        13
47.810        47
47.820        40
47.830        80
47.840        20
47.850        27
47.860        20
47.870        33
47.880        27
47.890        20
47.900        40
47.910        60
47.920        60
47.930        13
47.940        13
47.950        20
47.960        47
47.970        47
47.980        13
47.990        27
48.000        40
48.010         7
48.020        27
48.030        40
48.040        60
48.050        33
48.060        33
48.070        13
48.080        13
48.090        27
48.100        20
48.110        47
48.120        27
48.130        40
48.140        33
48.150        27
48.160        33
48.170        53
48.180        40
48.190        20
48.200        20
48.210        40
48.220        27
48.230        40
48.240        47
48.250        20
48.260        60
48.270        40
48.280        27
48.290        40
48.300        27
48.310        13
48.320        33
48.330        40
48.340        40
48.350        47
48.360        53
48.370        40
48.380        27
48.390        33
48.400        20
48.410        13
48.420        40
48.430        80
48.440        27
48.450        27
48.460        13
48.470        60
48.480        40
48.490        40
48.500        33
48.510        13
48.520        40
48.530        27
48.540        40
48.550        40
48.560        40
48.570         7
48.580        33
48.590        27
48.600        13
48.610        47
48.620        33
48.630        27
48.640        20
48.650        20
48.660        33
48.670         0
48.680        27
48.690        40
48.700        33
48.710        40
48.720        40
48.730        27
48.740        33
48.750        27
48.760        20
48.770         0
48.780        13
48.790        13
48.800        13
48.810        13
48.820        40
48.830        33
48.840        33
48.850        40
48.860        27
48.870        13
48.880        20
48.890        27
48.900         7
48.910         7
48.920        13
48.930        40
48.940        20
48.950        27
48.960        40
48.970         7
48.980        67
48.990        13
49.000        40
49.010        33
49.020        13
49.030        27
49.040        20
49.050        13
49.060        40
49.070        13
49.080        40
49.090        20
49.100        33
49.110        13
49.120        47
49.130        33
49.140        40
49.150        27
49.160        13
49.170        20
49.180        20
49.190        20
49.200        20
49.210        33
49.220        13
49.230        27
49.240        40
49.250        20
49.260        33
49.270        40
49.280        33
49.290        27
49.300        40
49.310        27
49.320        27
49.330        47
49.340        20
49.350        47
49.360        40
49.370        27
49.380        13
49.390        27
49.400        40
49.410        53
49.420        20
49.430         7
49.440        27
49.450        40
49.460        40
49.470        20
49.480         0
49.490        13
49.500         7
49.510        27
49.520        40
49.530        33
49.540        40
49.550        33
49.560        20
49.570        27
49.580        27
49.590        33
49.600        27
49.610        13
49.620        27
49.630        40
49.640        20
49.650        20
49.660        13
49.670         7
49.680        20
49.690        47
49.700        13
49.710        13
49.720        27
49.730        40
49.740        33
49.750        33
49.760        20
49.770        13
49.780        40
49.790        27
49.800        27
49.810        20
49.820        40
49.830        47
49.840        27
49.850        27
49.860        27
49.870        33
49.880        13
49.890        20
49.900        40
49.910         7
49.920        20
49.930        20
49.940        20
49.950        27
49.960        20
49.970         7
49.980        27
49.990        20
50.000        40
50.010        40
50.020        13
50.030        13
50.040         7
50.050        13
50.060        27
50.070        20
50.080        33
50.090        13
50.100        20
50.110        20
50.120        40
50.130        40
50.140        27
50.150        13
50.160        33
50.170        13
50.180        40
50.190        33
50.200        13
50.210         7
50.220        20
50.230        27
50.240        47
50.250        20
50.260        33
50.270        20
50.280        20
50.290        13
50.300        40
50.310        20
50.320        13
50.330        33
50.340         7
50.350        33
50.360        40
50.370        20
50.380        40
50.390         7
50.400        13
50.410        13
50.420        40
50.430        20
50.440        33
50.450        13
50.460        20
50.470        20
50.480        40
50.490        13
50.500        13
50.510         0
50.520        13
50.530        33
50.540        47
50.550        27
50.560        13
50.570        40
50.580        27
50.590         7
50.600         0
50.610         7
50.620         7
50.630        20
50.640        33
50.650        20
50.660        33
50.670        13
50.680        27
50.690        27
50.700         7
50.710        27
50.720        13
50.730        33
50.740        53
50.750         7
50.760        13
50.770         7
50.780        33
50.790         7
50.800        13
50.810        33
50.820        33
50.830        20
50.840        33
50.850        20
50.860         7
50.870        20
50.880         7
50.890        27
50.900         7
50.910        33
50.920        13
50.930        40
50.940        20
50.950        20
50.960        13
50.970        40
50.980        27
50.990        20
51.000        20
51.010        13
51.020        13
51.030        13
51.040        27
51.050        20
51.060        20
51.070        33
51.080        20
51.090        87
51.100        40
51.110        20
51.120         7
51.130        27
51.140        13
51.150        20
51.160        13
51.170        40
51.180        33
51.190         0
51.200        20
51.210        13
51.220         7
51.230        20
51.240        33
51.250        27
51.260        47
51.270        33
51.280        27
51.290        27
51.300        13
51.310        27
51.320        27
51.330         7
51.340        20
51.350        13
51.360        13
51.370        20
51.380        20
51.390        27
51.400        20
51.410        20
51.420        27
51.430         7
51.440        27
51.450        13
51.460        27
51.470        20
51.480        33
51.490        40
51.500        13
51.510         0
51.520        13
51.530        27
51.540        13
51.550         0
51.560        27
51.570        47
51.580         7
51.590        33
51.600        27
51.610        20
51.620        33
51.630         7
51.640         0
51.650         7
51.660        40
51.670         7
51.680        20
51.690        47
51.700        13
51.710        13
51.720        33
51.730        13
51.740        33
51.750        13
51.760        20
51.770        40
51.780        47
51.790        40
51.800        13
51.810        20
51.820        27
51.830         0
51.840        27
51.850         7
51.860        27
51.870        27
51.880        20
51.890        20
51.900         7
51.910        40
51.920        13
51.930        13
51.940         7
51.950        27
51.960        20
51.970        27
51.980        40
51.990         7
52.000        13
52.010        47
52.020         7
52.030        13
52.040        13
52.050         0
52.060         0
52.070        27
52.080        27
52.090        13
52.100        40
52.110        33
52.120        33
52.130        20
52.140        13
52.150         7
52.160        40
52.170        27
52.180         7
52.190        13
52.200        20
52.210        13
52.220        27
52.230        13
52.240        13
52.250        20
52.260        33
52.270        13
52.280        20
52.290        20
52.300        40
52.310        33
52.320         7
52.330         7
52.340         7
52.350         7
52.360         0
52.370        20
52.380         7
52.390        20
52.400        20
52.410        33
52.420        27
52.430        27
52.440        20
52.450        13
52.460        53
52.470        27
52.480        20
52.490        40
52.500        33
52.510        53
52.520        47
52.530        33
52.540        40
52.550        40
52.560        40
52.570        67
52.580        73
52.590        33
52.600        47
52.610        33
52.620        20
52.630        47
52.640        33
52.650        20
52.660        20
52.670        13
52.680        40
52.690        67
52.700        33
52.710        40
52.720        27
52.730        20
52.740        20
52.750         0
52.760        40
52.770        20
52.780        20
52.790        13
52.800        53
52.810        27
52.820        47
52.830        33
52.840         7
52.850         7
52.860        13
52.870        27
52.880        20
52.890        20
52.900        40
52.910        13
52.920        33
52.930         7
52.940        13
52.950        27
52.960        20
52.970        20
52.980        13
52.990        13
53.000         7
53.010         0
53.020        33
53.030        20
53.040        27
53.050        40
53.060        27
53.070         7
53.080        27
53.090        33
53.100        13
53.110        13
53.120         0
53.130        13
53.140        20
53.150        13
53.160        40
53.170        33
53.180        13
53.190         0
53.200        20
53.210         7
53.220        20
53.230        20
53.240        27
53.250        33
53.260        20
53.270         7
53.280         7
53.290        40
53.300        20
53.310        13
53.320         7
53.330         0
53.340        20
53.350         7
53.360         0
53.370        60
53.380        13
53.390        13
53.400         0
53.410        33
53.420        60
53.430        33
53.440        20
53.450        13
53.460         7
53.470        33
53.480        13
53.490        27
53.500        27
53.510        20
53.520        13
53.530        47
53.540        33
53.550        27
53.560        20
53.570        20
53.580         0
53.590        20
53.600         7
53.610         0
53.620        20
53.630        27
53.640        33
53.650        27
53.660        20
53.670        13
53.680         0
53.690        13
53.700        13
53.710        33
53.720        33
53.730        13
53.740        33
53.750        13
53.760        20
53.770        20
53.780         7
53.790        13
53.800        33
53.810        13
53.820        20
53.830        13
53.840        27
53.850        27
53.860        20
53.870         7
53.880         7
53.890        33
53.900        40
53.910         7
53.920        33
53.930        27
53.940        27
53.950         7
53.960         7
53.970        13
53.980        13
53.990         7
54.000        20
54.010        20
54.020         0
54.030        13
54.040        20
54.050        20
54.060         7
54.070        33
54.080         0
54.090        20
54.100        27
54.110        33
54.120        20
54.130        27
54.140        33
54.150         7
54.160        20
54.170         7
54.180        20
54.190        13
54.200        20
54.210        33
54.220        20
54.230         7
54.240        13
54.250         7
54.260         7
54.270        40
54.280        20
54.290        20
54.300         7
54.310        13
54.320         7
54.330        13
54.340         7
54.350         7
54.360        33
54.370        13
54.380        13
54.390        20
54.400         7
54.410         7
54.420        33
54.430         7
54.440        33
54.450         7
54.460        40
54.470         7
54.480        13
54.490         7
54.500        27
54.510        27
54.520        33
54.530        27
54.540        40
54.550        13
54.560        27
54.570         7
54.580         7
54.590        13
54.600         7
54.610         7
54.620         7
54.630        20
54.640        13
54.650        13
54.660        27
54.670        13
54.680         7
54.690        33
54.700         7
54.710        20
54.720        40
54.730        33
54.740        27
54.750        13
54.760        20
54.770        27
54.780         7
54.790        13
54.800        20
54.810        13
54.820        20
54.830        13
54.840        40
54.850        27
54.860        13
54.870        13
54.880        33
54.890        20
54.900        20
54.910        13
54.920        13
54.930        27
54.940        20
54.950        13
54.960         0
54.970        20
54.980        27
54.990        20
55.000        13
55.010         7
55.020        40
55.030         7
55.040        13
55.050         7
55.060         7
55.070        40
55.080        40
55.090        13
55.100         7
55.110        20
55.120        47
55.130         7
55.140        13
55.150         7
55.160        20
55.170        13
55.180        13
55.190        47
55.200        20
55.210        27
55.220         7
55.230         7
55.240        20
55.250        13
55.260         7
55.270        20
55.280        13
55.290        13
55.300        40
55.310        40
55.320        13
55.330        20
55.340         0
55.350        27
55.360        20
55.370        27
55.380        13
55.390        33
55.400        33
55.410        13
55.420        20
55.430        27
55.440        20
55.450        13
55.460        13
55.470        27
55.480        20
55.490        47
55.500        20
55.510         0
55.520        27
55.530        20
55.540        27
55.550        13
55.560         7
55.570        33
55.580        40
55.590        40
55.600        27
55.610        13
55.620         7
55.630        33
55.640        20
55.650         7
55.660         7
55.670        33
55.680        13
55.690        13
55.700        40
55.710        27
55.720        13
55.730         7
55.740        13
55.750        27
55.760        13
55.770        13
55.780         0
55.790        13
55.800         7
55.810        27
55.820        13
55.830         7
55.840        13
55.850        20
55.860        13
55.870        40
55.880        27
55.890        13
55.900        33
55.910         0
55.920         7
55.930        27
55.940        33
55.950        20
55.960        27
55.970         7
55.980         0
55.990        20
56.000         7
56.010        33
56.020        20
56.030         7
56.040        20
56.050        27
56.060        27
56.070        47
56.080        33
56.090        20
56.100        20
56.110        27
56.120        13
56.130        13
56.140        20
56.150        33
56.160        13
56.170        13
56.180        13
56.190        13
56.200         7
56.210        20
56.220        13
56.230         7
56.240         0
56.250         0
56.260        27
56.270        13
56.280        13
56.290         0
56.300        13
56.310        20
56.320        20
56.330        13
56.340         7
56.350         7
56.360        20
56.370        27
56.380        20
56.390        27
56.400        20
56.410        20
56.420         0
56.430         7
56.440        27
56.450         0
56.460         7
56.470        13
56.480        13
56.490        13
56.500         0
56.510        20
56.520        40
56.530        13
56.540         7
56.550        13
56.560         0
56.570         7
56.580        13
56.590         7
56.600        27
56.610         7
56.620        27
56.630        20
56.640        33
56.650         7
56.660        13
56.670         0
56.680        33
56.690        13
56.700         7
56.710        20
56.720        13
56.730         0
56.740        13
56.750        20
56.760        20
56.770        27
56.780         0
56.790         7
56.800        13
56.810        20
56.820        13
56.830        33
56.840        20
56.850         0
56.860         7
56.870        20
56.880         7
56.890        13
56.900         7
56.910        13
56.920        27
56.930        33
56.940        13
56.950         7
56.960        40
56.970        27
56.980        13
56.990        13
57.000         7
57.010        13
57.020        13
57.030        40
57.040        20
57.050        27
57.060         7
57.070         0
57.080        13
57.090         7
57.100         7
57.110         7
57.120         7
57.130        13
57.140        20
57.150         7
57.160        20
57.170         7
57.180        47
57.190        27
57.200         7
57.210        20
57.220        13
57.230        20
57.240         0
57.250        13
57.260        47
57.270        40
57.280        27
57.290        13
57.300         0
57.310        20
57.320        13
57.330        47
57.340        13
57.350        13
57.360        20
57.370        13
57.380        33
57.390        53
57.400        40
57.410        13
57.420        27
57.430        67
57.440        33
57.450        13
57.460        20
57.470        27
57.480        27
57.490        53
57.500        33
57.510       107
57.520       120
57.530        80
57.540        93
57.550        87
57.560       133
57.570        87
57.580        80
57.590        80
57.600        40
57.610        13
57.620        40
57.630        40
57.640        47
57.650        27
57.660        60
57.670        60
57.680       100
57.690        93
57.700        67
57.710        60
57.720        60
57.730        47
57.740        80
57.750        60
57.760        47
57.770        47
57.780        27
57.790        20
57.800        20
57.810        47
57.820        40
57.830        73
57.840        27
57.850        40
57.860        33
57.870        40
57.880        53
57.890        27
57.900        40
57.910        27
57.920        20
57.930        40
57.940        20
57.950        13
57.960        40
57.970        40
57.980        33
57.990        27
58.000        60
58.010        20
58.020        33
58.030        47
58.040        20
58.050        27
58.060        53
58.070        27
58.080        27
58.090        20
58.100        40
58.110        13
58.120        60
58.130        33
58.140        13
58.150        33
58.160         7
58.170        20
58.180        13
58.190        20
58.200        27
58.210        33
58.220        27
58.230         0
58.240        13
58.250        13
58.260        13
58.270        13
58.280        27
58.290        13
58.300        13
58.310         7
58.320        20
58.330        20
58.340        13
58.350         7
58.360        33
58.370        13
58.380        20
58.390        27
58.400        27
58.410         7
58.420        13
58.430        13
58.440        40
58.450        40
58.460        27
58.470        13
58.480         7
58.490         0
58.500        27
58.510         0
58.520        20
58.530        13
58.540         7
58.550        27
58.560        13
58.570        27
58.580        27
58.590        27
58.600        13
58.610        13
58.620        13
58.630        27
58.640        13
58.650        47
58.660        13
58.670        33
58.680        20
58.690        33
58.700         7
58.710         7
58.720        33
58.730        20
58.740         7
58.750         0
58.760         7
58.770        13
58.780         7
58.790        27
58.800        27
58.810        13
58.820         7
58.830        13
58.840         7
58.850         7
58.860         0
58.870         7
58.880         7
58.890         0
58.900         7
58.910        27
58.920        47
58.930        13
58.940         0
58.950        40
58.960        13
58.970        20
58.980         7
58.990        13
59.000        13
59.010        33
59.020        20
59.030        20
59.040        20
59.050        13
59.060        53
59.070        13
59.080        27
59.090        47
59.100         0
59.110         7
59.120        27
59.130         7
59.140        20
59.150        27
59.160        20
59.170        53
59.180         0
59.190        40
59.200        13
59.210        13
59.220        20
59.230        20
59.240        13
59.250        20
59.260        20
59.270         7
59.280        40
59.290        27
59.300        20
59.310        20
59.320        13
59.330        27
59.340        27
59.350         7
59.360        20
59.370        13
59.380        13
59.390        13
59.400        20
59.410        13
59.420        33
59.430        33
59.440        13
59.450         7
59.460        27
59.470        13
59.480        27
59.490        20
59.500         7
59.510        13
59.520        20
59.530        27
59.540        27
59.550        20
59.560        47
59.570        13
59.580        20
59.590        13
59.600        20
59.610        20
59.620        27
59.630        47
59.640        13
59.650        13
59.660        13
59.670        13
59.680        13
59.690        13
59.700        20
59.710         7
59.720         0
59.730        27
59.740        33
59.750         7
59.760       153
59.770        20
59.780        33
59.790         0
59.800        27
59.810        13
59.820        13
59.830        27
59.840        40
59.850         7
59.860        13
59.870        33
59.880        27
59.890        13
59.900        20
59.910         7
59.920        27
59.930        20
59.940        13
59.950        20
59.960         7
59.970         0
59.980        20
59.990        13
60.000        13
