20.000        27
20.010        33
20.020        53
20.030        33
20.040        53
20.050        40
20.060        47
20.070        80
20.080        20
20.090        13
20.100        27
20.110        13
20.120        40
20.130        40
20.140        40
20.150        53
20.160        33
20.170        40
20.180        33
20.190        27
20.200        33
20.210        53
20.220        47
20.230        60
20.240        47
20.250        27
20.260        53
20.270        60
20.280        20
20.290        40
20.300        20
20.310        33
20.320        67
20.330        27
20.340        33
20.350        47
20.360        53
20.370        60
20.380        27
20.390        27
20.400        33
20.410        73
20.420        27
20.430        40
20.440        73
20.450        53
20.460        33
20.470        33
20.480        47
20.490        40
20.500        27
20.510        33
20.520        40
20.530        47
20.540        27
20.550        60
20.560        53
20.570        60
20.580        40
20.590        33
20.600        33
20.610        27
20.620        67
20.630        27
20.640        40
20.650        33
20.660        27
20.670        53
20.680        47
20.690        40
20.700        53
20.710        40
20.720        53
20.730        80
20.740        40
20.750        27
20.760        47
20.770        47
20.780        33
20.790         7
20.800        60
20.810        13
20.820        27
20.830        47
20.840        33
20.850        27
20.860        67
20.870        60
20.880        73
20.890        13
20.900        20
20.910        53
20.920         0
20.930        47
20.940        33
20.950        33
20.960        53
20.970        13
20.980        20
20.990        13
21.000        33
21.010        40
21.020        33
21.030        40
21.040        53
21.050        73
21.060        27
21.070        53
21.080        47
21.090        27
21.100        40
21.110        13
21.120        13
21.130        27
21.140        60
21.150        47
21.160        53
21.170        53
21.180        33
21.190        40
21.200        27
21.210        33
21.220        40
21.230        20
21.240        67
21.250        13
21.260        47
21.270        33
21.280        33
21.290        27
21.300        47
21.310        27
21.320        73
21.330        27
21.340        13
21.350        27
21.360        40
21.370        47
21.380        80
21.390        53
21.400        20
21.410        33
21.420        20
21.430        33
21.440        60
21.450        60
21.460        33
21.470        27
21.480        33
21.490        27
21.500        33
21.510        27
21.520        27
21.530        33
21.540        47
21.550        47
21.560        27
21.570        33
21.580        20
21.590        47
21.600        60
21.610        20
21.620        40
21.630        27
21.640        13
21.650        40
21.660        33
21.670        33
21.680        47
21.690        33
21.700        33
21.710        60
21.720        40
21.730        20
21.740        20
21.750        40
21.760         7
21.770        27
21.780        47
21.790        40
21.800        40
21.810        60
21.820        20
21.830        33
21.840        20
21.850        20
21.860        27
21.870         7
21.880        67
21.890        27
21.900        20
21.910        20
21.920        33
21.930        40
21.940        67
21.950        27
21.960        53
21.970        27
21.980        33
21.990        13
22.000        40
22.010        27
22.020        40
22.030        53
22.040        33
22.050        53
22.060        53
22.070        53
22.080        47
22.090        20
22.100        27
22.110        40
22.120        80
22.130        40
22.140        33
22.150        27
22.160        33
22.170        47
22.180        20
22.190        40
22.200        47
22.210        20
22.220         7
22.230        20
22.240        33
22.250        40
22.260        53
22.270        60
22.280        13
22.290        20
22.300        40
22.310         7
22.320        47
22.330        53
22.340        13
22.350        27
22.360        53
22.370        13
22.380        80
22.390         7
22.400        33
22.410        47
22.420        73
22.430        53
22.440        20
22.450        20
22.460        27
22.470        40
22.480        40
22.490        73
22.500        33
22.510        40
22.520        47
22.530        20
22.540        53
22.550        20
22.560        53
22.570        60
22.580        47
22.590        87
22.600        87
22.610        53
22.620       107
22.630        67
22.640        87
22.650       133
22.660       127
22.670       140
22.680       147
22.690       160
22.700       140
22.710       133
22.720       153
22.730       213
22.740       193
22.750       140
22.760       147
22.770       173
22.780       147
22.790       100
22.800       133
22.810       160
22.820       140
22.830        87
22.840       100
22.850        87
22.860       120
22.870        93
22.880        53
22.890       100
22.900        93
22.910        27
22.920        40
22.930        47
22.940       100
22.950        53
22.960        27
22.970        47
22.980        27
22.990        53
23.000        67
23.010        47
23.020        47
23.030        33
23.040        33
23.050        60
23.060        67
23.070        40
23.080        47
23.090        33
23.100        33
23.110        73
23.120        47
23.130        60
23.140        53
23.150        20
23.160        13
23.170        27
23.180        40
23.190        13
23.200        33
23.210        27
23.220        27
23.230        53
23.240        40
23.250        13
23.260        40
23.270        20
23.280        53
23.290        33
23.300        33
23.310        13
23.320        40
23.330        40
23.340        27
23.350        40
23.360        47
23.370        73
23.380        53
23.390         7
23.400        20
23.410        53
23.420        73
23.430        47
23.440        40
23.450        40
23.460        47
23.470        67
23.480        33
23.490        20
23.500        33
23.510        20
23.520        47
23.530        87
23.540        53
23.550        53
23.560        47
23.570        87
23.580        33
23.590        33
23.600        33
23.610        47
23.620        27
23.630        27
23.640        67
23.650        40
23.660        53
23.670        40
23.680        33
23.690        27
23.700        33
23.710        53
23.720        20
23.730        53
23.740        67
23.750        27
23.760        60
23.770        27
23.780        40
23.790        27
23.800        20
23.810        67
23.820        47
23.830        27
23.840        33
23.850        47
23.860        53
23.870        33
23.880        47
23.890        47
23.900        67
23.910        33
23.920        33
23.930        47
23.940        40
23.950         7
23.960        27
23.970        40
23.980        33
23.990        13
24.000        13
24.010        53
24.020        53
24.030        47
24.040        27
24.050        40
24.060        47
24.070        60
24.080        13
24.090        40
24.100        27
24.110        27
24.120        33
24.130        47
24.140        40
24.150        47
24.160        20
24.170        33
24.180        53
24.190        33
24.200        27
24.210        33
24.220        20
24.230        60
24.240        33
24.250        73
24.260        47
24.270        53
24.280        67
24.290        40
24.300        40
24.310        33
24.320       113
24.330        20
24.340        53
24.350        27
24.360         7
24.370        40
24.380        27
24.390        47
24.400        33
24.410        20
24.420        40
24.430        33
24.440        20
24.450        20
24.460        47
24.470        47
24.480        40
24.490         7
24.500        27
24.510        33
24.520        87
24.530        33
24.540        87
24.550        53
24.560        40
24.570        20
24.580        33
24.590        40
24.600        20
24.610        40
24.620        33
24.630        47
24.640        33
24.650        33
24.660        20
24.670        33
24.680        27
24.690        87
24.700        53
24.710        20
24.720        20
24.730        53
24.740        47
24.750        20
24.760        27
24.770        80
24.780        27
24.790        40
24.800        47
24.810        60
24.820        27
24.830        60
24.840        27
24.850        27
24.860        20
24.870        60
24.880        53
24.890        53
24.900        27
24.910        60
24.920        40
24.930        40
24.940        40
24.950        60
24.960        27
24.970        53
24.980        60
24.990        47
25.000        73
25.010        47
25.020        20
25.030        53
25.040        60
25.050        60
25.060        53
25.070        53
25.080        60
25.090        33
25.100        80
25.110        40
25.120        40
25.130        13
25.140        40
25.150        27
25.160        33
25.170        73
25.180        47
25.190        87
25.200        47
25.210       100
25.220        53
25.230        67
25.240       100
25.250        53
25.260        40
25.270       100
25.280        60
25.290       133
25.300       160
25.310        73
25.320       240
25.330       300
25.340       400
25.350       440
25.360       540
25.370       693
25.380       860
25.390       926
25.400       980
25.410      1246
25.420      1293
25.430      1426
25.440      1246
25.450      1379
25.460      1253
25.470      1346
25.480      1206
25.490      1166
25.500       966
25.510       906
25.520       700
25.530       700
25.540       566
25.550       560
25.560       580
25.570       573
25.580       820
25.590      1013
25.600       953
25.610       833
25.620       986
25.630       853
25.640       840
25.650       960
25.660       846
25.670       773
25.680       593
25.690       473
25.700       420
25.710       440
25.720       333
25.730       313
25.740       213
25.750       160
25.760       213
25.770       140
25.780       127
25.790       127
25.800       107
25.810       120
25.820       147
25.830       107
25.840       100
25.850       120
25.860        67
25.870        80
25.880        73
25.890        80
25.900        27
25.910        27
25.920        60
25.930        53
25.940        13
25.950        60
25.960        60
25.970        80
25.980        47
25.990        60
26.000        60
26.010        27
26.020        47
26.030        53
26.040        60
26.050        47
26.060        27
26.070        73
26.080        27
26.090        60
26.100        27
26.110        80
26.120        67
26.130        47
26.140        33
26.150        53
26.160        33
26.170        80
26.180        33
26.190        13
26.200        47
26.210        40
26.220        13
26.230        47
26.240        60
26.250         7
26.260        73
26.270        33
26.280        33
26.290        47
26.300        67
26.310        33
26.320        53
26.330        53
26.340        40
26.350        33
26.360        27
26.370        47
26.380         7
26.390        20
26.400        60
26.410        47
26.420        20
26.430        47
26.440        27
26.450        33
26.460        20
26.470        20
26.480        60
26.490        33
26.500        73
26.510        53
26.520        40
26.530        67
26.540        27
26.550        80
26.560        33
26.570        13
26.580        53
26.590        27
26.600        20
26.610        40
26.620        47
26.630        40
26.640        60
26.650        40
26.660        60
26.670        27
26.680        40
26.690        67
26.700        47
26.710        67
26.720        47
26.730        33
26.740        20
26.750        47
26.760        47
26.770        60
26.780        40
26.790        47
26.800        33
26.810        20
26.820        53
26.830        47
26.840        33
26.850        53
26.860        20
26.870        40
26.880        40
26.890        33
26.900        47
26.910        20
26.920        27
26.930        53
26.940        33
26.950        40
26.960        80
26.970        33
26.980        67
26.990        40
27.000        33
27.010        47
27.020        80
27.030        27
27.040        13
27.050        33
27.060        80
27.070        27
27.080        27
27.090        53
27.100        53
27.110        67
27.120        73
27.130        27
27.140        27
27.150        27
27.160        33
27.170        13
27.180        33
27.190        33
27.200        33
27.210        27
27.220        53
27.230        47
27.240        40
27.250        47
27.260        40
27.270        60
27.280        53
27.290        13
27.300        27
27.310        47
27.320        53
27.330        47
27.340        53
27.350        40
27.360        20
27.370        33
27.380        47
27.390        73
27.400        53
27.410        47
27.420        53
27.430        27
27.440        47
27.450        40
27.460        80
27.470        33
27.480        13
27.490        53
27.500        47
27.510        27
27.520        60
27.530        27
27.540        40
27.550        47
27.560        33
27.570        40
27.580        47
27.590        40
27.600        27
27.610        47
27.620        33
27.630        33
27.640        40
27.650        40
27.660        33
27.670        47
27.680        33
27.690        27
27.700        47
27.710        20
27.720        27
27.730        47
27.740        13
27.750        33
27.760        40
27.770        20
27.780        53
27.790        33
27.800        33
27.810        20
27.820        60
27.830        27
27.840        27
27.850        47
27.860        47
27.870        73
27.880        40
27.890        47
27.900        73
27.910        33
27.920        27
27.930        27
27.940        47
27.950        27
27.960        40
27.970        40
27.980        27
27.990        40
28.000        33
28.010        47
28.020        47
28.030        47
28.040        33
28.050        47
28.060        27
28.070        53
28.080        27
28.090        27
28.100         7
28.110        40
28.120        27
28.130        27
28.140        40
28.150        47
28.160        20
28.170        93
28.180        33
28.190        27
28.200        27
28.210        47
28.220        40
28.230         7
28.240        20
28.250        20
28.260        27
28.270        40
28.280        67
28.290        27
28.300        20
28.310        20
28.320        33
28.330        47
28.340        13
28.350         7
28.360        53
28.370        40
28.380        53
28.390        40
28.400        53
28.410        13
28.420        20
28.430         7
28.440        47
28.450        53
28.460        27
28.470        33
28.480        53
28.490        33
28.500        47
28.510        40
28.520        20
28.530        27
28.540        47
28.550        33
28.560        20
28.570        33
28.580        47
28.590        20
28.600        60
28.610        13
28.620        67
28.630        33
28.640        60
28.650        40
28.660        40
28.670        53
28.680        40
28.690        40
28.700        27
28.710        33
28.720        47
28.730        27
28.740        40
28.750        20
28.760        33
28.770        33
28.780        20
28.790        27
28.800        47
28.810        40
28.820        40
28.830        40
28.840        20
28.850        53
28.860        40
28.870        47
28.880        33
28.890        27
28.900        40
28.910        40
28.920        33
28.930        40
28.940        20
28.950        80
28.960        60
28.970        47
28.980        13
28.990        33
29.000        27
29.010        33
29.020        33
29.030        40
29.040        20
29.050        33
29.060        27
29.070        27
29.080        33
29.090        27
29.100        20
29.110        33
29.120        40
29.130        40
29.140        53
29.150        13
29.160        53
29.170        40
29.180        40
29.190        53
29.200        60
29.210        13
29.220        27
29.230        33
29.240        33
29.250        53
29.260        53
29.270        33
29.280        47
29.290        27
29.300        20
29.310        67
29.320        40
29.330        33
29.340        27
29.350        27
29.360        33
29.370         7
29.380        20
29.390        27
29.400        40
29.410        20
29.420        40
29.430        40
29.440        40
29.450        60
29.460        20
29.470        27
29.480        33
29.490        47
29.500        40
29.510        33
29.520        47
29.530        40
29.540        13
29.550        47
29.560        20
29.570        27
29.580        53
29.590        13
29.600        40
29.610        47
29.620        33
29.630        53
29.640        60
29.650        40
29.660        33
29.670        27
29.680        27
29.690        47
29.700        33
29.710        13
29.720         7
29.730         7
29.740        47
29.750        27
29.760        27
29.770        40
29.780        20
29.790        33
29.800        40
29.810        33
29.820        40
29.830        27
29.840        13
29.850        27
29.860        20
29.870        20
29.880         7
29.890        60
29.900        33
29.910        33
29.920        33
29.930        33
29.940        20
29.950        20
29.960        27
29.970        40
29.980        53
29.990        47
30.000        13
30.010        40
30.020        20
30.030        20
30.040        33
30.050        27
30.060        33
30.070        33
30.080        20
30.090        47
30.100        40
30.110        40
30.120        33
30.130        53
30.140        13
30.150         0
30.160        60
30.170        13
30.180        20
30.190        47
30.200        27
30.210        20
30.220        33
30.230        27
30.240        27
30.250        33
30.260         0
30.270        33
30.280         7
30.290        33
30.300        20
30.310        27
30.320        47
30.330        20
30.340        40
30.350        13
30.360        20
30.370        27
30.380        20
30.390        20
30.400        27
30.410        27
30.420        33
30.430        27
30.440        33
30.450        27
30.460        33
30.470        27
30.480        80
30.490        33
30.500        27
30.510        33
30.520        33
30.530         7
30.540        13
30.550        13
30.560        53
30.570        20
30.580        20
30.590        27
30.600        27
30.610        27
30.620        53
30.630        53
30.640        33
30.650        40
30.660        67
30.670        33
30.680        53
30.690        20
30.700         7
30.710        40
30.720        40
30.730        20
30.740         7
30.750        53
30.760        13
30.770        47
30.780        40
30.790        20
30.800        53
30.810        40
30.820        27
30.830        40
30.840        33
30.850        27
30.860        20
30.870        53
30.880        20
30.890        27
30.900        47
30.910        20
30.920        27
30.930        47
30.940        27
30.950        47
30.960        27
30.970        20
30.980        20
30.990        27
31.000        20
31.010        47
31.020        13
31.030        20
31.040        33
31.050        67
31.060        33
31.070        33
31.080        13
31.090        47
31.100        13
31.110        27
31.120        47
31.130        27
31.140        40
31.150        20
31.160        13
31.170        33
31.180        33
31.190        40
31.200        20
31.210        33
31.220        13
31.230         7
31.240        20
31.250        20
31.260        13
31.270        27
31.280        33
31.290        27
31.300        33
31.310        33
31.320        47
31.330        20
31.340        27
31.350        33
31.360        13
31.370        67
31.380        67
31.390        67
31.400        40
31.410        13
31.420        33
31.430        33
31.440        33
31.450        27
31.460         7
31.470        20
31.480        27
31.490        33
31.500        47
31.510        13
31.520        33
31.530        13
31.540        20
31.550        20
31.560        33
31.570        40
31.580        40
31.590        27
31.600        13
31.610        13
31.620        40
31.630        27
31.640        27
31.650        60
31.660        13
31.670        27
31.680        47
31.690        27
31.700        67
31.710        60
31.720        20
31.730        33
31.740        40
31.750        20
31.760        40
31.770        40
31.780        20
31.790        33
31.800        73
31.810        40
31.820        33
31.830        33
31.840         7
31.850        40
31.860        27
31.870        40
31.880        40
31.890        27
31.900        40
31.910        33
31.920        47
31.930        53
31.940        73
31.950        13
31.960        53
31.970        27
31.980        40
31.990        33
32.000        53
32.010        40
32.020        60
32.030        27
32.040        20
32.050        47
32.060        47
32.070        73
32.080        13
32.090        67
32.100        40
32.110        60
32.120       120
32.130        47
32.140       100
32.150        80
32.160       133
32.170        93
32.180       147
32.190        80
32.200       133
32.210       140
32.220       167
32.230       173
32.240       167
32.250       153
32.260       147
32.270       293
32.280       340
32.290       260
32.300       360
32.310       460
32.320       387
32.330       360
32.340       540
32.350       693
32.360       626
32.370       680
32.380       633
32.390       793
32.400       806
32.410       780
32.420       773
32.430       873
32.440       680
32.450       560
32.460       713
32.470       586
32.480       673
32.490       460
32.500       466
32.510       460
32.520       426
32.530       360
32.540       333
32.550       213
32.560       227
32.570       253
32.580       187
32.590       167
32.600       120
32.610       160
32.620       120
32.630        73
32.640       107
32.650        73
32.660        73
32.670        40
32.680       127
32.690        60
32.700        80
32.710        40
32.720        53
32.730        60
32.740        60
32.750        60
32.760        67
32.770        13
32.780        40
32.790        33
32.800        53
32.810        53
32.820        60
32.830        73
32.840        60
32.850        13
32.860        47
32.870        60
32.880        73
32.890        33
32.900        47
32.910        47
32.920        27
32.930        47
32.940        73
32.950        20
32.960        53
32.970        33
32.980        27
32.990        80
33.000        60
33.010        67
33.020        27
33.030        73
33.040        13
33.050        60
33.060        33
33.070         7
33.080        60
33.090        40
33.100        60
33.110        47
33.120        33
33.130        20
33.140        20
33.150        27
33.160        47
33.170        80
33.180        47
33.190        27
33.200        47
33.210        60
33.220        40
33.230        40
33.240        27
33.250        20
33.260        27
33.270        47
33.280        60
33.290        33
33.300        20
33.310        67
33.320        20
33.330         7
33.340        20
33.350        40
33.360        40
33.370        47
33.380        33
33.390        40
33.400        20
33.410        20
33.420         7
33.430        47
33.440        33
33.450        67
33.460        13
33.470        53
33.480        60
33.490        27
33.500        47
33.510        60
33.520        40
33.530        20
33.540        40
33.550        33
33.560        27
33.570        27
33.580        47
33.590        60
33.600        27
33.610        47
33.620        27
33.630        47
33.640        33
33.650        60
33.660        20
33.670        40
33.680        80
33.690        27
33.700        13
33.710        47
33.720        33
33.730        53
33.740        33
33.750        27
33.760        27
33.770        20
33.780        27
33.790        33
33.800        53
33.810        47
33.820        40
33.830        47
33.840        20
33.850        47
33.860        47
33.870        20
33.880        40
33.890        47
33.900        27
33.910        27
33.920        47
33.930        47
33.940        27
33.950        33
33.960        53
33.970        53
33.980        20
33.990        40
34.000        13
34.010        60
34.020        53
34.030        27
34.040        73
34.050        47
34.060        53
34.070        20
34.080        40
34.090        13
34.100        27
34.110        27
34.120        20
34.130        53
34.140        53
34.150        47
34.160        33
34.170        13
34.180        33
34.190        33
34.200        47
34.210        47
34.220        53
34.230        47
34.240        47
34.250        67
34.260        53
34.270        53
34.280        40
34.290        53
34.300        60
34.310        40
34.320        33
34.330        33
34.340        40
34.350        27
34.360        13
34.370        47
34.380        27
34.390        40
34.400        33
34.410        47
34.420        27
34.430        53
34.440        53
34.450        47
34.460        27
34.470        33
34.480        73
34.490        47
34.500        53
34.510        13
34.520         7
34.530        40
34.540        80
34.550        27
34.560        13
34.570        47
34.580        53
34.590        33
34.600        13
34.610        33
34.620        53
34.630        47
34.640        33
34.650        20
34.660        80
34.670        20
34.680        13
34.690        27
34.700        33
34.710        47
34.720        27
34.730        47
34.740        20
34.750        27
34.760        27
34.770        53
34.780        40
34.790        40
34.800        40
34.810        40
34.820        20
34.830        33
34.840        33
34.850        53
34.860        27
34.870        40
34.880        13
34.890        40
34.900        47
34.910        47
34.920         7
34.930        47
34.940        47
34.950        40
34.960        27
34.970        40
34.980        60
34.990        40
35.000        47
35.010        60
35.020        20
35.030        33
35.040        20
35.050        40
35.060        40
35.070        33
35.080        40
35.090        47
35.100        27
35.110        47
35.120        33
35.130        33
35.140        33
35.150        33
35.160        40
35.170        27
35.180        40
35.190        33
35.200        53
35.210        40
35.220        53
35.230        40
35.240        27
35.250        47
35.260        47
35.270        53
35.280        27
35.290        40
35.300        33
35.310        47
35.320        47
35.330        40
35.340        40
35.350        20
35.360        13
35.370        33
35.380        47
35.390        53
35.400        53
35.410        40
35.420        20
35.430        60
35.440        20
35.450        40
35.460        60
35.470        40
35.480        27
35.490        33
35.500        40
35.510        47
35.520        27
35.530        60
35.540        47
35.550        13
35.560        67
35.570        53
35.580        33
35.590        40
35.600        53
35.610        40
35.620        53
35.630        33
35.640        47
35.650        47
35.660        60
35.670        40
35.680        27
35.690        53
35.700        47
35.710        53
35.720        40
35.730        47
35.740        33
35.750        67
35.760        27
35.770        47
35.780        40
35.790        27
35.800        47
35.810        33
35.820        87
35.830        20
35.840        67
35.850        33
35.860        40
35.870        27
35.880        33
35.890        53
35.900        73
35.910        33
35.920        33
35.930        20
35.940        33
35.950        20
35.960        40
35.970        40
35.980        47
35.990        47
36.000        47
36.010        53
36.020        33
36.030        13
36.040        33
36.050        47
36.060        40
36.070        33
36.080        20
36.090        60
36.100        20
36.110        47
36.120        53
36.130        20
36.140        20
36.150        33
36.160        40
36.170        67
36.180        60
36.190        53
36.200        67
36.210        27
36.220        33
36.230        40
36.240        60
36.250        47
36.260        27
36.270        53
36.280        33
36.290        47
36.300        40
36.310        87
36.320        33
36.330        27
36.340        53
36.350        33
36.360        53
36.370        27
36.380        40
36.390        13
36.400        47
36.410        47
36.420        33
36.430        67
36.440        47
36.450        60
36.460        27
36.470        73
36.480        47
36.490        47
36.500        20
36.510        33
36.520        53
36.530        33
36.540        47
36.550        60
36.560        60
36.570        53
36.580        60
36.590        73
36.600        13
36.610        40
36.620        27
36.630        47
36.640        33
36.650        80
36.660        33
36.670        27
36.680        40
36.690        20
36.700        13
36.710        60
36.720        60
36.730         7
36.740        40
36.750        73
36.760        47
36.770        40
36.780        40
36.790       107
36.800        53
36.810        33
36.820        33
36.830        40
36.840        60
36.850        47
36.860        53
36.870        33
36.880        53
36.890        33
36.900        40
36.910        47
36.920        27
36.930        33
36.940        40
36.950        47
36.960        20
36.970        47
36.980        27
36.990        33
37.000        27
37.010        47
37.020        27
37.030        13
37.040        20
37.050        27
37.060        33
37.070        53
37.080        40
37.090        73
37.100        27
37.110        27
37.120        27
37.130        73
37.140        47
37.150        87
37.160        20
37.170        33
37.180        60
37.190        67
37.200        33
37.210        40
37.220        33
37.230        27
37.240        27
37.250        60
37.260        33
37.270        40
37.280        47
37.290         7
37.300        33
37.310        53
37.320        53
37.330         7
37.340        40
37.350        33
37.360        53
37.370        40
37.380        33
37.390        27
37.400        20
37.410        27
37.420        27
37.430        53
37.440        60
37.450        67
37.460        53
37.470        33
37.480        40
37.490        40
37.500        53
37.510        13
37.520        40
37.530        20
37.540        20
37.550        40
37.560        20
37.570        33
37.580        27
37.590        40
37.600        20
37.610        33
37.620        27
37.630        67
37.640        67
37.650        33
37.660        33
37.670        60
37.680        40
37.690        53
37.700        53
37.710        47
37.720        40
37.730        60
37.740        13
37.750        53
37.760        13
37.770        33
37.780        47
37.790        53
37.800        13
37.810        40
37.820        33
37.830        40
37.840        13
37.850        40
37.860        67
37.870        33
37.880        60
37.890        73
37.900        40
37.910        33
37.920        33
37.930        27
37.940        33
37.950        20
37.960        33
37.970        40
37.980        20
37.990        53
38.000        47
38.010        40
38.020        47
38.030        47
38.040        40
38.050        47
38.060        33
38.070        93
38.080        40
38.090        53
38.100        27
38.110        27
38.120        53
38.130        20
38.140        27
38.150        53
38.160        20
38.170        53
38.180        53
38.190        13
38.200        20
38.210        13
38.220        60
38.230        33
38.240        27
38.250        67
38.260        67
38.270        40
38.280        13
38.290        40
38.300        53
38.310        40
38.320        33
38.330        33
38.340        47
38.350        27
38.360        33
38.370        27
38.380        60
38.390        60
38.400        40
38.410        20
38.420        20
38.430        33
38.440        33
38.450        13
38.460        20
38.470        53
38.480        27
38.490        33
38.500        47
38.510        47
38.520        40
38.530        13
38.540        40
38.550        20
38.560        53
38.570        53
38.580        40
38.590        47
38.600        20
38.610        60
38.620        40
38.630        40
38.640        40
38.650        20
38.660        60
38.670        40
38.680        47
38.690        27
38.700        53
38.710        27
38.720        27
38.730        27
38.740        13
38.750         7
38.760        47
38.770        27
38.780        20
38.790         7
38.800        33
38.810        27
38.820        53
38.830        13
38.840        20
38.850        33
38.860        20
38.870        20
38.880        27
38.890        20
38.900        27
38.910         7
38.920        67
38.930        27
38.940        13
38.950        27
38.960        20
38.970        27
38.980        20
38.990        33
39.000        47
39.010        33
39.020        27
39.030        53
39.040        20
39.050        40
39.060        40
39.070        27
39.080        13
39.090        20
39.100        33
39.110        33
39.120         7
39.130        47
39.140        20
39.150        80
39.160        73
39.170        20
39.180        13
39.190         0
39.200        67
39.210        47
39.220        20
39.230        40
39.240        27
39.250        20
39.260        47
39.270        33
39.280        27
39.290        33
39.300        40
39.310        40
39.320        33
39.330        40
39.340        27
39.350        47
39.360        20
39.370        40
39.380        33
39.390        40
39.400        40
39.410        33
39.420        40
39.430        27
39.440        47
39.450        27
39.460        53
39.470        40
39.480        20
39.490        27
39.500        40
39.510         7
39.520        53
39.530        47
39.540        47
39.550        33
39.560        40
39.570        27
39.580        40
39.590        53
39.600        33
39.610        20
39.620        27
39.630        13
39.640        13
39.650        20
39.660        47
39.670        33
39.680        53
39.690        13
39.700        40
39.710        47
39.720        27
39.730        20
39.740        20
39.750        20
39.760        40
39.770        20
39.780        33
39.790        20
39.800        33
39.810        40
39.820        20
39.830        40
39.840        20
39.850        47
39.860        27
39.870        20
39.880        40
39.890        47
39.900        20
39.910        33
39.920        47
39.930        67
39.940        60
39.950        20
39.960        40
39.970        27
39.980        33
39.990        27
40.000        27
40.010        40
40.020        20
40.030        40
40.040        27
40.050        20
40.060        27
40.070        27
40.080        40
40.090         7
40.100        40
40.110        27
40.120        20
40.130        20
40.140        33
40.150        27
40.160        33
40.170        40
40.180        40
40.190        20
40.200        47
40.210        40
40.220        53
40.230        20
40.240        20
40.250        60
40.260        40
40.270        33
40.280        27
40.290        13
40.300        27
40.310        27
40.320        27
40.330        33
40.340         0
40.350        60
40.360        40
40.370        27
40.380        27
40.390        27
40.400        33
40.410        47
40.420        13
40.430        33
40.440         7
40.450        60
40.460        27
40.470        40
40.480        13
40.490        33
40.500        20
40.510        13
40.520        33
40.530        33
40.540        47
40.550        53
40.560        13
40.570        20
40.580        13
40.590        13
40.600        40
40.610        40
40.620        53
40.630        53
40.640        27
40.650        47
40.660        53
40.670        20
40.680        27
40.690        27
40.700        20
40.710        47
40.720        20
40.730        47
40.740        27
40.750        13
40.760        27
40.770        53
40.780        40
40.790        40
40.800        20
40.810        53
40.820        47
40.830        13
40.840        33
40.850        40
40.860        40
40.870        20
40.880        40
40.890        60
40.900        47
40.910        33
40.920        13
40.930        13
40.940        33
40.950        20
40.960        13
40.970        33
40.980        27
40.990        13
41.000        33
41.010        33
41.020        27
41.030        40
41.040        33
41.050        27
41.060        47
41.070        33
41.080        40
41.090        60
41.100        13
41.110        47
41.120        27
41.130        47
41.140        27
41.150        27
41.160        27
41.170        40
41.180        13
41.190        13
41.200         0
41.210        47
41.220        40
41.230        33
41.240        33
41.250        13
41.260        60
41.270        20
41.280        27
41.290        33
41.300        33
41.310        27
41.320        33
41.330        33
41.340        53
41.350        47
41.360        20
41.370        13
41.380        53
41.390        27
41.400        13
41.410        47
41.420        20
41.430        20
41.440        13
41.450        40
41.460        47
41.470        60
41.480        53
41.490        13
41.500        27
41.510        40
41.520        40
41.530        47
41.540        40
41.550        60
41.560        33
41.570        40
41.580        33
41.590        33
41.600        73
41.610        40
41.620        53
41.630        20
41.640        33
41.650        33
41.660        47
41.670        53
41.680        20
41.690        27
41.700        40
41.710        47
41.720        20
41.730        47
41.740        33
41.750        40
41.760        60
41.770        33
41.780        40
41.790         7
41.800        33
41.810        27
41.820        33
41.830        27
41.840        47
41.850        20
41.860        40
41.870        53
41.880        13
41.890        40
41.900        47
41.910        47
41.920         7
41.930        40
41.940        20
41.950        47
41.960        40
41.970        33
41.980        20
41.990        20
42.000        27
42.010        53
42.020        33
42.030        27
42.040        27
42.050        33
42.060        47
42.070        40
42.080        20
42.090        53
42.100        27
42.110        40
42.120        20
42.130        27
42.140        67
42.150        20
42.160        20
42.170        33
42.180        33
42.190        27
42.200        33
42.210        60
42.220        33
42.230        33
42.240        27
42.250        13
42.260        33
42.270        20
42.280        33
42.290        20
42.300        20
42.310        40
42.320        27
42.330        47
42.340        20
42.350        20
42.360        27
42.370        53
42.380        20
42.390        13
42.400        13
42.410        60
42.420        47
42.430        40
42.440        13
42.450        27
42.460        60
42.470        33
42.480        27
42.490        33
42.500        27
42.510        33
42.520        40
42.530        73
42.540        40
42.550        40
42.560        27
42.570        13
42.580        27
42.590        40
42.600        40
42.610        13
42.620        27
42.630         7
42.640        33
42.650        40
42.660        40
42.670        47
42.680        47
42.690        20
42.700        33
42.710        27
42.720        27
42.730        47
42.740        33
42.750        40
42.760        60
42.770        13
42.780        27
42.790        47
42.800        27
42.810        73
42.820        53
42.830        47
42.840        20
42.850        33
42.860        60
42.870        47
42.880        40
42.890        47
42.900        27
42.910        53
42.920        27
42.930        27
42.940        33
42.950        20
42.960        27
42.970        20
42.980        20
42.990        33
43.000        13
43.010        40
43.020         7
43.030        40
43.040        27
43.050        33
43.060        13
43.070        20
43.080        40
43.090        13
43.100        27
43.110        13
43.120        27
43.130        33
43.140        13
43.150        47
43.160        47
43.170        33
43.180        47
43.190        20
43.200        60
43.210        40
43.220        33
43.230        47
43.240        53
43.250         7
43.260        53
43.270        33
43.280        73
43.290        27
43.300        13
43.310        40
43.320        27
43.330        13
43.340        53
43.350        40
43.360        40
43.370        33
43.380         7
43.390        27
43.400        33
43.410        20
43.420        33
43.430        47
43.440        40
43.450         7
43.460        13
43.470         7
43.480        60
43.490         7
43.500        27
43.510        47
43.520         7
43.530        27
43.540        47
43.550        20
43.560        27
43.570        27
43.580        47
43.590        27
43.600        40
43.610        47
43.620        40
43.630        33
43.640        20
43.650        40
43.660         7
43.670        27
43.680        27
43.690        13
43.700         0
43.710        40
43.720        27
43.730        27
43.740        27
43.750        40
43.760        40
43.770        27
43.780        13
43.790        33
43.800        13
43.810         7
43.820         7
43.830        13
43.840        53
43.850        33
43.860        33
43.870        40
43.880        20
43.890         7
43.900        40
43.910        33
43.920        20
43.930        33
43.940         7
43.950        13
43.960        40
43.970        20
43.980        40
43.990        53
44.000        13
44.010        20
44.020        47
44.030        27
44.040        47
44.050        13
44.060        20
44.070        33
44.080        20
44.090        33
44.100        40
44.110         7
44.120        47
44.130        40
44.140        40
44.150        13
44.160        40
44.170        13
44.180        20
44.190        40
44.200        60
44.210        13
44.220        40
44.230        40
44.240        33
44.250        13
44.260        47
44.270        27
44.280        60
44.290        47
44.300        40
44.310        33
44.320        13
44.330        33
44.340        33
44.350         0
44.360        20
44.370         0
44.380        47
44.390        27
44.400         7
44.410        13
44.420         7
44.430        20
44.440        40
44.450        33
44.460        60
44.470        47
44.480        47
44.490        33
44.500        20
44.510        20
44.520        47
44.530        67
44.540        47
44.550        53
44.560        47
44.570        20
44.580        13
44.590        40
44.600        40
44.610        33
44.620        33
44.630        13
44.640         7
44.650        27
44.660        67
44.670        47
44.680        40
44.690        33
44.700        40
44.710        27
44.720         0
44.730        67
44.740        27
44.750        47
44.760        40
44.770        33
44.780        27
44.790        47
44.800        40
44.810        47
44.820        53
44.830        13
44.840        20
44.850        67
44.860        33
44.870        73
44.880        53
44.890        33
44.900        27
44.910        47
44.920        40
44.930        53
44.940        13
44.950        53
44.960        40
44.970        20
44.980        40
44.990        47
45.000        40
45.010        47
45.020        47
45.030        47
45.040        47
45.050        53
45.060        40
45.070        47
45.080        53
45.090        13
45.100        60
45.110        60
45.120        40
45.130        40
45.140        40
45.150        27
45.160        27
45.170        40
45.180        40
45.190        27
45.200        27
45.210        47
45.220        53
45.230        27
45.240        60
45.250        47
45.260        47
45.270        67
45.280        47
45.290        13
45.300        60
45.310        40
45.320        40
45.330        47
45.340        40
45.350        67
45.360        60
45.370        67
45.380        53
45.390        47
45.400        53
45.410        33
45.420        67
45.430        67
45.440        67
45.450        40
45.460        47
45.470        60
45.480        60
45.490        60
45.500        27
45.510        40
45.520        40
45.530        33
45.540        40
45.550        40
45.560        53
45.570        33
45.580        67
45.590        33
45.600        60
45.610        60
45.620        67
45.630        40
45.640        20
45.650        40
45.660        87
45.670        87
45.680        60
45.690        93
45.700        47
45.710        53
45.720        33
45.730        47
45.740        60
45.750        47
45.760        80
45.770        73
45.780        47
45.790        67
45.800        67
45.810        67
45.820        80
45.830        60
45.840        93
45.850        53
45.860        33
45.870        40
45.880        80
45.890        67
45.900        93
45.910       100
45.920        87
45.930        93
45.940        67
45.950        93
45.960       147
45.970       153
45.980        73
45.990        93
46.000       147
46.010       107
46.020       247
46.030       160
46.040       153
46.050       220
46.060       180
46.070       153
46.080       160
46.090       193
46.100       227
46.110       233
46.120       280
46.130       280
46.140       267
46.150       307
46.160       347
46.170       380
46.180       440
46.190       493
46.200       480
46.210       407
46.220       620
46.230       686
46.240       673
46.250       960
46.260       853
46.270       840
46.280       833
46.290      1080
46.300      1193
46.310      1180
46.320      1319
46.330      1466
46.340      1493
46.350      1646
46.360      1426
46.370      1613
46.380      1659
46.390      1733
46.400      1806
46.410      1726
46.420      1606
46.430      1633
46.440      1486
46.450      1546
46.460      1646
46.470      1393
46.480      1279
46.490      1319
46.500      1160
46.510      1086
46.520      1259
46.530      1040
46.540      1000
46.550       773
46.560       853
46.570       766
46.580       746
46.590       580
46.600       553
46.610       586
46.620       546
46.630       446
46.640       440
46.650       307
46.660       273
46.670       273
46.680       340
46.690       193
46.700       193
46.710       240
46.720       240
46.730       233
46.740       207
46.750       133
46.760       173
46.770       187
46.780       120
46.790        87
46.800       140
46.810       107
46.820       167
46.830       153
46.840       147
46.850       107
46.860       120
46.870       133
46.880       120
46.890       167
46.900       113
46.910       140
46.920        67
46.930        80
46.940       127
46.950        60
46.960       153
46.970        67
46.980       127
46.990       113
47.000       120
47.010       120
47.020        87
47.030        73
47.040        87
47.050        87
47.060       107
47.070       113
47.080       160
47.090       120
47.100        93
47.110       100
47.120       147
47.130       127
47.140       147
47.150       173
47.160       247
47.170       213
47.180       473
47.190       540
47.200       626
47.210       833
47.220       740
47.230       706
47.240       600
47.250       593
47.260       486
47.270       380
47.280       260
47.290       227
47.300       140
47.310       153
47.320       113
47.330       120
47.340        80
47.350        73
47.360       133
47.370       107
47.380        80
47.390       100
47.400        53
47.410        67
47.420        80
47.430        47
47.440        47
47.450        47
47.460        53
47.470        80
47.480        53
47.490        40
47.500        47
47.510        53
47.520        20
47.530        27
47.540        13
47.550        47
47.560        60
47.570        80
47.580        60
47.590        60
47.600        27
47.610        67
47.620        33
47.630        47
47.640        73
47.650        53
47.660        53
47.670        73
47.680        53
47.690        60
47.700        67
47.710        53
47.720        27
47.730        27
47.740        73
47.750        67
47.760        67
47.770        27
47.780        53
47.790        40
47.800        20
47.810        67
47.820        60
47.830        53
47.840        73
47.850        20
47.860        47
47.870        33
47.880        13
47.890        27
47.900        27
47.910        73
47.920        53
47.930        13
47.940        47
47.950        73
47.960        80
47.970        20
47.980        73
47.990        60
48.000        47
48.010        20
48.020        40
48.030        80
48.040        40
48.050        33
48.060        20
48.070        53
48.080        67
48.090        53
48.100        27
48.110        67
48.120        33
48.130        87
48.140        47
48.150        33
48.160        53
48.170        20
48.180        47
48.190        33
48.200        27
48.210        47
48.220        40
48.230        47
48.240        53
48.250        73
48.260        47
48.270        53
48.280        67
48.290        33
48.300        47
48.310        13
48.320        33
48.330        47
48.340        53
48.350        60
48.360        47
48.370        47
48.380        40
48.390        40
48.400        33
48.410        27
48.420        80
48.430        20
48.440        47
48.450        47
48.460        60
48.470        27
48.480        27
48.490        53
48.500        40
48.510        20
48.520        47
48.530        27
48.540        47
48.550        53
48.560        93
48.570        47
48.580        60
48.590        20
48.600        33
48.610        27
48.620        27
48.630        20
48.640        20
48.650        33
48.660        47
48.670        53
48.680        60
48.690        27
48.700        33
48.710        47
48.720        20
48.730        27
48.740        73
48.750        27
48.760        40
48.770        40
48.780         7
48.790        53
48.800        20
48.810        27
48.820        47
48.830        53
48.840         7
48.850        27
48.860        20
48.870        27
48.880        27
48.890        67
48.900        20
48.910        20
48.920        13
48.930        47
48.940        60
48.950        47
48.960        53
48.970        67
48.980        27
48.990        20
49.000        33
49.010        33
49.020        20
49.030        40
49.040        40
49.050        33
49.060        47
49.070        47
49.080        20
49.090        33
49.100        20
49.110        20
49.120        53
49.130        40
49.140        33
49.150        53
49.160        20
49.170        27
49.180        47
49.190        20
49.200        40
49.210        33
49.220        20
49.230        27
49.240        60
49.250        60
49.260        53
49.270        47
49.280        33
49.290        27
49.300        33
49.310        13
49.320        40
49.330        60
49.340        33
49.350        20
49.360        20
49.370        27
49.380        40
49.390        27
49.400        40
49.410        47
49.420        33
49.430        20
49.440        73
49.450        47
49.460        47
49.470        40
49.480        47
49.490        27
49.500        47
49.510        67
49.520        20
49.530        47
49.540        47
49.550        27
49.560        53
49.570        33
49.580        20
49.590        13
49.600        33
49.610        27
49.620        47
49.630        27
49.640        60
49.650        33
49.660        20
49.670        20
49.680        27
49.690        40
49.700        33
49.710        53
49.720        40
49.730        53
49.740        53
49.750        40
49.760        53
49.770        27
49.780        13
49.790        20
49.800        33
49.810        40
49.820        40
49.830        47
49.840        13
49.850        47
49.860        33
49.870        33
49.880        27
49.890        33
49.900        73
49.910        47
49.920        40
49.930        60
49.940        40
49.950        73
49.960        33
49.970        67
49.980        27
49.990        27
50.000        13
50.010        13
50.020        20
50.030        27
50.040        33
50.050        33
50.060        47
50.070        60
50.080        47
50.090        27
50.100        33
50.110        40
50.120        33
50.130        67
50.140        47
50.150        27
50.160        27
50.170        33
50.180        20
50.190         7
50.200        40
50.210        40
50.220        27
50.230        27
50.240        33
50.250        13
50.260        20
50.270        27
50.280        40
50.290        47
50.300        13
50.310        47
50.320        20
50.330        27
50.340        13
50.350        40
50.360         7
50.370        33
50.380        20
50.390        33
50.400        20
50.410        73
50.420        53
50.430        27
50.440        40
50.450        27
50.460        60
50.470        53
50.480        73
50.490        47
50.500        20
50.510        27
50.520        80
50.530        40
50.540        53
50.550        53
50.560        40
50.570        47
50.580        73
50.590       107
50.600        33
50.610        93
50.620        80
50.630        93
50.640       113
50.650        53
50.660       107
50.670       127
50.680        73
50.690       140
50.700       140
50.710       167
50.720       153
50.730       240
50.740       180
50.750       273
50.760       233
50.770       253
50.780       207
50.790       240
50.800       220
50.810       267
50.820       280
50.830       220
50.840       180
50.850       240
50.860       233
50.870       247
50.880       273
50.890       227
50.900       240
50.910       293
50.920       227
50.930       260
50.940       240
50.950       200
50.960       207
50.970       167
50.980       280
50.990       240
51.000       187
51.010       333
51.020       187
51.030       147
51.040       240
51.050       267
51.060       140
51.070       227
51.080       240
51.090       240
51.100       227
51.110       207
51.120       207
51.130       173
51.140       227
51.150       147
51.160       233
51.170       247
51.180       240
51.190       240
51.200       287
51.210       193
51.220       240
51.230       273
51.240       233
51.250       240
51.260       193
51.270       200
51.280       193
51.290       260
51.300       220
51.310       200
51.320       233
51.330       187
51.340       240
51.350       240
51.360       247
51.370       240
51.380       233
51.390       193
51.400       207
51.410       253
51.420       247
51.430       207
51.440       240
51.450       320
51.460       247
51.470       293
51.480       293
51.490       220
51.500       307
51.510       213
51.520       220
51.530       293
51.540       233
51.550       287
51.560       260
51.570       313
51.580       293
51.590       320
51.600       240
51.610       353
51.620       280
51.630       227
51.640       187
51.650       240
51.660       287
51.670       187
51.680       347
51.690       187
51.700       380
51.710       193
51.720       240
51.730       240
51.740       240
51.750       333
51.760       333
51.770       280
51.780       273
51.790       280
51.800       253
51.810       313
51.820       293
51.830       213
51.840       287
51.850       247
51.860       273
51.870       220
51.880       360
51.890       327
51.900       220
51.910       300
51.920       300
51.930       300
51.940       293
51.950       287
51.960       380
51.970       320
51.980       420
51.990       353
52.000       333
52.010       360
52.020       347
52.030       220
52.040       333
52.050       373
52.060       413
52.070       433
52.080       466
52.090       393
52.100       347
52.110       440
52.120       486
52.130       400
52.140       407
52.150       413
52.160       400
52.170       446
52.180       586
52.190       580
52.200       500
52.210       753
52.220       733
52.230       706
52.240       720
52.250       773
52.260       746
52.270       800
52.280       966
52.290      1140
52.300      1366
52.310      1559
52.320      1959
52.330      2466
52.340      2612
52.350      3185
52.360      3585
52.370      4298
52.380      5025
52.390      5078
52.400      5624
52.410      6024
52.420      6257
52.430      6497
52.440      7244
52.450      7330
52.460      7637
52.470      7850
52.480      8137
52.490      8137
52.500      9356
52.510      9849
52.520     10836
52.530     12382
52.540     15714
52.550     20405
52.560     29795
52.570     46955
52.580     67306
52.590     87225
52.600    100913
52.610    112995
52.620    117380
52.630    115907
52.640    104405
52.650     81894
52.660     55178
52.670     36272
52.680     24950
52.690     20705
52.700     22704
52.710     28289
52.720     38025
52.730     46808
52.740     56317
52.750     60716
52.760     64014
52.770     61455
52.780     54758
52.790     43289
52.800     29748
52.810     18546
52.820     11782
52.830      7477
52.840      5185
52.850      4098
52.860      3392
52.870      2632
52.880      2379
52.890      2119
52.900      1966
52.910      1646
52.920      1646
52.930      1333
52.940      1233
52.950      1073
52.960      1133
52.970      1060
52.980      1033
52.990      1133
53.000       813
53.010       946
53.020       793
53.030       880
53.040       686
53.050       800
53.060       600
53.070       680
53.080       533
53.090       673
53.100       593
53.110       700
53.120       500
53.130       506
53.140       580
53.150       460
53.160       466
53.170       473
53.180       546
53.190       393
53.200       513
53.210       466
53.220       493
53.230       440
53.240       466
53.250       387
53.260       446
53.270       387
53.280       480
53.290       400
53.300       307
53.310       400
53.320       387
53.330       280
53.340       340
53.350       407
53.360       367
53.370       380
53.380       420
53.390       433
53.400       307
53.410       260
53.420       380
53.430       380
53.440       307
53.450       313
53.460       347
53.470       353
53.480       220
53.490       313
53.500       360
53.510       240
53.520       313
53.530       240
53.540       380
53.550       293
53.560       327
53.570       267
53.580       333
53.590       293
53.600       333
53.610       320
53.620       233
53.630       320
53.640       353
53.650       307
53.660       253
53.670       360
53.680       267
53.690       313
53.700       320
53.710       313
53.720       180
53.730       220
53.740       207
53.750       287
53.760       220
53.770       240
53.780       227
53.790       153
53.800       273
53.810       227
53.820       180
53.830       273
53.840       240
53.850       240
53.860       233
53.870       207
53.880       193
53.890       207
53.900       207
53.910       267
53.920       193
53.930       220
53.940       267
53.950       140
53.960       213
53.970       227
53.980       180
53.990       233
54.000       193
54.010       227
54.020       167
54.030       227
54.040       227
54.050       240
54.060       247
54.070       220
54.080       233
54.090       167
54.100       240
54.110       240
54.120       273
54.130       180
54.140       153
54.150       220
54.160       200
54.170       200
54.180       187
54.190       193
54.200       227
54.210       213
54.220       233
54.230       200
54.240       267
54.250       213
54.260       227
54.270       193
54.280       200
54.290       227
54.300       127
54.310       180
54.320       220
54.330       207
54.340       167
54.350       193
54.360       187
54.370       173
54.380       147
54.390       187
54.400       220
54.410       247
54.420       180
54.430       147
54.440       173
54.450       207
54.460       173
54.470       200
54.480       167
54.490       273
54.500       193
54.510       167
54.520       153
54.530       180
54.540       153
54.550       187
54.560       133
54.570       140
54.580       207
54.590       173
54.600       187
54.610       240
54.620       227
54.630       173
54.640       127
54.650       220
54.660       187
54.670       220
54.680       180
54.690       180
54.700       173
54.710       220
54.720       227
54.730       207
54.740       240
54.750       213
54.760       173
54.770       200
54.780       193
54.790       127
54.800       227
54.810       127
54.820       147
54.830       160
54.840       200
54.850       147
54.860       180
54.870       240
54.880       240
54.890       113
54.900       133
54.910       127
54.920       187
54.930       213
54.940       127
54.950       173
54.960       167
54.970       213
54.980       160
54.990       200
55.000       167
55.010       127
55.020       140
55.030       153
55.040       193
55.050       187
55.060       213
55.070       180
55.080       200
55.090       193
55.100       233
55.110       153
55.120       160
55.130       107
55.140       173
55.150       227
55.160       160
55.170       140
55.180       180
55.190       140
55.200       113
55.210       180
55.220       127
55.230       173
55.240       173
55.250       160
55.260       180
55.270       127
55.280       113
55.290       133
55.300       173
55.310       193
55.320       147
55.330       140
55.340       173
55.350       180
55.360       133
55.370       120
55.380       113
55.390       107
55.400       140
55.410       167
55.420       207
55.430       133
55.440       120
55.450       180
55.460       173
55.470       127
55.480       220
55.490       147
55.500       167
55.510       167
55.520       167
55.530       173
55.540       193
55.550       153
55.560       200
55.570       147
55.580       113
55.590       193
55.600       153
55.610       140
55.620       127
55.630       160
55.640       133
55.650        80
55.660       207
55.670       187
55.680       147
55.690       160
55.700       173
55.710       167
55.720       167
55.730       220
55.740       113
55.750       153
55.760       133
55.770       127
55.780       120
55.790       147
55.800       167
55.810       133
55.820       147
55.830       173
55.840       180
55.850       140
55.860       127
55.870       220
55.880       167
55.890       107
55.900       107
55.910       153
55.920       147
55.930       133
55.940       133
55.950       107
55.960       173
55.970       173
55.980       133
55.990       120
56.000       160
56.010       153
56.020       133
56.030       153
56.040       160
56.050       187
56.060       167
56.070       200
56.080       133
56.090       100
56.100       207
56.110       153
56.120       140
56.130       140
56.140       113
56.150       167
56.160       220
56.170       187
56.180       133
56.190       160
56.200       240
56.210       113
56.220       160
56.230       133
56.240       153
56.250       127
56.260       133
56.270       113
56.280       113
56.290       127
56.300       127
56.310       133
56.320       167
56.330       120
56.340       147
56.350       133
56.360       120
56.370       107
56.380       120
56.390       133
56.400        87
56.410       167
56.420       160
56.430       113
56.440       140
56.450       133
56.460        60
56.470       187
56.480       107
56.490       160
56.500       153
56.510       167
56.520        93
56.530       140
56.540       160
56.550       160
56.560       140
56.570       173
56.580       147
56.590       120
56.600       153
56.610       173
56.620       127
56.630       180
56.640       160
56.650       100
56.660       127
56.670       107
56.680       160
56.690        93
56.700       193
56.710       127
56.720       140
56.730       140
56.740       100
56.750       187
56.760       193
56.770        87
56.780       127
56.790       107
56.800       120
56.810       140
56.820       127
56.830       173
56.840       173
56.850       147
56.860       180
56.870       107
56.880       120
56.890       160
56.900       140
56.910       147
56.920       113
56.930       167
56.940       147
56.950       127
56.960       140
56.970       140
56.980       107
56.990       133
57.000       133
57.010       127
57.020       113
57.030       120
57.040       147
57.050       127
57.060       140
57.070       153
57.080       153
57.090       127
57.100       153
57.110       140
57.120       193
57.130       133
57.140       113
57.150        87
57.160       167
57.170       173
57.180       133
57.190       160
57.200       107
57.210        93
57.220       127
57.230       107
57.240       147
57.250       160
57.260       193
57.270       133
57.280       100
57.290       127
57.300       153
57.310       133
57.320        87
57.330       120
57.340       127
57.350        93
57.360       167
57.370       127
57.380       127
57.390       147
57.400       107
57.410       127
57.420       193
57.430       127
57.440       127
57.450       107
57.460       147
57.470       140
57.480       160
57.490       100
57.500        80
57.510        73
57.520        80
57.530       147
57.540        73
57.550        87
57.560       173
57.570       167
57.580       133
57.590        87
57.600       160
57.610       107
57.620       180
57.630        73
57.640       120
57.650        93
57.660        93
57.670       127
57.680        67
57.690       127
57.700       153
57.710        80
57.720        93
57.730       100
57.740        87
57.750       133
57.760       133
57.770       153
57.780       133
57.790       107
57.800        67
57.810       147
57.820       113
57.830       100
57.840        93
57.850       193
57.860       147
57.870        73
57.880       147
57.890       100
57.900       113
57.910       127
57.920       120
57.930        87
57.940       113
57.950        93
57.960        80
57.970       100
57.980        93
57.990       120
58.000       153
58.010        93
58.020        73
58.030       100
58.040        87
58.050        53
58.060        73
58.070        93
58.080       160
58.090       113
58.100        93
58.110       133
58.120        93
58.130        93
58.140        93
58.150        93
58.160       100
58.170       113
58.180       187
58.190       120
58.200       107
58.210        80
58.220        93
58.230        80
58.240        93
58.250       147
58.260       127
58.270       120
58.280       113
58.290       153
58.300       160
58.310       140
58.320        80
58.330       147
58.340       127
58.350       113
58.360       120
58.370       127
58.380       100
58.390       140
58.400       120
58.410       127
58.420        87
58.430       127
58.440       173
58.450       153
58.460       120
58.470        67
58.480        53
58.490       147
58.500       133
58.510       100
58.520       113
58.530       147
58.540        40
58.550       147
58.560        67
58.570       107
58.580       113
58.590       140
58.600       107
58.610       120
58.620       120
58.630        93
58.640       133
58.650       107
58.660       120
58.670       120
58.680       140
58.690       100
58.700       120
58.710       140
58.720       100
58.730       120
58.740       113
58.750       100
58.760        80
58.770       100
58.780       100
58.790       100
58.800       100
58.810        67
58.820       147
58.830       100
58.840        87
58.850       100
58.860       113
58.870       113
58.880       100
58.890       127
58.900        87
58.910       140
58.920       107
58.930       100
58.940       107
58.950        67
58.960       113
58.970        80
58.980       127
58.990       100
59.000       100
59.010        87
59.020       153
59.030        93
59.040        73
59.050       100
59.060       147
59.070       113
59.080       167
59.090       100
59.100       127
59.110        93
59.120        93
59.130       100
59.140       153
59.150       100
59.160       100
59.170        80
59.180       120
59.190       120
59.200       107
59.210       173
59.220        93
59.230       113
59.240       113
59.250       127
59.260       127
59.270       100
59.280        67
59.290       120
59.300       107
59.310        87
59.320       113
59.330       147
59.340        73
59.350        67
59.360        73
59.370       133
59.380        93
59.390        93
59.400        80
59.410        73
59.420       100
59.430        87
59.440       147
59.450        80
59.460        93
59.470       113
59.480       113
59.490        67
59.500       133
59.510        67
59.520        67
59.530       107
59.540        87
59.550       147
59.560       107
59.570        73
59.580        93
59.590       113
59.600        80
59.610       140
59.620        60
59.630        73
59.640        87
59.650       140
59.660        53
59.670       100
59.680       113
59.690       120
59.700        60
59.710       100
59.720       153
59.730       113
59.740       147
59.750        80
59.760       133
59.770       140
59.780        80
59.790        73
59.800        80
59.810       113
59.820        53
59.830       107
59.840        73
59.850       120
59.860       127
59.870       107
59.880       120
59.890        93
59.900       107
59.910       153
59.920       107
59.930        93
59.940       100
59.950        67
59.960        93
59.970        87
59.980       133
59.990        73
60.000        73
