20.000        40
20.010        40
20.020        27
20.030        67
20.040        67
20.050        53
20.060        87
20.070        27
20.080        73
20.090        67
20.100        27
20.110        20
20.120        40
20.130        60
20.140        27
20.150        33
20.160        40
20.170        20
20.180        60
20.190        60
20.200        87
20.210        53
20.220        27
20.230        33
20.240        60
20.250        47
20.260        53
20.270        47
20.280        80
20.290        60
20.300        27
20.310        47
20.320        87
20.330        27
20.340        53
20.350        47
20.360        20
20.370        33
20.380        40
20.390        47
20.400        53
20.410        20
20.420        53
20.430        20
20.440        27
20.450        40
20.460        40
20.470        40
20.480        40
20.490        33
20.500        40
20.510        60
20.520        40
20.530        33
20.540        27
20.550        33
20.560        40
20.570        53
20.580        40
20.590        80
20.600        27
20.610        47
20.620        67
20.630        40
20.640        33
20.650        53
20.660        27
20.670        33
20.680        27
20.690        40
20.700         7
20.710        60
20.720        53
20.730        47
20.740        27
20.750        27
20.760        60
20.770        33
20.780        40
20.790        33
20.800        53
20.810        33
20.820        20
20.830        13
20.840        40
20.850        40
20.860        53
20.870        40
20.880        53
20.890        33
20.900        67
20.910        47
20.920        67
20.930        33
20.940        40
20.950        53
20.960        33
20.970        53
20.980        27
20.990        60
21.000        47
21.010        60
21.020        13
21.030        47
21.040        47
21.050         7
21.060        40
21.070        80
21.080        27
21.090        33
21.100        33
21.110        20
21.120        27
21.130        33
21.140        47
21.150        40
21.160        87
21.170        33
21.180        53
21.190        60
21.200        47
21.210        47
21.220        27
21.230        33
21.240        53
21.250        13
21.260        27
21.270        67
21.280        20
21.290        33
21.300        20
21.310        53
21.320        93
21.330        33
21.340        87
21.350        20
21.360        33
21.370        40
21.380        47
21.390        60
21.400        60
21.410        33
21.420        67
21.430        67
21.440        27
21.450        20
21.460        47
21.470        40
21.480        47
21.490        20
21.500        47
21.510        40
21.520        60
21.530        60
21.540        40
21.550        40
21.560        20
21.570        53
21.580        20
21.590        40
21.600        40
21.610        20
21.620        53
21.630        67
21.640        47
21.650         0
21.660        33
21.670        53
21.680        67
21.690        53
21.700        47
21.710        60
21.720        47
21.730        53
21.740        53
21.750        40
21.760        27
21.770        33
21.780        53
21.790        33
21.800        33
21.810         7
21.820        13
21.830        60
21.840        13
21.850        40
21.860        33
21.870        67
21.880        27
21.890        27
21.900        53
21.910        27
21.920        40
21.930        40
21.940        53
21.950        40
21.960        53
21.970        27
21.980        40
21.990        53
22.000        73
22.010        47
22.020        47
22.030        67
22.040        60
22.050        27
22.060        80
22.070        47
22.080        47
22.090        47
22.100        47
22.110        27
22.120        60
22.130        67
22.140        33
22.150        27
22.160        47
22.170        40
22.180        40
22.190        67
22.200        13
22.210        27
22.220        40
22.230        80
22.240        73
22.250        60
22.260        40
22.270        60
22.280        40
22.290         7
22.300        27
22.310        60
22.320        53
22.330        53
22.340        47
22.350        73
22.360        40
22.370       100
22.380        53
22.390        47
22.400        73
22.410       100
22.420        60
22.430        53
22.440        87
22.450        67
22.460        60
22.470        53
22.480        33
22.490        67
22.500        60
22.510        80
22.520       100
22.530        80
22.540        80
22.550       100
22.560       107
22.570        73
22.580        80
22.590        73
22.600        93
22.610        67
22.620       127
22.630       100
22.640        47
22.650       113
22.660        53
22.670        40
22.680        87
22.690        73
22.700        60
22.710       120
22.720        67
22.730        47
22.740        73
22.750        60
22.760        67
22.770        60
22.780        53
22.790        87
22.800        33
22.810        40
22.820        47
22.830        40
22.840        33
22.850        47
22.860       100
22.870        67
22.880        33
22.890        40
22.900        47
22.910        67
22.920        53
22.930        33
22.940        60
22.950        33
22.960        47
22.970        73
22.980        40
22.990        40
23.000        60
23.010        47
23.020        67
23.030        73
23.040        73
23.050        33
23.060        13
23.070        40
23.080        80
23.090        33
23.100        40
23.110        53
23.120        33
23.130        67
23.140        27
23.150        40
23.160        53
23.170        47
23.180        67
23.190        67
23.200        53
23.210        20
23.220        67
23.230        53
23.240        47
23.250        47
23.260        53
23.270        40
23.280        47
23.290        47
23.300        20
23.310        60
23.320        27
23.330        40
23.340        73
23.350        40
23.360        13
23.370        47
23.380        20
23.390        20
23.400        33
23.410        40
23.420        60
23.430        33
23.440        27
23.450        53
23.460        40
23.470        40
23.480        47
23.490        47
23.500        33
23.510        40
23.520        33
23.530        53
23.540        53
23.550        60
23.560        13
23.570        40
23.580        27
23.590        40
23.600        40
23.610        20
23.620        60
23.630        67
23.640        33
23.650        40
23.660        20
23.670        27
23.680        27
23.690        53
23.700        40
23.710        40
23.720        33
23.730        27
23.740        60
23.750         7
23.760        47
23.770        73
23.780        40
23.790        33
23.800        73
23.810        53
23.820        27
23.830        47
23.840        20
23.850        47
23.860        20
23.870        20
23.880        40
23.890        27
23.900        27
23.910        27
23.920        40
23.930        27
23.940        33
23.950        40
23.960        27
23.970        33
23.980        47
23.990        40
24.000        47
24.010        40
24.020        53
24.030         7
24.040        53
24.050        40
24.060        27
24.070         0
24.080        27
24.090        13
24.100        40
24.110        27
24.120        33
24.130        40
24.140        20
24.150        47
24.160        27
24.170        47
24.180        13
24.190        13
24.200        20
24.210        53
24.220        33
24.230        53
24.240        47
24.250        27
24.260        27
24.270        73
24.280        27
24.290        33
24.300        27
24.310        33
24.320        13
24.330        47
24.340        13
24.350        27
24.360        33
24.370        60
24.380        27
24.390        53
24.400        40
24.410        27
24.420        40
24.430        53
24.440        40
24.450        47
24.460        20
24.470        47
24.480        13
24.490        47
24.500        33
24.510        33
24.520        53
24.530        47
24.540         7
24.550        40
24.560        40
24.570        40
24.580        67
24.590        20
24.600        13
24.610        40
24.620        40
24.630         7
24.640        47
24.650        27
24.660        40
24.670        47
24.680        40
24.690         7
24.700        27
24.710        60
24.720        40
24.730        47
24.740        60
24.750        13
24.760        13
24.770        53
24.780        40
24.790        73
24.800        53
24.810        13
24.820        20
24.830        27
24.840        47
24.850        33
24.860        33
24.870        33
24.880        33
24.890        47
24.900        33
24.910         7
24.920        13
24.930        47
24.940        20
24.950        27
24.960        53
24.970        20
24.980        20
24.990        27
25.000        33
25.010        53
25.020        27
25.030         7
25.040        53
25.050        27
25.060        47
25.070        27
25.080        40
25.090        13
25.100        33
25.110        40
25.120        47
25.130        87
25.140        40
25.150        40
25.160        53
25.170        40
25.180        47
25.190         7
25.200        40
25.210        27
25.220        40
25.230        40
25.240        33
25.250        20
25.260        27
25.270        47
25.280        53
25.290        47
25.300        47
25.310        13
25.320        33
25.330        33
25.340        47
25.350        47
25.360        40
25.370        33
25.380        27
25.390        27
25.400        73
25.410        27
25.420        33
25.430        80
25.440       127
25.450        33
25.460        27
25.470        27
25.480        87
25.490        80
25.500        67
25.510       120
25.520        67
25.530        80
25.540        47
25.550        93
25.560        47
25.570        53
25.580        93
25.590       133
25.600        67
25.610        60
25.620        73
25.630        67
25.640        67
25.650        73
25.660        80
25.670        47
25.680        67
25.690        60
25.700        67
25.710        33
25.720        33
25.730        27
25.740        27
25.750        27
25.760        40
25.770        20
25.780        13
25.790        67
25.800        47
25.810        53
25.820        20
25.830        53
25.840        53
25.850        13
25.860        20
25.870        20
25.880        60
25.890        33
25.900        20
25.910        20
25.920        13
25.930        40
25.940        13
25.950        33
25.960        20
25.970        27
25.980        27
25.990        40
26.000        40
26.010        33
26.020        27
26.030        27
26.040        27
26.050        40
26.060        53
26.070        47
26.080        33
26.090        20
26.100        47
26.110         7
26.120        33
26.130        33
26.140        33
26.150        33
26.160        27
26.170        27
26.180        40
26.190        40
26.200        27
26.210        13
26.220        33
26.230        33
26.240        20
26.250        60
26.260        40
26.270        20
26.280        47
26.290        20
26.300        27
26.310        40
26.320         7
26.330        47
26.340        40
26.350        53
26.360        40
26.370        13
26.380        33
26.390        47
26.400        27
26.410        53
26.420        40
26.430        27
26.440        33
26.450        40
26.460        27
26.470        40
26.480        53
26.490        13
26.500        40
26.510         0
26.520        27
26.530        40
26.540        13
26.550        40
26.560        40
26.570        27
26.580        27
26.590        53
26.600        67
26.610        33
26.620        33
26.630        33
26.640        40
26.650        27
26.660        20
26.670        40
26.680        27
26.690        33
26.700        33
26.710        27
26.720        40
26.730        27
26.740        47
26.750        13
26.760         7
26.770        33
26.780        27
26.790        40
26.800        67
26.810        33
26.820        33
26.830        40
26.840        33
26.850        27
26.860        47
26.870        33
26.880        20
26.890        13
26.900        47
26.910        67
26.920        13
26.930        93
26.940        33
26.950        13
26.960        47
26.970        33
26.980        60
26.990        40
27.000        33
27.010        40
27.020        60
27.030        47
27.040        33
27.050        33
27.060        47
27.070        20
27.080        47
27.090        80
27.100        20
27.110        47
27.120        27
27.130         7
27.140        27
27.150        20
27.160         7
27.170        13
27.180        27
27.190        27
27.200        47
27.210        27
27.220        40
27.230        33
27.240        33
27.250        13
27.260        40
27.270        27
27.280        33
27.290        40
27.300        20
27.310         7
27.320        40
27.330        33
27.340        13
27.350        33
27.360        20
27.370        33
27.380        27
27.390         7
27.400        40
27.410         7
27.420        27
27.430        40
27.440        20
27.450        33
27.460        53
27.470        33
27.480        53
27.490         7
27.500        67
27.510        33
27.520        20
27.530        40
27.540        40
27.550        27
27.560        20
27.570        33
27.580        47
27.590         7
27.600        33
27.610        40
27.620        33
27.630        53
27.640        47
27.650        27
27.660        53
27.670        27
27.680        53
27.690        60
27.700        27
27.710        33
27.720        20
27.730        20
27.740        20
27.750        40
27.760        33
27.770        47
27.780        47
27.790        33
27.800        27
27.810        27
27.820        20
27.830        13
27.840        27
27.850        27
27.860        40
27.870        40
27.880        53
27.890        27
27.900        47
27.910        27
27.920        20
27.930        27
27.940        33
27.950        47
27.960        20
27.970        47
27.980        13
27.990        27
28.000        27
28.010        40
28.020        47
28.030        13
28.040        33
28.050        27
28.060        27
28.070        20
28.080         7
28.090        60
28.100        47
28.110        13
28.120         7
28.130        53
28.140        27
28.150        20
28.160        33
28.170        27
28.180        27
28.190        40
28.200        20
28.210        27
28.220        27
28.230        27
28.240        13
28.250        47
28.260        13
28.270        13
28.280        47
28.290        60
28.300        27
28.310         7
28.320        40
28.330        33
28.340        33
28.350        27
28.360        27
28.370        53
28.380        60
28.390        40
28.400        47
28.410        20
28.420        20
28.430        33
28.440        27
28.450        33
28.460        73
28.470        40
28.480        20
28.490        47
28.500        47
28.510        13
28.520        20
28.530        20
28.540        47
28.550        27
28.560         0
28.570        20
28.580         7
28.590        27
28.600        13
28.610        27
28.620        27
28.630        27
28.640        27
28.650        20
28.660        40
28.670        80
28.680        20
28.690        20
28.700        33
28.710        53
28.720        33
28.730        40
28.740        40
28.750        20
28.760        33
28.770        33
28.780        33
28.790        20
28.800        13
28.810        47
28.820        20
28.830        27
28.840        40
28.850        27
28.860        27
28.870        53
28.880        47
28.890        27
28.900        27
28.910        47
28.920        27
28.930        27
28.940        47
28.950        13
28.960        20
28.970        13
28.980        47
28.990        33
29.000        13
29.010        33
29.020        40
29.030        33
29.040        27
29.050        47
29.060        67
29.070        33
29.080        20
29.090        27
29.100        40
29.110        13
29.120        27
29.130        53
29.140        40
29.150        33
29.160         0
29.170        27
29.180        33
29.190        47
29.200        47
29.210        20
29.220        20
29.230        40
29.240        33
29.250        27
29.260        20
29.270        27
29.280        47
29.290        33
29.300        27
29.310        27
29.320        27
29.330        40
29.340        40
29.350         7
29.360        27
29.370        47
29.380        40
29.390        20
29.400        20
29.410        13
29.420        53
29.430        33
29.440        20
29.450        27
29.460        20
29.470        53
29.480        27
29.490        27
29.500        27
29.510        73
29.520        13
29.530        40
29.540        13
29.550        33
29.560        27
29.570        33
29.580        27
29.590        47
29.600        40
29.610        53
29.620        13
29.630        33
29.640        20
29.650        40
29.660        20
29.670        40
29.680        20
29.690        20
29.700        33
29.710        40
29.720        27
29.730        47
29.740        20
29.750        27
29.760        47
29.770        27
29.780        53
29.790        27
29.800        20
29.810         7
29.820        33
29.830        27
29.840        40
29.850        27
29.860        20
29.870        47
29.880        33
29.890        53
29.900        40
29.910        33
29.920        47
29.930        40
29.940        27
29.950        27
29.960         7
29.970        27
29.980        33
29.990        33
30.000        33
30.010        20
30.020        33
30.030        20
30.040        33
30.050        27
30.060        40
30.070        13
30.080        33
30.090        33
30.100        27
30.110        27
30.120        13
30.130        33
30.140        27
30.150        27
30.160        60
30.170        20
30.180        13
30.190        40
30.200        33
30.210        33
30.220        47
30.230        20
30.240        40
30.250        27
30.260        27
30.270        20
30.280        27
30.290        27
30.300        47
30.310        40
30.320        40
30.330        53
30.340        47
30.350        47
30.360        47
30.370        33
30.380         7
30.390        20
30.400        53
30.410        53
30.420        47
30.430        27
30.440        27
30.450         7
30.460        20
30.470        27
30.480        47
30.490        53
30.500        53
30.510        33
30.520        33
30.530        47
30.540        20
30.550        20
30.560         7
30.570        27
30.580        47
30.590        73
30.600        47
30.610        27
30.620        60
30.630        27
30.640        47
30.650        27
30.660        33
30.670        27
30.680        27
30.690        47
30.700        27
30.710         7
30.720        47
30.730        13
30.740        13
30.750        53
30.760        27
30.770        33
30.780        20
30.790        33
30.800        67
30.810        47
30.820        27
30.830        27
30.840        27
30.850        40
30.860        47
30.870        33
30.880        27
30.890        33
30.900        20
30.910        27
30.920        60
30.930         7
30.940         7
30.950        13
30.960        13
30.970        20
30.980        27
30.990         7
31.000        27
31.010        13
31.020        27
31.030        27
31.040        27
31.050        40
31.060        33
31.070        33
31.080        53
31.090        33
31.100        20
31.110        60
31.120        40
31.130        47
31.140        27
31.150        60
31.160        40
31.170        73
31.180        47
31.190        27
31.200        60
31.210        53
31.220        33
31.230        27
31.240        53
31.250        47
31.260        33
31.270        47
31.280         0
31.290        47
31.300        80
31.310        53
31.320        53
31.330        60
31.340        33
31.350        60
31.360        27
31.370        13
31.380        27
31.390        40
31.400        20
31.410        47
31.420        47
31.430        47
31.440        27
31.450        53
31.460        53
31.470        27
31.480        53
31.490        33
31.500        47
31.510        47
31.520        33
31.530        60
31.540        53
31.550        47
31.560        13
31.570        47
31.580        33
31.590        80
31.600        27
31.610        53
31.620        60
31.630        60
31.640        13
31.650        73
31.660        73
31.670        53
31.680        87
31.690        40
31.700        47
31.710        80
31.720        73
31.730        53
31.740        47
31.750        53
31.760        67
31.770        47
31.780        60
31.790        27
31.800        93
31.810        33
31.820        67
31.830        40
31.840       107
31.850        87
31.860        80
31.870       113
31.880       140
31.890        87
31.900       133
31.910       120
31.920        93
31.930       120
31.940       160
31.950       153
31.960       167
31.970       120
31.980       213
31.990       107
32.000       247
32.010       147
32.020       187
32.030       173
32.040       193
32.050       233
32.060       200
32.070       167
32.080       213
32.090       247
32.100       240
32.110       247
32.120       227
32.130       227
32.140       300
32.150       260
32.160       247
32.170       227
32.180       247
32.190       300
32.200       233
32.210       313
32.220       293
32.230       300
32.240       360
32.250       307
32.260       267
32.270       347
32.280       293
32.290       267
32.300       353
32.310       307
32.320       367
32.330       333
32.340       313
32.350       280
32.360       327
32.370       240
32.380       227
32.390       353
32.400       233
32.410       340
32.420       333
32.430       280
32.440       200
32.450       147
32.460       180
32.470       267
32.480       207
32.490       213
32.500       147
32.510       213
32.520       240
32.530       160
32.540       127
32.550       140
32.560       173
32.570       167
32.580       147
32.590       120
32.600       173
32.610       120
32.620       133
32.630       127
32.640       100
32.650       133
32.660       127
32.670        67
32.680       107
32.690        93
32.700       133
32.710       100
32.720        67
32.730        47
32.740        73
32.750        87
32.760        73
32.770        80
32.780       113
32.790        80
32.800        80
32.810        47
32.820       113
32.830        80
32.840        80
32.850        47
32.860        60
32.870        60
32.880        67
32.890        60
32.900        33
32.910        73
32.920        93
32.930        40
32.940        60
32.950        73
32.960        53
32.970        73
32.980        67
32.990        27
33.000        20
33.010        67
33.020        93
33.030        60
33.040        47
33.050        67
33.060        20
33.070        20
33.080        33
33.090        47
33.100        40
33.110        53
33.120        27
33.130        27
33.140        13
33.150        20
33.160        27
33.170        47
33.180        33
33.190        40
33.200        40
33.210        20
33.220        20
33.230        60
33.240        80
33.250        33
33.260        20
33.270        27
33.280        47
33.290        13
33.300        33
33.310        33
33.320        47
33.330        33
33.340        20
33.350        53
33.360        27
33.370         7
33.380        27
33.390        13
33.400        27
33.410        13
33.420        33
33.430        33
33.440        33
33.450        27
33.460        13
33.470        33
33.480        20
33.490        27
33.500        20
33.510        13
33.520        27
33.530        40
33.540        33
33.550        80
33.560        20
33.570        27
33.580        20
33.590        33
33.600        20
33.610        33
33.620        40
33.630        20
33.640        33
33.650        33
33.660        33
33.670        53
33.680        73
33.690        33
33.700        40
33.710        33
33.720        47
33.730        27
33.740        47
33.750        53
33.760        20
33.770        33
33.780        13
33.790        27
33.800        27
33.810        33
33.820        53
33.830         7
33.840        53
33.850        13
33.860        27
33.870        27
33.880         7
33.890        47
33.900        47
33.910        53
33.920        20
33.930        20
33.940        27
33.950        27
33.960        33
33.970         7
33.980        20
33.990        33
34.000        27
34.010        20
34.020        60
34.030        47
34.040        13
34.050        47
34.060        40
34.070        33
34.080        20
34.090        13
34.100        27
34.110        20
34.120        13
34.130        47
34.140        13
34.150        33
34.160        27
34.170        40
34.180        20
34.190        13
34.200        33
34.210         7
34.220        20
34.230        20
34.240        33
34.250        33
34.260        20
34.270        40
34.280        40
34.290        13
34.300        33
34.310        53
34.320        33
34.330        13
34.340        20
34.350        27
34.360        20
34.370         7
34.380        27
34.390        33
34.400        33
34.410        40
34.420        33
34.430        33
34.440        13
34.450        33
34.460        47
34.470        13
34.480        47
34.490        33
34.500        40
34.510        13
34.520        40
34.530        53
34.540        33
34.550        27
34.560        33
34.570        47
34.580        27
34.590        13
34.600        53
34.610         7
34.620        47
34.630        40
34.640        33
34.650        27
34.660        40
34.670        33
34.680        27
34.690        13
34.700         7
34.710        27
34.720         7
34.730        40
34.740        27
34.750        27
34.760        13
34.770        40
34.780        40
34.790        47
34.800        47
34.810        47
34.820        40
34.830        33
34.840        27
34.850        60
34.860        27
34.870        40
34.880        53
34.890        27
34.900        73
34.910        53
34.920        27
34.930        40
34.940        60
34.950        80
34.960        73
34.970        93
34.980        53
34.990       100
35.000        53
35.010        87
35.020        53
35.030        93
35.040       100
35.050       113
35.060        53
35.070        80
35.080       120
35.090       127
35.100       167
35.110       153
35.120       233
35.130       247
35.140       307
35.150       360
35.160       486
35.170       513
35.180       560
35.190       500
35.200       706
35.210       713
35.220       526
35.230       387
35.240       333
35.250       287
35.260       240
35.270       347
35.280       293
35.290       327
35.300       267
35.310       287
35.320       147
35.330       180
35.340        53
35.350        47
35.360        60
35.370        27
35.380        80
35.390        47
35.400        20
35.410        13
35.420        53
35.430        60
35.440        20
35.450        47
35.460        13
35.470        40
35.480        27
35.490        27
35.500        47
35.510        53
35.520        47
35.530        47
35.540        20
35.550         7
35.560        20
35.570         7
35.580        27
35.590        20
35.600        20
35.610        13
35.620         0
35.630         0
35.640        33
35.650        20
35.660        40
35.670        33
35.680        27
35.690        60
35.700        27
35.710         7
35.720        33
35.730        60
35.740        33
35.750        27
35.760        27
35.770        13
35.780        33
35.790        40
35.800        40
35.810         7
35.820        33
35.830        20
35.840        47
35.850        13
35.860        33
35.870        27
35.880        13
35.890        20
35.900        27
35.910        33
35.920        47
35.930        53
35.940        13
35.950        40
35.960        13
35.970        13
35.980         7
35.990        13
36.000        13
36.010         0
36.020        47
36.030        13
36.040        20
36.050        33
36.060        20
36.070        20
36.080        20
36.090        13
36.100        13
36.110        40
36.120        53
36.130        13
36.140        20
36.150        40
36.160        27
36.170        13
36.180        40
36.190        20
36.200        20
36.210        47
36.220         7
36.230        27
36.240        20
36.250        20
36.260        27
36.270        20
36.280        20
36.290         7
36.300        40
36.310         0
36.320        27
36.330        20
36.340        27
36.350        27
36.360         0
36.370        13
36.380        67
36.390         7
36.400        47
36.410        20
36.420        40
36.430         7
36.440         7
36.450        33
36.460        27
36.470        47
36.480        27
36.490        47
36.500        20
36.510        27
36.520        33
36.530        33
36.540        20
36.550        27
36.560        13
36.570        27
36.580        13
36.590        40
36.600        27
36.610         7
36.620        13
36.630        13
36.640        40
36.650        47
36.660        33
36.670        33
36.680        20
36.690        27
36.700        33
36.710        27
36.720        33
36.730        13
36.740        33
36.750        47
36.760        20
36.770        20
36.780        13
36.790        13
36.800        27
36.810        33
36.820        27
36.830        27
36.840        13
36.850        33
36.860        13
36.870        27
36.880        53
36.890        33
36.900        33
36.910        20
36.920        20
36.930        20
36.940        27
36.950        33
36.960        33
36.970        33
36.980        33
36.990        13
37.000        13
37.010        20
37.020        13
37.030        27
37.040        47
37.050        27
37.060        53
37.070        40
37.080        20
37.090        27
37.100        13
37.110        47
37.120        13
37.130        27
37.140        27
37.150        20
37.160        33
37.170        20
37.180        13
37.190        20
37.200        33
37.210        20
37.220        27
37.230        13
37.240        33
37.250         7
37.260        13
37.270        27
37.280        20
37.290        27
37.300        20
37.310         0
37.320        33
37.330        33
37.340        20
37.350        20
37.360        67
37.370        73
37.380        20
37.390        13
37.400        13
37.410        20
37.420        27
37.430        13
37.440        27
37.450        13
37.460        47
37.470        67
37.480        27
37.490        67
37.500        27
37.510        20
37.520        13
37.530        27
37.540        13
37.550        40
37.560        20
37.570        13
37.580        47
37.590        33
37.600        20
37.610        20
37.620        60
37.630        40
37.640        40
37.650        27
37.660        40
37.670        33
37.680        47
37.690        93
37.700        60
37.710        67
37.720        40
37.730       100
37.740       120
37.750       133
37.760       160
37.770       193
37.780       220
37.790       287
37.800       233
37.810       327
37.820       247
37.830       273
37.840       260
37.850       227
37.860       173
37.870       140
37.880       173
37.890       153
37.900       127
37.910       207
37.920       120
37.930       173
37.940        87
37.950        87
37.960        73
37.970        13
37.980        47
37.990        47
38.000        27
38.010         7
38.020        20
38.030        33
38.040        13
38.050        60
38.060        20
38.070        40
38.080        20
38.090         0
38.100        20
38.110        20
38.120         0
38.130        20
38.140        20
38.150        27
38.160        27
38.170        20
38.180        27
38.190        20
38.200        27
38.210        27
38.220        20
38.230        33
38.240        13
38.250        13
38.260        33
38.270        20
38.280        13
38.290        13
38.300        27
38.310        13
38.320        27
38.330        40
38.340        13
38.350        20
38.360        40
38.370        40
38.380        80
38.390        20
38.400         7
38.410         7
38.420        20
38.430        27
38.440        27
38.450        20
38.460        27
38.470        20
38.480        13
38.490        27
38.500        13
38.510        13
38.520        27
38.530         7
38.540        27
38.550        27
38.560        67
38.570        20
38.580        60
38.590        20
38.600        40
38.610        13
38.620         7
38.630        53
38.640        27
38.650        27
38.660        53
38.670         0
38.680         7
38.690        13
38.700        53
38.710         7
38.720        33
38.730        27
38.740        13
38.750        20
38.760        20
38.770        27
38.780         7
38.790        47
38.800        33
38.810        13
38.820        40
38.830        47
38.840        20
38.850        13
38.860        60
38.870        27
38.880        27
38.890        27
38.900        27
38.910        53
38.920        40
38.930         7
38.940        20
38.950        60
38.960        20
38.970        27
38.980        20
38.990        47
39.000        20
39.010        27
39.020        27
39.030        27
39.040        27
39.050        27
39.060        27
39.070        20
39.080        13
39.090        47
39.100        27
39.110        33
39.120        47
39.130        20
39.140        20
39.150        33
39.160        13
39.170        27
39.180        13
39.190        27
39.200        40
39.210        27
39.220        40
39.230        27
39.240         7
39.250         7
39.260        20
39.270        33
39.280         7
39.290         0
39.300        13
39.310        20
39.320        20
39.330        20
39.340        13
39.350         7
39.360        27
39.370        33
39.380        47
39.390        53
39.400        33
39.410        20
39.420        27
39.430        20
39.440        47
39.450        27
39.460        20
39.470        27
39.480         0
39.490        13
39.500        53
39.510        20
39.520        20
39.530        33
39.540        53
39.550        27
39.560         7
39.570         7
39.580        13
39.590        13
39.600        33
39.610         7
39.620        20
39.630        13
39.640        13
39.650        33
39.660        13
39.670        20
39.680        20
39.690        20
39.700        40
39.710        33
39.720        27
39.730        13
39.740        40
39.750        47
39.760        33
39.770        40
39.780        47
39.790        27
39.800        13
39.810        40
39.820        13
39.830        40
39.840        20
39.850        67
39.860        33
39.870        27
39.880        20
39.890        33
39.900        33
39.910        47
39.920        47
39.930        27
39.940         0
39.950        27
39.960        13
39.970        20
39.980        60
39.990        27
40.000        27
40.010        13
40.020        40
40.030        33
40.040        33
40.050        13
40.060        47
40.070        20
40.080        33
40.090        33
40.100        27
40.110        27
40.120        33
40.130        67
40.140        13
40.150        20
40.160        40
40.170        33
40.180        33
40.190        13
40.200        33
40.210        20
40.220        53
40.230        13
40.240        20
40.250        13
40.260        13
40.270        20
40.280        20
40.290        13
40.300        27
40.310         7
40.320        33
40.330        13
40.340        20
40.350        27
40.360        13
40.370        27
40.380        33
40.390        33
40.400        33
40.410        33
40.420        13
40.430        13
40.440         7
40.450        33
40.460        13
40.470        33
40.480        33
40.490        20
40.500        20
40.510         7
40.520        20
40.530        20
40.540        27
40.550        47
40.560        27
40.570         7
40.580        27
40.590        20
40.600        40
40.610        27
40.620        13
40.630        27
40.640        47
40.650        20
40.660        20
40.670        27
40.680         7
40.690        13
40.700        20
40.710         7
40.720        40
40.730        13
40.740        20
40.750         7
40.760        27
40.770        20
40.780        27
40.790        20
40.800        33
40.810        13
40.820        27
40.830         0
40.840         7
40.850         0
40.860        40
40.870        27
40.880        33
40.890        47
40.900        40
40.910        13
40.920        13
40.930        27
40.940         7
40.950        33
40.960         7
40.970        33
40.980        47
40.990         0
41.000        27
41.010        40
41.020        20
41.030        40
41.040        20
41.050        13
41.060        33
41.070        20
41.080        13
41.090        20
41.100        33
41.110        27
41.120        20
41.130        20
41.140        27
41.150        20
41.160        20
41.170        13
41.180        13
41.190        13
41.200        27
41.210        13
41.220        40
41.230        13
41.240        33
41.250        27
41.260        20
41.270        27
41.280         7
41.290        13
41.300        47
41.310        13
41.320        20
41.330         7
41.340        20
41.350        13
41.360        33
41.370        27
41.380        40
41.390        27
41.400        20
41.410        13
41.420        20
41.430        27
41.440        40
41.450        40
41.460        20
41.470        40
41.480        33
41.490        33
41.500        40
41.510        27
41.520        47
41.530        33
41.540        27
41.550        27
41.560        40
41.570        40
41.580        53
41.590        47
41.600        53
41.610        40
41.620        80
41.630        67
41.640       113
41.650       107
41.660        93
41.670       120
41.680       153
41.690       187
41.700       153
41.710       113
41.720       120
41.730       120
41.740        80
41.750        67
41.760       127
41.770        87
41.780       100
41.790        87
41.800        73
41.810        60
41.820        73
41.830        93
41.840        93
41.850        47
41.860        53
41.870        20
41.880        40
41.890        47
41.900        33
41.910        27
41.920        60
41.930        20
41.940        13
41.950        27
41.960         7
41.970        27
41.980        20
41.990        33
42.000        60
42.010        33
42.020        33
42.030        13
42.040        20
42.050        33
42.060        40
42.070         7
42.080        40
42.090        20
42.100        13
42.110        20
42.120        20
42.130         7
42.140        13
42.150        27
42.160        13
42.170        47
42.180        47
42.190        40
42.200         7
42.210        27
42.220        20
42.230         7
42.240        40
42.250        33
42.260        13
42.270        20
42.280        20
42.290        27
42.300        27
42.310        33
42.320        13
42.330        20
42.340        27
42.350        13
42.360        13
42.370        20
42.380         7
42.390        20
42.400        20
42.410        27
42.420        60
42.430        33
42.440         7
42.450        53
42.460        27
42.470        33
42.480        13
42.490        20
42.500        47
42.510        27
42.520        20
42.530        20
42.540        20
42.550        20
42.560        33
42.570        27
42.580        13
42.590        20
42.600        13
42.610        20
42.620        33
42.630        20
42.640        33
42.650        13
42.660        60
42.670         7
42.680         7
42.690        33
42.700        20
42.710        40
42.720        13
42.730        40
42.740        33
42.750        27
42.760         7
42.770        20
42.780        27
42.790        40
42.800         7
42.810        40
42.820        13
42.830        13
42.840        13
42.850        13
42.860        20
42.870         7
42.880         7
42.890         7
42.900        20
42.910        13
42.920        20
42.930        20
42.940        40
42.950        20
42.960        27
42.970        20
42.980        53
42.990        40
43.000        13
43.010        60
43.020        40
43.030         7
43.040        27
43.050        33
43.060        53
43.070        40
43.080        27
43.090        47
43.100        40
43.110        47
43.120        20
43.130        33
43.140        27
43.150        53
43.160        20
43.170        60
43.180        13
43.190        33
43.200        80
43.210        67
43.220        27
43.230        60
43.240        87
43.250        60
43.260        53
43.270        73
43.280        87
43.290        87
43.300        73
43.310        93
43.320        93
43.330        80
43.340       147
43.350       167
43.360       187
43.370       293
43.380       253
43.390       207
43.400       220
43.410       253
43.420       213
43.430       167
43.440       113
43.450       167
43.460       160
43.470       107
43.480       120
43.490       140
43.500       140
43.510       127
43.520       160
43.530       113
43.540        87
43.550        60
43.560        93
43.570        60
43.580        40
43.590        53
43.600        13
43.610        27
43.620        13
43.630        13
43.640        47
43.650        40
43.660        20
43.670        40
43.680        27
43.690        20
43.700        27
43.710        13
43.720        33
43.730        40
43.740        27
43.750        20
43.760        27
43.770        33
43.780        47
43.790        40
43.800        13
43.810        20
43.820        20
43.830        33
43.840        33
43.850        27
43.860        20
43.870        33
43.880        27
43.890        20
43.900        27
43.910        13
43.920         7
43.930        27
43.940        13
43.950        33
43.960        27
43.970        20
43.980        33
43.990        40
44.000        33
44.010        27
44.020        53
44.030        27
44.040         7
44.050        27
44.060        33
44.070        20
44.080        20
44.090        20
44.100        40
44.110        47
44.120        40
44.130        13
44.140        13
44.150        33
44.160         7
44.170        27
44.180        20
44.190        53
44.200        13
44.210         7
44.220        33
44.230        27
44.240        33
44.250         7
44.260        40
44.270        13
44.280        33
44.290        20
44.300        20
44.310        27
44.320        33
44.330        33
44.340        33
44.350        20
44.360        27
44.370        33
44.380        33
44.390        13
44.400        27
44.410        20
44.420        27
44.430        13
44.440         7
44.450        27
44.460        47
44.470        20
44.480        20
44.490        20
44.500        47
44.510        20
44.520        20
44.530        13
44.540        33
44.550        40
44.560        13
44.570        33
44.580        20
44.590        27
44.600        53
44.610         7
44.620        20
44.630        33
44.640        60
44.650        40
44.660        40
44.670        53
44.680        20
44.690        27
44.700        13
44.710        13
44.720        13
44.730        53
44.740        40
44.750        33
44.760        20
44.770        13
44.780        33
44.790        20
44.800        60
44.810        27
44.820         7
44.830        27
44.840        33
44.850        20
44.860        27
44.870        13
44.880        47
44.890        27
44.900        27
44.910        40
44.920        53
44.930        33
44.940        40
44.950        47
44.960        60
44.970        33
44.980        20
44.990        40
45.000        53
45.010        33
45.020        27
45.030        60
45.040        47
45.050        67
45.060        47
45.070        80
45.080        40
45.090        20
45.100        47
45.110        40
45.120        20
45.130        40
45.140        73
45.150        33
45.160        47
45.170        53
45.180        27
45.190        47
45.200         7
45.210        40
45.220        33
45.230        53
45.240        27
45.250        33
45.260        47
45.270        27
45.280        53
45.290        47
45.300        47
45.310        67
45.320        33
45.330        40
45.340        67
45.350        60
45.360        67
45.370        53
45.380        47
45.390        67
45.400        67
45.410        40
45.420       107
45.430        47
45.440        80
45.450        33
45.460       113
45.470        73
45.480        60
45.490        53
45.500        67
45.510        47
45.520        33
45.530        60
45.540        87
45.550        80
45.560        87
45.570        87
45.580        87
45.590        93
45.600       107
45.610        93
45.620        87
45.630       147
45.640       120
45.650       113
45.660       160
45.670        87
45.680       133
45.690        80
45.700        93
45.710       160
45.720       140
45.730       120
45.740       187
45.750       147
45.760       213
45.770       193
45.780       193
45.790       193
45.800       193
45.810       200
45.820       113
45.830       240
45.840       207
45.850       227
45.860       173
45.870       260
45.880       267
45.890       227
45.900       220
45.910       167
45.920       233
45.930       160
45.940       180
45.950       247
45.960       260
45.970       233
45.980       180
45.990       200
46.000       233
46.010       293
46.020       280
46.030       187
46.040       313
46.050       220
46.060       300
46.070       300
46.080       287
46.090       273
46.100       260
46.110       240
46.120       233
46.130       247
46.140       247
46.150       267
46.160       253
46.170       187
46.180       320
46.190       227
46.200       280
46.210       240
46.220       327
46.230       247
46.240       280
46.250       207
46.260       267
46.270       267
46.280       247
46.290       233
46.300       233
46.310       213
46.320       187
46.330       213
46.340       220
46.350       227
46.360       207
46.370       173
46.380       180
46.390       200
46.400       207
46.410       187
46.420       140
46.430       173
46.440       193
46.450       153
46.460       153
46.470       140
46.480       193
46.490       273
46.500       133
46.510       113
46.520       107
46.530       120
46.540        87
46.550       100
46.560       173
46.570       153
46.580       133
46.590       140
46.600        73
46.610       133
46.620       193
46.630       167
46.640       153
46.650       133
46.660       140
46.670        87
46.680       120
46.690        33
46.700       100
46.710        80
46.720        93
46.730       113
46.740       127
46.750       100
46.760        53
46.770        67
46.780        47
46.790       113
46.800        73
46.810        87
46.820        53
46.830        40
46.840        27
46.850        33
46.860        87
46.870       100
46.880        60
46.890        73
46.900        53
46.910        60
46.920        27
46.930        73
46.940        47
46.950        47
46.960        73
46.970        40
46.980        47
46.990        67
47.000        47
47.010        80
47.020        60
47.030        47
47.040        33
47.050        60
47.060        47
47.070        53
47.080        33
47.090        40
47.100        27
47.110        67
47.120        60
47.130        67
47.140        47
47.150        40
47.160        33
47.170        33
47.180        27
47.190        67
47.200        20
47.210        13
47.220        33
47.230        20
47.240        40
47.250        33
47.260        13
47.270        40
47.280        40
47.290        47
47.300        47
47.310        13
47.320        20
47.330        20
47.340        33
47.350        40
47.360        33
47.370        53
47.380         7
47.390        47
47.400        40
47.410        20
47.420        20
47.430        47
47.440        87
47.450         7
47.460        47
47.470         7
47.480        20
47.490        27
47.500        67
47.510        20
47.520        27
47.530        27
47.540        47
47.550        20
47.560        27
47.570        33
47.580        27
47.590        33
47.600        13
47.610        20
47.620        27
47.630        13
47.640        20
47.650        20
47.660        33
47.670         7
47.680        27
47.690        20
47.700        13
47.710         0
47.720        47
47.730        33
47.740         0
47.750        33
47.760         7
47.770        20
47.780        33
47.790        27
47.800        33
47.810         0
47.820        27
47.830        20
47.840        13
47.850        20
47.860        20
47.870        13
47.880        20
47.890        27
47.900        27
47.910        33
47.920        20
47.930        13
47.940        20
47.950        33
47.960        60
47.970        13
47.980        20
47.990        33
48.000        13
48.010        20
48.020        27
48.030        27
48.040         7
48.050        20
48.060         0
48.070         0
48.080        13
48.090        20
48.100         7
48.110        20
48.120        27
48.130        53
48.140        27
48.150        20
48.160        13
48.170        20
48.180        27
48.190         7
48.200        33
48.210        20
48.220        13
48.230        40
48.240         0
48.250        20
48.260        20
48.270        33
48.280        27
48.290         0
48.300         7
48.310        53
48.320        27
48.330         7
48.340        13
48.350        13
48.360        20
48.370        13
48.380        27
48.390         7
48.400         7
48.410        20
48.420        13
48.430        33
48.440        13
48.450        27
48.460        13
48.470         7
48.480        13
48.490        13
48.500         7
48.510        33
48.520        13
48.530        33
48.540        40
48.550         7
48.560        27
48.570        20
48.580        13
48.590        40
48.600        13
48.610        53
48.620        13
48.630        40
48.640         7
48.650        40
48.660        33
48.670        27
48.680        20
48.690        40
48.700        13
48.710        20
48.720        13
48.730        27
48.740        20
48.750         7
48.760        13
48.770         7
48.780         7
48.790         7
48.800        13
48.810         0
48.820        20
48.830        13
48.840         7
48.850        20
48.860        20
48.870         7
48.880        27
48.890        40
48.900        13
48.910        40
48.920        13
48.930         7
48.940         7
48.950        20
48.960        20
48.970        27
48.980        20
48.990        13
49.000        27
49.010        13
49.020        20
49.030        20
49.040        13
49.050        33
49.060        20
49.070        27
49.080        33
49.090         7
49.100        13
49.110        27
49.120         7
49.130        13
49.140        13
49.150         0
49.160        40
49.170        33
49.180        20
49.190        40
49.200         7
49.210        13
49.220         7
49.230        13
49.240        20
49.250        13
49.260        20
49.270         0
49.280        20
49.290        27
49.300         7
49.310        13
49.320        20
49.330        13
49.340        13
49.350        20
49.360        33
49.370         0
49.380         7
49.390        20
49.400        20
49.410         7
49.420        40
49.430         7
49.440        33
49.450        20
49.460         7
49.470        20
49.480        20
49.490         7
49.500        33
49.510        13
49.520         7
49.530        13
49.540        13
49.550        27
49.560        20
49.570        20
49.580        40
49.590        33
49.600         7
49.610        13
49.620        13
49.630        27
49.640         7
49.650        20
49.660        20
49.670        13
49.680         7
49.690        20
49.700         7
49.710        27
49.720        53
49.730         0
49.740         7
49.750        40
49.760        13
49.770         0
49.780        40
49.790        13
49.800        27
49.810        33
49.820         7
49.830         7
49.840         0
49.850        20
49.860        13
49.870        13
49.880         7
49.890        27
49.900        27
49.910        20
49.920         0
49.930        13
49.940        13
49.950         7
49.960        20
49.970        20
49.980        27
49.990        33
50.000         7
50.010        13
50.020        27
50.030         7
50.040        20
50.050         0
50.060        27
50.070         7
50.080         7
50.090        27
50.100        27
50.110        13
50.120         7
50.130        13
50.140        13
50.150         0
50.160        20
50.170         0
50.180        13
50.190        13
50.200         7
50.210        20
50.220        27
50.230        13
50.240        13
50.250        13
50.260        27
50.270         7
50.280         0
50.290        13
50.300         7
50.310        13
50.320        27
50.330         0
50.340        20
50.350        20
50.360        20
50.370        20
50.380        40
50.390        13
50.400        27
50.410        13
50.420        20
50.430         7
50.440        13
50.450         7
50.460         7
50.470        20
50.480        13
50.490        33
50.500        13
50.510        20
50.520        13
50.530         7
50.540        13
50.550        20
50.560        20
50.570        33
50.580         7
50.590         0
50.600         7
50.610        20
50.620        20
50.630        13
50.640        20
50.650        20
50.660        33
50.670        20
50.680        20
50.690        13
50.700        27
50.710         7
50.720        47
50.730        13
50.740         7
50.750        13
50.760        20
50.770        13
50.780        13
50.790         0
50.800        13
50.810        20
50.820        13
50.830        13
50.840         7
50.850        33
50.860         0
50.870        13
50.880        40
50.890         0
50.900        33
50.910        20
50.920        13
50.930        20
50.940         7
50.950         7
50.960        33
50.970         0
50.980         0
50.990        27
51.000        13
51.010         7
51.020        20
51.030        13
51.040        13
51.050         7
51.060        27
51.070        20
51.080         7
51.090        27
51.100         7
51.110        27
51.120        20
51.130        33
51.140         7
51.150        13
51.160        13
51.170        20
51.180        20
51.190         7
51.200         7
51.210         7
51.220         7
51.230         0
51.240        13
51.250        13
51.260        27
51.270        27
51.280         0
51.290         0
51.300        13
51.310        20
51.320        13
51.330         7
51.340        27
51.350        20
51.360         0
51.370        13
51.380         7
51.390         7
51.400         7
51.410        13
51.420        13
51.430         7
51.440        20
51.450        20
51.460        20
51.470        33
51.480        33
51.490        13
51.500        47
51.510         7
51.520        33
51.530        13
51.540         0
51.550        13
51.560         0
51.570        27
51.580        20
51.590         7
51.600        40
51.610        67
51.620        13
51.630        13
51.640        20
51.650        27
51.660        20
51.670        13
51.680        13
51.690        13
51.700        20
51.710         7
51.720        47
51.730        20
51.740        13
51.750        20
51.760         7
51.770        20
51.780         7
51.790        20
51.800         7
51.810        13
51.820        27
51.830        40
51.840        33
51.850         7
51.860        33
51.870         7
51.880         7
51.890        13
51.900         7
51.910        13
51.920         7
51.930         7
51.940        47
51.950        13
51.960        13
51.970        27
51.980         0
51.990        27
52.000        27
52.010         7
52.020        13
52.030         7
52.040        33
52.050        33
52.060        13
52.070         7
52.080        13
52.090        20
52.100        33
52.110        27
52.120        20
52.130         7
52.140         7
52.150        20
52.160        27
52.170        20
52.180        27
52.190        20
52.200        13
52.210        13
52.220        33
52.230        27
52.240        13
52.250        13
52.260        27
52.270        20
52.280        13
52.290        20
52.300        13
52.310        20
52.320        33
52.330        20
52.340         7
52.350         7
52.360        33
52.370        13
52.380        20
52.390        33
52.400        27
52.410        20
52.420        40
52.430        20
52.440        27
52.450        33
52.460         7
52.470        13
52.480        13
52.490        20
52.500        53
52.510        53
52.520        47
52.530        53
52.540        60
52.550       127
52.560       100
52.570       147
52.580       167
52.590       253
52.600       187
52.610       227
52.620       140
52.630       133
52.640       120
52.650        87
52.660        27
52.670        73
52.680        53
52.690        40
52.700        80
52.710        60
52.720       107
52.730       127
52.740        87
52.750        73
52.760        80
52.770       127
52.780        73
52.790        93
52.800        27
52.810        20
52.820         0
52.830        40
52.840        20
52.850        20
52.860        13
52.870        20
52.880         0
52.890         7
52.900         0
52.910        33
52.920        20
52.930        27
52.940         7
52.950         7
52.960         7
52.970        47
52.980         7
52.990         7
53.000         0
53.010         7
53.020         7
53.030         7
53.040        40
53.050         7
53.060        13
53.070         7
53.080         7
53.090        27
53.100        13
53.110         7
53.120        20
53.130         7
53.140        13
53.150         7
53.160        33
53.170        27
53.180        13
53.190         7
53.200         7
53.210        13
53.220        20
53.230         0
53.240        13
53.250        13
53.260        13
53.270        13
53.280        13
53.290        13
53.300        20
53.310        33
53.320        13
53.330        13
53.340         7
53.350        27
53.360        13
53.370        20
53.380        27
53.390        40
53.400        13
53.410        33
53.420         7
53.430        13
53.440        60
53.450        40
53.460        13
53.470        47
53.480        13
53.490         0
53.500        20
53.510        20
53.520         7
53.530        27
53.540        13
53.550         0
53.560        27
53.570         7
53.580         0
53.590        27
53.600        20
53.610        13
53.620         7
53.630         7
53.640         0
53.650         7
53.660        33
53.670        27
53.680         0
53.690        20
53.700        13
53.710        20
53.720        20
53.730        27
53.740        20
53.750         7
53.760        33
53.770         7
53.780         0
53.790         0
53.800        20
53.810        33
53.820        20
53.830        20
53.840        27
53.850        27
53.860        20
53.870        27
53.880        13
53.890        27
53.900        13
53.910        13
53.920        13
53.930         0
53.940        20
53.950         0
53.960        13
53.970        27
53.980        20
53.990        20
54.000         7
54.010        27
54.020        13
54.030        13
54.040        13
54.050         7
54.060         0
54.070         7
54.080        40
54.090        13
54.100        13
54.110        20
54.120        33
54.130        13
54.140        27
54.150        13
54.160        27
54.170         0
54.180        27
54.190         7
54.200        27
54.210        27
54.220         0
54.230        20
54.240         7
54.250        13
54.260        20
54.270        13
54.280         7
54.290         7
54.300        27
54.310         0
54.320        20
54.330         0
54.340        13
54.350         7
54.360        13
54.370        27
54.380         0
54.390         7
54.400         7
54.410        27
54.420         7
54.430        13
54.440        20
54.450         7
54.460        13
54.470         7
54.480        27
54.490        33
54.500        20
54.510        27
54.520        13
54.530        13
54.540        13
54.550        13
54.560        20
54.570        13
54.580        20
54.590        20
54.600        13
54.610         0
54.620        20
54.630         7
54.640        27
54.650         7
54.660        13
54.670        13
54.680        13
54.690        13
54.700        13
54.710         0
54.720        20
54.730         7
54.740         7
54.750        20
54.760        20
54.770        40
54.780        20
54.790         7
54.800        27
54.810         7
54.820        20
54.830         7
54.840        13
54.850        13
54.860        13
54.870        27
54.880        20
54.890         7
54.900        33
54.910        27
54.920        27
54.930        20
54.940        40
54.950         0
54.960        27
54.970         7
54.980        27
54.990        13
55.000        27
55.010        20
55.020        13
55.030         7
55.040        13
55.050        13
55.060        27
55.070        20
55.080        13
55.090        13
55.100         7
55.110        27
55.120         7
55.130        20
55.140        27
55.150         0
55.160         0
55.170         7
55.180        13
55.190        20
55.200        13
55.210        20
55.220        27
55.230        20
55.240        13
55.250        13
55.260        13
55.270        20
55.280         7
55.290        40
55.300        13
55.310        13
55.320         0
55.330        27
55.340        27
55.350        27
55.360         7
55.370         7
55.380        20
55.390        20
55.400         0
55.410         7
55.420         7
55.430        20
55.440        33
55.450        33
55.460        20
55.470        20
55.480         0
55.490        13
55.500         0
55.510         0
55.520         7
55.530        20
55.540        13
55.550        13
55.560        13
55.570         7
55.580         7
55.590        13
55.600        13
55.610         0
55.620        13
55.630        27
55.640        27
55.650        27
55.660        27
55.670        20
55.680         0
55.690         7
55.700         7
55.710        27
55.720        20
55.730         7
55.740        20
55.750        33
55.760         7
55.770         7
55.780        20
55.790        20
55.800         7
55.810        13
55.820        20
55.830         7
55.840        33
55.850        20
55.860        20
55.870        20
55.880        40
55.890        13
55.900        20
55.910        20
55.920         7
55.930        27
55.940         7
55.950        20
55.960         7
55.970        33
55.980        20
55.990         7
56.000        20
56.010         7
56.020         7
56.030         7
56.040        13
56.050        13
56.060        27
56.070        13
56.080         7
56.090        13
56.100        20
56.110        13
56.120        33
56.130         0
56.140        13
56.150         0
56.160         0
56.170        13
56.180        20
56.190        33
56.200        20
56.210        20
56.220        20
56.230        13
56.240        20
56.250         7
56.260        33
56.270         7
56.280        27
56.290        27
56.300        20
56.310        13
56.320         0
56.330        20
56.340        13
56.350         7
56.360        20
56.370        20
56.380        13
56.390         7
56.400         7
56.410        13
56.420         7
56.430        13
56.440        20
56.450        20
56.460        20
56.470        20
56.480         0
56.490        20
56.500        47
56.510        20
56.520        20
56.530         0
56.540         7
56.550        20
56.560        13
56.570         7
56.580        27
56.590        27
56.600         7
56.610        20
56.620        13
56.630         7
56.640        13
56.650        20
56.660        20
56.670        13
56.680         0
56.690        13
56.700         7
56.710        13
56.720        20
56.730         0
56.740        13
56.750         0
56.760         7
56.770        13
56.780        27
56.790        27
56.800        33
56.810         0
56.820        20
56.830         7
56.840        13
56.850        20
56.860        20
56.870        27
56.880        13
56.890        13
56.900         0
56.910         7
56.920         7
56.930        13
56.940        13
56.950        20
56.960         7
56.970        13
56.980        47
56.990        13
57.000        40
57.010        27
57.020        13
57.030        40
57.040        20
57.050        27
57.060        20
57.070        13
57.080        13
57.090         0
57.100        20
57.110        13
57.120        27
57.130        13
57.140        27
57.150        13
57.160        27
57.170        13
57.180        33
57.190        20
57.200        53
57.210        33
57.220        60
57.230        33
57.240        27
57.250        20
57.260        13
57.270        20
57.280        33
57.290        60
57.300        53
57.310        20
57.320        33
57.330        67
57.340        33
57.350        20
57.360        33
57.370        53
57.380        80
57.390        67
57.400        53
57.410       100
57.420       107
57.430        93
57.440       147
57.450       300
57.460       260
57.470       300
57.480       340
57.490       300
57.500       367
57.510       413
57.520       313
57.530       333
57.540       353
57.550       466
57.560       533
57.570       493
57.580       460
57.590       506
57.600       293
57.610       347
57.620       293
57.630       327
57.640       227
57.650       173
57.660       260
57.670       280
57.680       180
57.690       247
57.700       193
57.710       207
57.720       260
57.730       247
57.740       260
57.750       180
57.760       133
57.770        80
57.780        80
57.790        60
57.800        33
57.810        53
57.820        47
57.830        47
57.840        47
57.850        27
57.860        13
57.870        20
57.880        40
57.890        20
57.900        27
57.910        40
57.920        40
57.930        13
57.940        20
57.950        20
57.960        40
57.970        27
57.980        27
57.990        13
58.000        27
58.010        20
58.020        13
58.030        13
58.040        47
58.050         0
58.060         7
58.070        13
58.080         7
58.090         0
58.100        27
58.110        13
58.120        13
58.130        27
58.140        33
58.150        13
58.160        47
58.170        27
58.180         7
58.190        13
58.200        20
58.210        13
58.220        33
58.230        33
58.240        33
58.250         0
58.260        20
58.270        13
58.280         0
58.290        13
58.300         0
58.310         0
58.320         0
58.330        27
58.340        27
58.350        20
58.360        13
58.370         7
58.380        20
58.390        47
58.400         7
58.410        13
58.420        13
58.430        13
58.440        13
58.450        13
58.460         7
58.470        13
58.480        27
58.490        13
58.500        13
58.510         7
58.520        13
58.530        33
58.540        13
58.550         7
58.560        13
58.570        13
58.580        27
58.590         7
58.600         0
58.610        27
58.620         7
58.630        20
58.640        40
58.650        20
58.660         0
58.670         0
58.680        13
58.690        13
58.700         7
58.710         7
58.720        13
58.730        40
58.740        13
58.750        20
58.760        20
58.770         0
58.780        13
58.790         7
58.800        27
58.810        13
58.820        40
58.830        13
58.840        13
58.850        13
58.860         7
58.870         0
58.880         0
58.890         7
58.900        20
58.910        13
58.920        20
58.930         0
58.940        13
58.950         7
58.960        20
58.970        13
58.980        20
58.990        40
59.000        27
59.010         0
59.020        13
59.030        27
59.040        33
59.050        47
59.060        13
59.070         7
59.080        13
59.090        13
59.100        13
59.110         0
59.120        13
59.130         7
59.140        20
59.150        27
59.160        20
59.170        27
59.180         0
59.190        20
59.200        13
59.210        27
59.220        27
59.230        13
59.240        13
59.250        13
59.260         7
59.270        27
59.280        20
59.290        20
59.300        33
59.310         7
59.320         7
59.330         7
59.340         7
59.350         7
59.360        20
59.370        33
59.380         0
59.390        20
59.400        13
59.410        53
59.420        40
59.430        27
59.440        27
59.450        27
59.460         7
59.470         7
59.480        20
59.490         7
59.500        33
59.510        13
59.520         7
59.530        13
59.540        20
59.550         7
59.560        13
59.570         7
59.580        27
59.590        27
59.600        13
59.610        13
59.620        20
59.630        20
59.640        13
59.650         7
59.660        20
59.670         7
59.680        40
59.690         7
59.700        40
59.710        20
59.720        20
59.730        13
59.740         0
59.750        20
59.760        20
59.770        13
59.780        27
59.790        20
59.800        27
59.810        13
59.820         7
59.830        13
59.840         0
59.850         0
59.860        20
59.870        13
59.880         0
59.890         7
59.900        27
59.910        20
59.920        27
59.930        20
59.940         0
59.950         7
59.960        20
59.970        13
59.980         0
59.990         0
60.000         0
