20.000        27
20.010        33
20.020        47
20.030        40
20.040        67
20.050        20
20.060        40
20.070        67
20.080        40
20.090        53
20.100        20
20.110        47
20.120        33
20.130        20
20.140        40
20.150        20
20.160        47
20.170        40
20.180        40
20.190        33
20.200        27
20.210        40
20.220        40
20.230        60
20.240        60
20.250        27
20.260        27
20.270        33
20.280        40
20.290        40
20.300        33
20.310        33
20.320        67
20.330        53
20.340        67
20.350        27
20.360        13
20.370        33
20.380        60
20.390         7
20.400        53
20.410        53
20.420        67
20.430        40
20.440        20
20.450        20
20.460        40
20.470        53
20.480        33
20.490        53
20.500        33
20.510        53
20.520        27
20.530        53
20.540        33
20.550        60
20.560        33
20.570        53
20.580        53
20.590        40
20.600        47
20.610        33
20.620        33
20.630        33
20.640        47
20.650        53
20.660        60
20.670        73
20.680        47
20.690        27
20.700        20
20.710        13
20.720        33
20.730        13
20.740        60
20.750        40
20.760        47
20.770        33
20.780        47
20.790        53
20.800        27
20.810        33
20.820        47
20.830        53
20.840        40
20.850        27
20.860        27
20.870        27
20.880        27
20.890        47
20.900        40
20.910        60
20.920        40
20.930        13
20.940        33
20.950        40
20.960        40
20.970        40
20.980        33
20.990        47
21.000        33
21.010        53
21.020        40
21.030        40
21.040        27
21.050        20
21.060        20
21.070        33
21.080        33
21.090        40
21.100        33
21.110        27
21.120        33
21.130        33
21.140        47
21.150        13
21.160        67
21.170        47
21.180        60
21.190        47
21.200        40
21.210        33
21.220        33
21.230        40
21.240        60
21.250        27
21.260        53
21.270        27
21.280        20
21.290        27
21.300        47
21.310        53
21.320        47
21.330        53
21.340        40
21.350        60
21.360        47
21.370        27
21.380        60
21.390        60
21.400        40
21.410        60
21.420        33
21.430        53
21.440        27
21.450        33
21.460        67
21.470        27
21.480        47
21.490        47
21.500        33
21.510        47
21.520        40
21.530        47
21.540        33
21.550        13
21.560        47
21.570        47
21.580        20
21.590        67
21.600        33
21.610        20
21.620        73
21.630        20
21.640        27
21.650        40
21.660        80
21.670        20
21.680        33
21.690        27
21.700        53
21.710        27
21.720        33
21.730        53
21.740        33
21.750        60
21.760        67
21.770        40
21.780        53
21.790        33
21.800        27
21.810        13
21.820        33
21.830        53
21.840        47
21.850        13
21.860        47
21.870        33
21.880        27
21.890        40
21.900        40
21.910         7
21.920        53
21.930        13
21.940         7
21.950        40
21.960        53
21.970         7
21.980        60
21.990        40
22.000        33
22.010        53
22.020        27
22.030        60
22.040        27
22.050        27
22.060        67
22.070        53
22.080        27
22.090        13
22.100        27
22.110         7
22.120        47
22.130        20
22.140        47
22.150        13
22.160        20
22.170        67
22.180        53
22.190        27
22.200        73
22.210        47
22.220        40
22.230        40
22.240        47
22.250        27
22.260        53
22.270       100
22.280        73
22.290        40
22.300        13
22.310        33
22.320        47
22.330        33
22.340        20
22.350        87
22.360        73
22.370        40
22.380        27
22.390        13
22.400        20
22.410        53
22.420        27
22.430        40
22.440        53
22.450        40
22.460        47
22.470        80
22.480        53
22.490        67
22.500        40
22.510        53
22.520        40
22.530        53
22.540        47
22.550        73
22.560       120
22.570        93
22.580       127
22.590       107
22.600       120
22.610       100
22.620        93
22.630       127
22.640        87
22.650       140
22.660       160
22.670       107
22.680       127
22.690       107
22.700       147
22.710       147
22.720       120
22.730       167
22.740       133
22.750       153
22.760       127
22.770       153
22.780        73
22.790        87
22.800       127
22.810        87
22.820       133
22.830       100
22.840       140
22.850       120
22.860        80
22.870        93
22.880       113
22.890       107
22.900        47
22.910        53
22.920       107
22.930        60
22.940        73
22.950        53
22.960        73
22.970        27
22.980        53
22.990        67
23.000        33
23.010        67
23.020        67
23.030        67
23.040        33
23.050        53
23.060        67
23.070        53
23.080        20
23.090        40
23.100        53
23.110        40
23.120        33
23.130        47
23.140        60
23.150        40
23.160        33
23.170        33
23.180        40
23.190        53
23.200        40
23.210        27
23.220        33
23.230        33
23.240        33
23.250        60
23.260        67
23.270        53
23.280        33
23.290        53
23.300        53
23.310        73
23.320        47
23.330        27
23.340        60
23.350        27
23.360        33
23.370        27
23.380        27
23.390        67
23.400        67
23.410        27
23.420        60
23.430        20
23.440        33
23.450        47
23.460        67
23.470        40
23.480        27
23.490        13
23.500        40
23.510        20
23.520        67
23.530        53
23.540        60
23.550        53
23.560        27
23.570        33
23.580        40
23.590        33
23.600        20
23.610        20
23.620        40
23.630        27
23.640        40
23.650        67
23.660        27
23.670        33
23.680        33
23.690        20
23.700        40
23.710        33
23.720        27
23.730        33
23.740        53
23.750        13
23.760        27
23.770        67
23.780        27
23.790        33
23.800        33
23.810        33
23.820        27
23.830        47
23.840        13
23.850         7
23.860        13
23.870        53
23.880        20
23.890        20
23.900         7
23.910        53
23.920        27
23.930        13
23.940        20
23.950        27
23.960        13
23.970        60
23.980        33
23.990        33
24.000        27
24.010        40
24.020        27
24.030        27
24.040        27
24.050        20
24.060        60
24.070        47
24.080        73
24.090        27
24.100        27
24.110        40
24.120        40
24.130        27
24.140         0
24.150        33
24.160        40
24.170        53
24.180        27
24.190        20
24.200        27
24.210        53
24.220        13
24.230        40
24.240        27
24.250        40
24.260        33
24.270        20
24.280        47
24.290        47
24.300        27
24.310        53
24.320        27
24.330        40
24.340        53
24.350        27
24.360        33
24.370        27
24.380        27
24.390        20
24.400        40
24.410        47
24.420        20
24.430        27
24.440        27
24.450        27
24.460        40
24.470        53
24.480        33
24.490        80
24.500        27
24.510        33
24.520        33
24.530        20
24.540        40
24.550        20
24.560        27
24.570        40
24.580        47
24.590        47
24.600        20
24.610        27
24.620        27
24.630        33
24.640        33
24.650        20
24.660        20
24.670        27
24.680        27
24.690        53
24.700        27
24.710        13
24.720        33
24.730        53
24.740        33
24.750        40
24.760        20
24.770        60
24.780        20
24.790        33
24.800        27
24.810        33
24.820        33
24.830        47
24.840        20
24.850        20
24.860        20
24.870        27
24.880        20
24.890        47
24.900        47
24.910        27
24.920        13
24.930        47
24.940        33
24.950        13
24.960        40
24.970        27
24.980        53
24.990        40
25.000        20
25.010         0
25.020        20
25.030        40
25.040        13
25.050        33
25.060        13
25.070        27
25.080        27
25.090        13
25.100        53
25.110        47
25.120        27
25.130         7
25.140        27
25.150        27
25.160        13
25.170        53
25.180        40
25.190        27
25.200        20
25.210        20
25.220         7
25.230        33
25.240        20
25.250         7
25.260        60
25.270        33
25.280        40
25.290        47
25.300        33
25.310        20
25.320        93
25.330        53
25.340        33
25.350        40
25.360        27
25.370        40
25.380        33
25.390        67
25.400        33
25.410        13
25.420        40
25.430        33
25.440        20
25.450        40
25.460        20
25.470        33
25.480        40
25.490        47
25.500        67
25.510        27
25.520        47
25.530        60
25.540        93
25.550        27
25.560        33
25.570        47
25.580        53
25.590        67
25.600        93
25.610        87
25.620        93
25.630        53
25.640       120
25.650        53
25.660        87
25.670        67
25.680        53
25.690        60
25.700        67
25.710        67
25.720        20
25.730        27
25.740        20
25.750        27
25.760        27
25.770        20
25.780        40
25.790        20
25.800        27
25.810        33
25.820        40
25.830        40
25.840        60
25.850        27
25.860        27
25.870        13
25.880        20
25.890        20
25.900        20
25.910        20
25.920        60
25.930        20
25.940        40
25.950        40
25.960        20
25.970        53
25.980        20
25.990        13
26.000        40
26.010        80
26.020        53
26.030        27
26.040        20
26.050        27
26.060        20
26.070        40
26.080        27
26.090         7
26.100        40
26.110        33
26.120        27
26.130        40
26.140        20
26.150        20
26.160        27
26.170        33
26.180        33
26.190        33
26.200        20
26.210        40
26.220        47
26.230        40
26.240        60
26.250        13
26.260        13
26.270        27
26.280        13
26.290        20
26.300        13
26.310        20
26.320        33
26.330        40
26.340        27
26.350        33
26.360        33
26.370        40
26.380        13
26.390        27
26.400        20
26.410        20
26.420        20
26.430        47
26.440        27
26.450        53
26.460        27
26.470        40
26.480        27
26.490        47
26.500        20
26.510         7
26.520        53
26.530        20
26.540        27
26.550        40
26.560        20
26.570        20
26.580        33
26.590        20
26.600        40
26.610        27
26.620        13
26.630         7
26.640        27
26.650        40
26.660        40
26.670        33
26.680        40
26.690        27
26.700        33
26.710        47
26.720        20
26.730        27
26.740        13
26.750        40
26.760        47
26.770        33
26.780        20
26.790        27
26.800        13
26.810        33
26.820        27
26.830        27
26.840        20
26.850        20
26.860         7
26.870        20
26.880        47
26.890        20
26.900        33
26.910        27
26.920         0
26.930        33
26.940        47
26.950        40
26.960        27
26.970        33
26.980        40
26.990        47
27.000        20
27.010        13
27.020        40
27.030        13
27.040        60
27.050        20
27.060        27
27.070        40
27.080        40
27.090         7
27.100        60
27.110        33
27.120        20
27.130        27
27.140        47
27.150         7
27.160         0
27.170        33
27.180        27
27.190        40
27.200        40
27.210        27
27.220        20
27.230        20
27.240        40
27.250        27
27.260        20
27.270        20
27.280        13
27.290        27
27.300        53
27.310         7
27.320        27
27.330        33
27.340        13
27.350        20
27.360        27
27.370        47
27.380         7
27.390        27
27.400        20
27.410        33
27.420        47
27.430         7
27.440        60
27.450        27
27.460        13
27.470        40
27.480        20
27.490        33
27.500        47
27.510         7
27.520        20
27.530        20
27.540        27
27.550         7
27.560        27
27.570         7
27.580        20
27.590        27
27.600        67
27.610        27
27.620        33
27.630        20
27.640        33
27.650        20
27.660        13
27.670        33
27.680        33
27.690        60
27.700        47
27.710        20
27.720        20
27.730        27
27.740        47
27.750        53
27.760        13
27.770         7
27.780        33
27.790        20
27.800        20
27.810        13
27.820        60
27.830         7
27.840        33
27.850        47
27.860        27
27.870         7
27.880        13
27.890        20
27.900        47
27.910        27
27.920        33
27.930        27
27.940        33
27.950        20
27.960        20
27.970        27
27.980         0
27.990        33
28.000        20
28.010        53
28.020        13
28.030        27
28.040        40
28.050        27
28.060        13
28.070        20
28.080        20
28.090        33
28.100        27
28.110        27
28.120        53
28.130        33
28.140        20
28.150        20
28.160        20
28.170        33
28.180        33
28.190        33
28.200        47
28.210        20
28.220        13
28.230        27
28.240        27
28.250        33
28.260        27
28.270        27
28.280         7
28.290        47
28.300        33
28.310        40
28.320        40
28.330        20
28.340         7
28.350        20
28.360        20
28.370        27
28.380        20
28.390        47
28.400        20
28.410        67
28.420        20
28.430         7
28.440        13
28.450        13
28.460        20
28.470        60
28.480        13
28.490         7
28.500        33
28.510        13
28.520        13
28.530        20
28.540        27
28.550        20
28.560        27
28.570        40
28.580        27
28.590        53
28.600        13
28.610        33
28.620        27
28.630        27
28.640        33
28.650         7
28.660        13
28.670        20
28.680        33
28.690        27
28.700        13
28.710        27
28.720        20
28.730        40
28.740        47
28.750         0
28.760        20
28.770        40
28.780        47
28.790        27
28.800        27
28.810        27
28.820         7
28.830        33
28.840        27
28.850        20
28.860         7
28.870        20
28.880        13
28.890        27
28.900        20
28.910        13
28.920        40
28.930        27
28.940        27
28.950         7
28.960        20
28.970         7
28.980        27
28.990        20
29.000        20
29.010        47
29.020        27
29.030        27
29.040        27
29.050        53
29.060        27
29.070        20
29.080        13
29.090        20
29.100        20
29.110        13
29.120        20
29.130        33
29.140        20
29.150        27
29.160        27
29.170        33
29.180        20
29.190        40
29.200        27
29.210        40
29.220        40
29.230        33
29.240        33
29.250        40
29.260        20
29.270        47
29.280         7
29.290        33
29.300         7
29.310         7
29.320        33
29.330         7
29.340        27
29.350        33
29.360         7
29.370         7
29.380        20
29.390        60
29.400         7
29.410        40
29.420        47
29.430        27
29.440        27
29.450        13
29.460        27
29.470        33
29.480        13
29.490        20
29.500        33
29.510        40
29.520         7
29.530        27
29.540        13
29.550        20
29.560        40
29.570        20
29.580        33
29.590        33
29.600        53
29.610        40
29.620        20
29.630        27
29.640        13
29.650        27
29.660        20
29.670        33
29.680        33
29.690        27
29.700        20
29.710         7
29.720        40
29.730        40
29.740         7
29.750        27
29.760        33
29.770         0
29.780        20
29.790         7
29.800        60
29.810        33
29.820        20
29.830        13
29.840         7
29.850        27
29.860        53
29.870        13
29.880         0
29.890        13
29.900        20
29.910        13
29.920        47
29.930        13
29.940        27
29.950        40
29.960        27
29.970        20
29.980        33
29.990        40
30.000        27
30.010        33
30.020        27
30.030        27
30.040        27
30.050        20
30.060         7
30.070         0
30.080        13
30.090        13
30.100        33
30.110        40
30.120        27
30.130        13
30.140        20
30.150         7
30.160        33
30.170        27
30.180        20
30.190        27
30.200         7
30.210        27
30.220        13
30.230        40
30.240        20
30.250        20
30.260        13
30.270        33
30.280         7
30.290         7
30.300        33
30.310         7
30.320        13
30.330        13
30.340        20
30.350        27
30.360        27
30.370        47
30.380        13
30.390        33
30.400        20
30.410        27
30.420        13
30.430        27
30.440        20
30.450        40
30.460        33
30.470        20
30.480        20
30.490        20
30.500        27
30.510        27
30.520        13
30.530        47
30.540        13
30.550         0
30.560         7
30.570        33
30.580        20
30.590        33
30.600        33
30.610         0
30.620        20
30.630        13
30.640        20
30.650         7
30.660        20
30.670        13
30.680        33
30.690        33
30.700        27
30.710        27
30.720        40
30.730        20
30.740        13
30.750        20
30.760        40
30.770        27
30.780        33
30.790        27
30.800        20
30.810         7
30.820        20
30.830        13
30.840        20
30.850        20
30.860         7
30.870        13
30.880        33
30.890        20
30.900        20
30.910         7
30.920        13
30.930        20
30.940        13
30.950        27
30.960        13
30.970        33
30.980        13
30.990        20
31.000        13
31.010        27
31.020        20
31.030         7
31.040         0
31.050         7
31.060        27
31.070        40
31.080        20
31.090        40
31.100        33
31.110        13
31.120        27
31.130        20
31.140        33
31.150        20
31.160         7
31.170        27
31.180        20
31.190        27
31.200        27
31.210        27
31.220        13
31.230        27
31.240        27
31.250        40
31.260        20
31.270        27
31.280        33
31.290        33
31.300        40
31.310        33
31.320        27
31.330        20
31.340        40
31.350         7
31.360        13
31.370        33
31.380        27
31.390        27
31.400        40
31.410        27
31.420        47
31.430        13
31.440        13
31.450        20
31.460        40
31.470        33
31.480        13
31.490         7
31.500        13
31.510        20
31.520        20
31.530        33
31.540        13
31.550        20
31.560        60
31.570        33
31.580        33
31.590         0
31.600        40
31.610        20
31.620        20
31.630        27
31.640        47
31.650        27
31.660        20
31.670        20
31.680         0
31.690        53
31.700        27
31.710        47
31.720        13
31.730        40
31.740        27
31.750         7
31.760        33
31.770        47
31.780        40
31.790        27
31.800        13
31.810        20
31.820        27
31.830        20
31.840        20
31.850         0
31.860         7
31.870        27
31.880        13
31.890        33
31.900        20
31.910        20
31.920        40
31.930        13
31.940        13
31.950        27
31.960        27
31.970        27
31.980         7
31.990        53
32.000        27
32.010        33
32.020         7
32.030        20
32.040        13
32.050        33
32.060        40
32.070         7
32.080        33
32.090        27
32.100        40
32.110        27
32.120        27
32.130        33
32.140        53
32.150        20
32.160         7
32.170        60
32.180        20
32.190        33
32.200        47
32.210        33
32.220        27
32.230        33
32.240         0
32.250        93
32.260        60
32.270        53
32.280        67
32.290        60
32.300        53
32.310        80
32.320        47
32.330        53
32.340        33
32.350       107
32.360         7
32.370       107
32.380        53
32.390        53
32.400       100
32.410       107
32.420        67
32.430        53
32.440        60
32.450        73
32.460        47
32.470        87
32.480        53
32.490        53
32.500        60
32.510       107
32.520        80
32.530        33
32.540        67
32.550        73
32.560        47
32.570        27
32.580        40
32.590        60
32.600        53
32.610        87
32.620        27
32.630        47
32.640        47
32.650        47
32.660        40
32.670        33
32.680        47
32.690        47
32.700         7
32.710        20
32.720        27
32.730         0
32.740        20
32.750        27
32.760        13
32.770        20
32.780        33
32.790        27
32.800        33
32.810        20
32.820        27
32.830        20
32.840        20
32.850        20
32.860        27
32.870        33
32.880         0
32.890        20
32.900        33
32.910        33
32.920        40
32.930        27
32.940        20
32.950        13
32.960         7
32.970         0
32.980        40
32.990        40
33.000        13
33.010        27
33.020        20
33.030        20
33.040        40
33.050        27
33.060        20
33.070        33
33.080         7
33.090        20
33.100        27
33.110        20
33.120        20
33.130        20
33.140        47
33.150        33
33.160        20
33.170        27
33.180        27
33.190        27
33.200        27
33.210        20
33.220        20
33.230         0
33.240        40
33.250        20
33.260        20
33.270        20
33.280        40
33.290        20
33.300        20
33.310         7
33.320        33
33.330        27
33.340        33
33.350        40
33.360        13
33.370        33
33.380        20
33.390        20
33.400        20
33.410        20
33.420        13
33.430        20
33.440        27
33.450        13
33.460        27
33.470        20
33.480        20
33.490        13
33.500        27
33.510        20
33.520        13
33.530        13
33.540         7
33.550        20
33.560         7
33.570        27
33.580        33
33.590        40
33.600         7
33.610         0
33.620        13
33.630         7
33.640        27
33.650        13
33.660        20
33.670        13
33.680        13
33.690        13
33.700         7
33.710         0
33.720         7
33.730        27
33.740        47
33.750        40
33.760         7
33.770        40
33.780        13
33.790        27
33.800        13
33.810         7
33.820         0
33.830        33
33.840        20
33.850        13
33.860        33
33.870        33
33.880        27
33.890        33
33.900        13
33.910        27
33.920        20
33.930        27
33.940        13
33.950         7
33.960        20
33.970        33
33.980         7
33.990        27
34.000        40
34.010         7
34.020        27
34.030        33
34.040        20
34.050         0
34.060        53
34.070        33
34.080        13
34.090        13
34.100        27
34.110        13
34.120        33
34.130        47
34.140         7
34.150        20
34.160        27
34.170        13
34.180         7
34.190        20
34.200        33
34.210         7
34.220        13
34.230        13
34.240        13
34.250        33
34.260        33
34.270        20
34.280        20
34.290        33
34.300        40
34.310        33
34.320        27
34.330        20
34.340        27
34.350         7
34.360        20
34.370        20
34.380        33
34.390        20
34.400        20
34.410         7
34.420        13
34.430        20
34.440        27
34.450        27
34.460        27
34.470        20
34.480        13
34.490        53
34.500        13
34.510         0
34.520        27
34.530         0
34.540        27
34.550        13
34.560        20
34.570        20
34.580         7
34.590        47
34.600        20
34.610        20
34.620        53
34.630        20
34.640        20
34.650        13
34.660        20
34.670        20
34.680        20
34.690        13
34.700        13
34.710        33
34.720        47
34.730        27
34.740        20
34.750        20
34.760        13
34.770        13
34.780        13
34.790        13
34.800        27
34.810        20
34.820        20
34.830         7
34.840         0
34.850        33
34.860        40
34.870        33
34.880        60
34.890        13
34.900        20
34.910        20
34.920        20
34.930        13
34.940         7
34.950        47
34.960        40
34.970        27
34.980        40
34.990         7
35.000        60
35.010        27
35.020        47
35.030        20
35.040        33
35.050        47
35.060        47
35.070        40
35.080        53
35.090        80
35.100        67
35.110        93
35.120       107
35.130       133
35.140       200
35.150       147
35.160       233
35.170       227
35.180       320
35.190       253
35.200       233
35.210       180
35.220       220
35.230       207
35.240       193
35.250       173
35.260       100
35.270       140
35.280       180
35.290       133
35.300        73
35.310        93
35.320       107
35.330       107
35.340        40
35.350        33
35.360        53
35.370        13
35.380        73
35.390        47
35.400        20
35.410        27
35.420        40
35.430        27
35.440        27
35.450        13
35.460        27
35.470        60
35.480        20
35.490         0
35.500        20
35.510        20
35.520        20
35.530        20
35.540        27
35.550        20
35.560        27
35.570        13
35.580        13
35.590        33
35.600        20
35.610        20
35.620        20
35.630        33
35.640        33
35.650        13
35.660         7
35.670        13
35.680        27
35.690        20
35.700        33
35.710        27
35.720        40
35.730         7
35.740        27
35.750         7
35.760        13
35.770        33
35.780         7
35.790        13
35.800        13
35.810        20
35.820         7
35.830        13
35.840        27
35.850        13
35.860         7
35.870        13
35.880        13
35.890        53
35.900        47
35.910        40
35.920        20
35.930        13
35.940        27
35.950        33
35.960        13
35.970        20
35.980        13
35.990         7
36.000        27
36.010        13
36.020        27
36.030        33
36.040        27
36.050        40
36.060        27
36.070        40
36.080        20
36.090        27
36.100        13
36.110         7
36.120        13
36.130         0
36.140        27
36.150         7
36.160         0
36.170        33
36.180        33
36.190        33
36.200        27
36.210        33
36.220        33
36.230        27
36.240        33
36.250        27
36.260        53
36.270         7
36.280        27
36.290        13
36.300        13
36.310        40
36.320        13
36.330        27
36.340        13
36.350        27
36.360         7
36.370         7
36.380        33
36.390         7
36.400        33
36.410        20
36.420        27
36.430        13
36.440         0
36.450         7
36.460        13
36.470         7
36.480        20
36.490        20
36.500        20
36.510        33
36.520         0
36.530        13
36.540        27
36.550        13
36.560        13
36.570        20
36.580        13
36.590        40
36.600        20
36.610        27
36.620        33
36.630         7
36.640         0
36.650        20
36.660        13
36.670        60
36.680        33
36.690        33
36.700        27
36.710        20
36.720         7
36.730        20
36.740        20
36.750        13
36.760        13
36.770        13
36.780        13
36.790        20
36.800        13
36.810        47
36.820        13
36.830        33
36.840        27
36.850        40
36.860        27
36.870        20
36.880        33
36.890        20
36.900        40
36.910         7
36.920        20
36.930        20
36.940        33
36.950        27
36.960        33
36.970        27
36.980        20
36.990        40
37.000        33
37.010        27
37.020         0
37.030        33
37.040        13
37.050         7
37.060        33
37.070        13
37.080        13
37.090         0
37.100        13
37.110        33
37.120        20
37.130        27
37.140        13
37.150         7
37.160        13
37.170         7
37.180         0
37.190        33
37.200        27
37.210         0
37.220        20
37.230        27
37.240         7
37.250        20
37.260        27
37.270         7
37.280        13
37.290        20
37.300        13
37.310        13
37.320        33
37.330        20
37.340        27
37.350        13
37.360         7
37.370        53
37.380        20
37.390         7
37.400        20
37.410        20
37.420        27
37.430        47
37.440        20
37.450        13
37.460         7
37.470        27
37.480         7
37.490        33
37.500         0
37.510         0
37.520        20
37.530        20
37.540        13
37.550        27
37.560        40
37.570        20
37.580        13
37.590        27
37.600        33
37.610        13
37.620        27
37.630        13
37.640         7
37.650        27
37.660        33
37.670         7
37.680        27
37.690        13
37.700        13
37.710        27
37.720        47
37.730        20
37.740        13
37.750         0
37.760        20
37.770        40
37.780        67
37.790        53
37.800        20
37.810        60
37.820        33
37.830        80
37.840        80
37.850        53
37.860        67
37.870         0
37.880        40
37.890        33
37.900        40
37.910        73
37.920        47
37.930        47
37.940        60
37.950        40
37.960        27
37.970        33
37.980        20
37.990        13
38.000        27
38.010        20
38.020        27
38.030        27
38.040         0
38.050        27
38.060        13
38.070        40
38.080        27
38.090         7
38.100        20
38.110        40
38.120        13
38.130         7
38.140        27
38.150        33
38.160        27
38.170        13
38.180        33
38.190         7
38.200        20
38.210        13
38.220        13
38.230        27
38.240        27
38.250         7
38.260        33
38.270        13
38.280        20
38.290        33
38.300        20
38.310         7
38.320         7
38.330         7
38.340        27
38.350        13
38.360        27
38.370        27
38.380         7
38.390        33
38.400         7
38.410        13
38.420        27
38.430        27
38.440        13
38.450        33
38.460        13
38.470        13
38.480        20
38.490         7
38.500        13
38.510        20
38.520        40
38.530        20
38.540        47
38.550         7
38.560        47
38.570        27
38.580        27
38.590        20
38.600        20
38.610        33
38.620        27
38.630         7
38.640        13
38.650        20
38.660        20
38.670         7
38.680        27
38.690        20
38.700        20
38.710        27
38.720        20
38.730        20
38.740         7
38.750         7
38.760         0
38.770        67
38.780         0
38.790        33
38.800        13
38.810        13
38.820         7
38.830         7
38.840        33
38.850         7
38.860        13
38.870        13
38.880        20
38.890        47
38.900        13
38.910        27
38.920        27
38.930        20
38.940        20
38.950        20
38.960        27
38.970        47
38.980        13
38.990        20
39.000        27
39.010        67
39.020        20
39.030         7
39.040         7
39.050        13
39.060        27
39.070         7
39.080        13
39.090        13
39.100        20
39.110        20
39.120        20
39.130        20
39.140        20
39.150         7
39.160        20
39.170         7
39.180        13
39.190        27
39.200         7
39.210         7
39.220        20
39.230        20
39.240        40
39.250        20
39.260        13
39.270        33
39.280        13
39.290         7
39.300        33
39.310        20
39.320         7
39.330        20
39.340        27
39.350         7
39.360        27
39.370         7
39.380        13
39.390        20
39.400        20
39.410        20
39.420        27
39.430        33
39.440         7
39.450        20
39.460        40
39.470         7
39.480        33
39.490         7
39.500        53
39.510        27
39.520        20
39.530        27
39.540        27
39.550        53
39.560        13
39.570        27
39.580        27
39.590        27
39.600        40
39.610        27
39.620         7
39.630        33
39.640        60
39.650        60
39.660        53
39.670        40
39.680         0
39.690        20
39.700        27
39.710        53
39.720        20
39.730        53
39.740        40
39.750        33
39.760        47
39.770        60
39.780        67
39.790        67
39.800        47
39.810        93
39.820        73
39.830        60
39.840       133
39.850        80
39.860       107
39.870       147
39.880       133
39.890       113
39.900       147
39.910       160
39.920       167
39.930       160
39.940       127
39.950       167
39.960       167
39.970       180
39.980       173
39.990       180
40.000       173
40.010       180
40.020       147
40.030       173
40.040       107
40.050       147
40.060       160
40.070       113
40.080       167
40.090        73
40.100       120
40.110       160
40.120        80
40.130       140
40.140        73
40.150        93
40.160        67
40.170        80
40.180        53
40.190        47
40.200        53
40.210        47
40.220        53
40.230        53
40.240        40
40.250        13
40.260        40
40.270        33
40.280        53
40.290        13
40.300        53
40.310        47
40.320        33
40.330        20
40.340        47
40.350        67
40.360        20
40.370        40
40.380        40
40.390        33
40.400        33
40.410        20
40.420        27
40.430         7
40.440        33
40.450        33
40.460         7
40.470        20
40.480         7
40.490        27
40.500        40
40.510        60
40.520        13
40.530        20
40.540        20
40.550        20
40.560        13
40.570        13
40.580        13
40.590        27
40.600        20
40.610        40
40.620        20
40.630        27
40.640        33
40.650        40
40.660        27
40.670         0
40.680        20
40.690        33
40.700        13
40.710        27
40.720        13
40.730        27
40.740        33
40.750        27
40.760        20
40.770        13
40.780        27
40.790        13
40.800        20
40.810        20
40.820        33
40.830        13
40.840        27
40.850        13
40.860        33
40.870         7
40.880        20
40.890        27
40.900         7
40.910         0
40.920        33
40.930        33
40.940        27
40.950        13
40.960        13
40.970         0
40.980        27
40.990        27
41.000        20
41.010        20
41.020        20
41.030         7
41.040        33
41.050        33
41.060        40
41.070        53
41.080        20
41.090        33
41.100        27
41.110        27
41.120        13
41.130        13
41.140        27
41.150         7
41.160        20
41.170        27
41.180        13
41.190         7
41.200        20
41.210        13
41.220        13
41.230        20
41.240        40
41.250        13
41.260        13
41.270        27
41.280        27
41.290        13
41.300        27
41.310        13
41.320         7
41.330        20
41.340        13
41.350        40
41.360         7
41.370        40
41.380         0
41.390        20
41.400        20
41.410        27
41.420        27
41.430        33
41.440        20
41.450        27
41.460        20
41.470        40
41.480        20
41.490        20
41.500        20
41.510         7
41.520        13
41.530        13
41.540        20
41.550        20
41.560        33
41.570        13
41.580        60
41.590        47
41.600        47
41.610        40
41.620        67
41.630        80
41.640        60
41.650        53
41.660       107
41.670       167
41.680       113
41.690       200
41.700       207
41.710       193
41.720       180
41.730       133
41.740       127
41.750       127
41.760       120
41.770        93
41.780        80
41.790       147
41.800        80
41.810       133
41.820       107
41.830        73
41.840        73
41.850        53
41.860        53
41.870       107
41.880        47
41.890        13
41.900        33
41.910        27
41.920        27
41.930        33
41.940        13
41.950        33
41.960        20
41.970        13
41.980        13
41.990        33
42.000        27
42.010        13
42.020        40
42.030        13
42.040        27
42.050        20
42.060        27
42.070        13
42.080        33
42.090        13
42.100        13
42.110        47
42.120         7
42.130         7
42.140        20
42.150        27
42.160         0
42.170        13
42.180        33
42.190         7
42.200        20
42.210        20
42.220        13
42.230        33
42.240         7
42.250        13
42.260        13
42.270        13
42.280        20
42.290        27
42.300         7
42.310        13
42.320        13
42.330        27
42.340        40
42.350         7
42.360        33
42.370        13
42.380         7
42.390        27
42.400        20
42.410         7
42.420        20
42.430        20
42.440        20
42.450         0
42.460        13
42.470        13
42.480        20
42.490        20
42.500        13
42.510         0
42.520        20
42.530        20
42.540        27
42.550        20
42.560        27
42.570        20
42.580        20
42.590        20
42.600         7
42.610        27
42.620        40
42.630        13
42.640         0
42.650        13
42.660        47
42.670        33
42.680        27
42.690        13
42.700        13
42.710        20
42.720        20
42.730        40
42.740        40
42.750        33
42.760        33
42.770        27
42.780         7
42.790        33
42.800        13
42.810        20
42.820        33
42.830        27
42.840        13
42.850         0
42.860        20
42.870         0
42.880        13
42.890        27
42.900        47
42.910        13
42.920        20
42.930        20
42.940        33
42.950         7
42.960        20
42.970         7
42.980         7
42.990        33
43.000        20
43.010        53
43.020        20
43.030        27
43.040         7
43.050        27
43.060        33
43.070        53
43.080        27
43.090        20
43.100        13
43.110        20
43.120        27
43.130        27
43.140         0
43.150         7
43.160        20
43.170        13
43.180        40
43.190        53
43.200        20
43.210        20
43.220        73
43.230        40
43.240        53
43.250        53
43.260       100
43.270        40
43.280        67
43.290        53
43.300        33
43.310        60
43.320        73
43.330        53
43.340        47
43.350       113
43.360        93
43.370       147
43.380       207
43.390       167
43.400       220
43.410       140
43.420       200
43.430       160
43.440       127
43.450       107
43.460        93
43.470        73
43.480       120
43.490       127
43.500        60
43.510       153
43.520        93
43.530        53
43.540        73
43.550        33
43.560        73
43.570        53
43.580        53
43.590        20
43.600        33
43.610        20
43.620        13
43.630        27
43.640        33
43.650        40
43.660        27
43.670        27
43.680         7
43.690        13
43.700        13
43.710        27
43.720         7
43.730         7
43.740        27
43.750        47
43.760        53
43.770        20
43.780        33
43.790        20
43.800         7
43.810        27
43.820        47
43.830        33
43.840        13
43.850        13
43.860        20
43.870        33
43.880        40
43.890        47
43.900        20
43.910        40
43.920         7
43.930        13
43.940        13
43.950        13
43.960        27
43.970        20
43.980        40
43.990        13
44.000         7
44.010        20
44.020        33
44.030        13
44.040        13
44.050         7
44.060        27
44.070        40
44.080         7
44.090        40
44.100         0
44.110        40
44.120        40
44.130        33
44.140        20
44.150         7
44.160        13
44.170        13
44.180         7
44.190        27
44.200         7
44.210        13
44.220        40
44.230        20
44.240        27
44.250        27
44.260        40
44.270        13
44.280        53
44.290         7
44.300        20
44.310        27
44.320        33
44.330        13
44.340        40
44.350         0
44.360        40
44.370         7
44.380        20
44.390        20
44.400        20
44.410        20
44.420        27
44.430        20
44.440        53
44.450        13
44.460        13
44.470        20
44.480        40
44.490        27
44.500        13
44.510        13
44.520        33
44.530         0
44.540         0
44.550        33
44.560        40
44.570        13
44.580        20
44.590        20
44.600        67
44.610         7
44.620        13
44.630        40
44.640        33
44.650        33
44.660        33
44.670        27
44.680        13
44.690        13
44.700        20
44.710        33
44.720        40
44.730        13
44.740        13
44.750        40
44.760        33
44.770        20
44.780        20
44.790        33
44.800        33
44.810        27
44.820        20
44.830         7
44.840        27
44.850        27
44.860        27
44.870        47
44.880        47
44.890        53
44.900         0
44.910        27
44.920        47
44.930        27
44.940        27
44.950        27
44.960        33
44.970        53
44.980        33
44.990        20
45.000        13
45.010        40
45.020        13
45.030        33
45.040        47
45.050        73
45.060        33
45.070        33
45.080        40
45.090        53
45.100        67
45.110        47
45.120        33
45.130        20
45.140        47
45.150        40
45.160        33
45.170        60
45.180        20
45.190        53
45.200        53
45.210        20
45.220        20
45.230        33
45.240        40
45.250        60
45.260        60
45.270        13
45.280        47
45.290        47
45.300        53
45.310         7
45.320        33
45.330        53
45.340        47
45.350        47
45.360        40
45.370        67
45.380        87
45.390        13
45.400        60
45.410        53
45.420        40
45.430        33
45.440        53
45.450        67
45.460        33
45.470        40
45.480        53
45.490        47
45.500        47
45.510        67
45.520        47
45.530       100
45.540        67
45.550        67
45.560        33
45.570        53
45.580        80
45.590        67
45.600        73
45.610        87
45.620        47
45.630        80
45.640        73
45.650        73
45.660        73
45.670        60
45.680       120
45.690        87
45.700        67
45.710        80
45.720       113
45.730       113
45.740        93
45.750        73
45.760       113
45.770        87
45.780        73
45.790       133
45.800       127
45.810       100
45.820       107
45.830       160
45.840       153
45.850       160
45.860       140
45.870       127
45.880       160
45.890       133
45.900       187
45.910       160
45.920       153
45.930       280
45.940       233
45.950       260
45.960       233
45.970       253
45.980       273
45.990       273
46.000       193
46.010       307
46.020       273
46.030       353
46.040       287
46.050       300
46.060       353
46.070       367
46.080       393
46.090       273
46.100       380
46.110       333
46.120       433
46.130       500
46.140       526
46.150       673
46.160       446
46.170       633
46.180       520
46.190       626
46.200       666
46.210       680
46.220       673
46.230       646
46.240       766
46.250       620
46.260       766
46.270       860
46.280       873
46.290       846
46.300       906
46.310       860
46.320       833
46.330       820
46.340       893
46.350      1020
46.360       946
46.370       993
46.380       920
46.390       953
46.400       940
46.410      1053
46.420       913
46.430       933
46.440       873
46.450       840
46.460       793
46.470       833
46.480       753
46.490       880
46.500       853
46.510       980
46.520       826
46.530       833
46.540       733
46.550       833
46.560       753
46.570       833
46.580       713
46.590       726
46.600       660
46.610       673
46.620       593
46.630       593
46.640       533
46.650       593
46.660       553
46.670       493
46.680       500
46.690       426
46.700       440
46.710       453
46.720       313
46.730       460
46.740       320
46.750       320
46.760       333
46.770       347
46.780       247
46.790       313
46.800       300
46.810       280
46.820       180
46.830       253
46.840       247
46.850       227
46.860       227
46.870       233
46.880       233
46.890       200
46.900       167
46.910       187
46.920       207
46.930       140
46.940       127
46.950       120
46.960       140
46.970       120
46.980        80
46.990       187
47.000       100
47.010        73
47.020       100
47.030       107
47.040       107
47.050        87
47.060        87
47.070        93
47.080        87
47.090       100
47.100        47
47.110       113
47.120        80
47.130        47
47.140        60
47.150       127
47.160        80
47.170        73
47.180        67
47.190        60
47.200        60
47.210        73
47.220         7
47.230        67
47.240        33
47.250        47
47.260        80
47.270        47
47.280        60
47.290        20
47.300        67
47.310        53
47.320        20
47.330        53
47.340        73
47.350        20
47.360        33
47.370        33
47.380        33
47.390        67
47.400        47
47.410        60
47.420        27
47.430        53
47.440        60
47.450        20
47.460        53
47.470        53
47.480        20
47.490        40
47.500        40
47.510        33
47.520        53
47.530        40
47.540        33
47.550        33
47.560        27
47.570        47
47.580        47
47.590        33
47.600        13
47.610        33
47.620        33
47.630        47
47.640        20
47.650        27
47.660        13
47.670        93
47.680        13
47.690        40
47.700        47
47.710        47
47.720        33
47.730        27
47.740        27
47.750        20
47.760        53
47.770        27
47.780        47
47.790        27
47.800        13
47.810        20
47.820        53
47.830        13
47.840        47
47.850        13
47.860        13
47.870         0
47.880        47
47.890        20
47.900        27
47.910        47
47.920        13
47.930        40
47.940        27
47.950        27
47.960        13
47.970        20
47.980        73
47.990        20
48.000        40
48.010        73
48.020        13
48.030        27
48.040        27
48.050        40
48.060        33
48.070        27
48.080        20
48.090        33
48.100         7
48.110        33
48.120        20
48.130        13
48.140        20
48.150        40
48.160        40
48.170        13
48.180        27
48.190        27
48.200        20
48.210        27
48.220        27
48.230        13
48.240        53
48.250        40
48.260        20
48.270         0
48.280        20
48.290        13
48.300        27
48.310        53
48.320        20
48.330         7
48.340        20
48.350        27
48.360        20
48.370        60
48.380         7
48.390        33
48.400         7
48.410        20
48.420        20
48.430        47
48.440        27
48.450        33
48.460        20
48.470        13
48.480        20
48.490        33
48.500        27
48.510         7
48.520        27
48.530        53
48.540        20
48.550        33
48.560        13
48.570        20
48.580        13
48.590         7
48.600        13
48.610        33
48.620        27
48.630         7
48.640        27
48.650        53
48.660        20
48.670        27
48.680        27
48.690        13
48.700        20
48.710         7
48.720        13
48.730        20
48.740        27
48.750        20
48.760        33
48.770        33
48.780        20
48.790        13
48.800        20
48.810        27
48.820         7
48.830        33
48.840        33
48.850        20
48.860        13
48.870        27
48.880        13
48.890        13
48.900         7
48.910        33
48.920        33
48.930        27
48.940        13
48.950        40
48.960        13
48.970        27
48.980         0
48.990         7
49.000         7
49.010        27
49.020        20
49.030        13
49.040        20
49.050        47
49.060        13
49.070        13
49.080        20
49.090        20
49.100        20
49.110         7
49.120         7
49.130        27
49.140        33
49.150        13
49.160        13
49.170        27
49.180        13
49.190        27
49.200        13
49.210        13
49.220        13
49.230        13
49.240        47
49.250        33
49.260        27
49.270        20
49.280        20
49.290        13
49.300        20
49.310        20
49.320        47
49.330         7
49.340         7
49.350        20
49.360        20
49.370         7
49.380        33
49.390        13
49.400        13
49.410        13
49.420        33
49.430        13
49.440        13
49.450        20
49.460         7
49.470        20
49.480        33
49.490         7
49.500        47
49.510        33
49.520        27
49.530        20
49.540        13
49.550         7
49.560         0
49.570        33
49.580        13
49.590        40
49.600        33
49.610        60
49.620         7
49.630        40
49.640         7
49.650        13
49.660         7
49.670         7
49.680         0
49.690        40
49.700        60
49.710        20
49.720        33
49.730        20
49.740        13
49.750        27
49.760        27
49.770         7
49.780         7
49.790        13
49.800        27
49.810        33
49.820        33
49.830        20
49.840        20
49.850        20
49.860        33
49.870        13
49.880        13
49.890        20
49.900        13
49.910        33
49.920        20
49.930        40
49.940        13
49.950        13
49.960        20
49.970         7
49.980        20
49.990        33
50.000        20
50.010         0
50.020        27
50.030         0
50.040        13
50.050        13
50.060        27
50.070        13
50.080         7
50.090        27
50.100        27
50.110        13
50.120        27
50.130        20
50.140        13
50.150        27
50.160        13
50.170         0
50.180        27
50.190        47
50.200         7
50.210        13
50.220        20
50.230        33
50.240        20
50.250        20
50.260        13
50.270        40
50.280         7
50.290        13
50.300        20
50.310        20
50.320        40
50.330        27
50.340         0
50.350        47
50.360        13
50.370        27
50.380        20
50.390        33
50.400         7
50.410         0
50.420        47
50.430         7
50.440        27
50.450         0
50.460        13
50.470        27
50.480        33
50.490         0
50.500        13
50.510        13
50.520        27
50.530        40
50.540        13
50.550         0
50.560         7
50.570        27
50.580        13
50.590        27
50.600        27
50.610        33
50.620        20
50.630        20
50.640        20
50.650        27
50.660        27
50.670         0
50.680         7
50.690        20
50.700         7
50.710        33
50.720        13
50.730         7
50.740        20
50.750         7
50.760        27
50.770        20
50.780        27
50.790        13
50.800         7
50.810        20
50.820        20
50.830        33
50.840        33
50.850        47
50.860         7
50.870        13
50.880         0
50.890        33
50.900         7
50.910        13
50.920         0
50.930        13
50.940        20
50.950        20
50.960        13
50.970        33
50.980        33
50.990        47
51.000        27
51.010        20
51.020        33
51.030         0
51.040        13
51.050         0
51.060        40
51.070         0
51.080        13
51.090        13
51.100        27
51.110         7
51.120         7
51.130        33
51.140         0
51.150        27
51.160         7
51.170        13
51.180        13
51.190        27
51.200        40
51.210        20
51.220        20
51.230        27
51.240        27
51.250        13
51.260         7
51.270        27
51.280         7
51.290        13
51.300        20
51.310        33
51.320        20
51.330         0
51.340        13
51.350        13
51.360        33
51.370        27
51.380        33
51.390        33
51.400         7
51.410        13
51.420        20
51.430        27
51.440        13
51.450        27
51.460        27
51.470        33
51.480        13
51.490         7
51.500        53
51.510        13
51.520        33
51.530        33
51.540        33
51.550         0
51.560        13
51.570        27
51.580        13
51.590        40
51.600        13
51.610         7
51.620         7
51.630        27
51.640        13
51.650         7
51.660        13
51.670        13
51.680         7
51.690        33
51.700        33
51.710        33
51.720        20
51.730        20
51.740        27
51.750        33
51.760        47
51.770        33
51.780        27
51.790        27
51.800         7
51.810         7
51.820        27
51.830        20
51.840        13
51.850        20
51.860         0
51.870        13
51.880        20
51.890        33
51.900        27
51.910        20
51.920         0
51.930         7
51.940         0
51.950        20
51.960        40
51.970        13
51.980        27
51.990        20
52.000        33
52.010        53
52.020         7
52.030         0
52.040        13
52.050        20
52.060        13
52.070         7
52.080         0
52.090        13
52.100        13
52.110        27
52.120         0
52.130         7
52.140         0
52.150        13
52.160        33
52.170        13
52.180        20
52.190         7
52.200        40
52.210         7
52.220        20
52.230        27
52.240        33
52.250        13
52.260         7
52.270        33
52.280        20
52.290        20
52.300         7
52.310         7
52.320        40
52.330        13
52.340        40
52.350         0
52.360        47
52.370         7
52.380        20
52.390        27
52.400         7
52.410        47
52.420        27
52.430        40
52.440        13
52.450         7
52.460        27
52.470        27
52.480        13
52.490        33
52.500        27
52.510        47
52.520        13
52.530        27
52.540        40
52.550        53
52.560        47
52.570        80
52.580        40
52.590        60
52.600        73
52.610        33
52.620        33
52.630        47
52.640        27
52.650        20
52.660         7
52.670        40
52.680        33
52.690        33
52.700        60
52.710        40
52.720        53
52.730        40
52.740        33
52.750        27
52.760        40
52.770        40
52.780        40
52.790        20
52.800        13
52.810         7
52.820        20
52.830        13
52.840        27
52.850        20
52.860        20
52.870        33
52.880        20
52.890        13
52.900         0
52.910        13
52.920        13
52.930        33
52.940        27
52.950        20
52.960         7
52.970        27
52.980        27
52.990        13
53.000         7
53.010         7
53.020         7
53.030        27
53.040        13
53.050        13
53.060        13
53.070        20
53.080        20
53.090        27
53.100         7
53.110         7
53.120        40
53.130        33
53.140         7
53.150        20
53.160         0
53.170         0
53.180        13
53.190         7
53.200         0
53.210        13
53.220        13
53.230         0
53.240        47
53.250        13
53.260         7
53.270         7
53.280        20
53.290         7
53.300        27
53.310        33
53.320        20
53.330        27
53.340        13
53.350        33
53.360        27
53.370         7
53.380        13
53.390        13
53.400        40
53.410         7
53.420         7
53.430        13
53.440        33
53.450        33
53.460        13
53.470         7
53.480        33
53.490        20
53.500        33
53.510        13
53.520        20
53.530        20
53.540         7
53.550        13
53.560        20
53.570         0
53.580         7
53.590        33
53.600        20
53.610        20
53.620        13
53.630         0
53.640         0
53.650         7
53.660         7
53.670        13
53.680        20
53.690        20
53.700        20
53.710        13
53.720        20
53.730         7
53.740         0
53.750        13
53.760        33
53.770        20
53.780         7
53.790         7
53.800        13
53.810        13
53.820        27
53.830        13
53.840        13
53.850        20
53.860        27
53.870        20
53.880         7
53.890         0
53.900        33
53.910         7
53.920        20
53.930         0
53.940        20
53.950        27
53.960        20
53.970         0
53.980        13
53.990        13
54.000        27
54.010        20
54.020        27
54.030         7
54.040         7
54.050        27
54.060         0
54.070        27
54.080        13
54.090        20
54.100        13
54.110        20
54.120         0
54.130         7
54.140        20
54.150         7
54.160        47
54.170        13
54.180        13
54.190        20
54.200        20
54.210         7
54.220        13
54.230        13
54.240         0
54.250        13
54.260        13
54.270         7
54.280         7
54.290         0
54.300         0
54.310        13
54.320        27
54.330         7
54.340        20
54.350         0
54.360        33
54.370        20
54.380         7
54.390        20
54.400        40
54.410         7
54.420        27
54.430        20
54.440         7
54.450        27
54.460         7
54.470        20
54.480        20
54.490        27
54.500        33
54.510        27
54.520        40
54.530        13
54.540        13
54.550        40
54.560        20
54.570        33
54.580        20
54.590        20
54.600        33
54.610         7
54.620         0
54.630        20
54.640        13
54.650         7
54.660        13
54.670        20
54.680        33
54.690        27
54.700         0
54.710         0
54.720        40
54.730        13
54.740        47
54.750        20
54.760        20
54.770         7
54.780         0
54.790         0
54.800         7
54.810        13
54.820        13
54.830        13
54.840        27
54.850         0
54.860        13
54.870        27
54.880        20
54.890         0
54.900         0
54.910         7
54.920        13
54.930         0
54.940        27
54.950         0
54.960        27
54.970        33
54.980        20
54.990        13
55.000        53
55.010         7
55.020         7
55.030         0
55.040        13
55.050        13
55.060        27
55.070        13
55.080         7
55.090        13
55.100         7
55.110        33
55.120        13
55.130        33
55.140        27
55.150         0
55.160        13
55.170        27
55.180        27
55.190         0
55.200        13
55.210        20
55.220        33
55.230        20
55.240         7
55.250        13
55.260         7
55.270        33
55.280        13
55.290        33
55.300        13
55.310         7
55.320         7
55.330        20
55.340        27
55.350         7
55.360         7
55.370        20
55.380        27
55.390        33
55.400         0
55.410         7
55.420        27
55.430        20
55.440         7
55.450        27
55.460        13
55.470        20
55.480        13
55.490        20
55.500         7
55.510        27
55.520        13
55.530         7
55.540        20
55.550         7
55.560        20
55.570         7
55.580        13
55.590        27
55.600        33
55.610        27
55.620         7
55.630         0
55.640         7
55.650         7
55.660        13
55.670        33
55.680        13
55.690         7
55.700        20
55.710        27
55.720        20
55.730        13
55.740        13
55.750        27
55.760         7
55.770         0
55.780        27
55.790        13
55.800        40
55.810        27
55.820        20
55.830        27
55.840        27
55.850        40
55.860         0
55.870         7
55.880         0
55.890        13
55.900        13
55.910        13
55.920        13
55.930        20
55.940        27
55.950        40
55.960        33
55.970         7
55.980         7
55.990        27
56.000        13
56.010         0
56.020         0
56.030        20
56.040        20
56.050        20
56.060        13
56.070        20
56.080        13
56.090         7
56.100        27
56.110        20
56.120        33
56.130        20
56.140        27
56.150         0
56.160         0
56.170        13
56.180        13
56.190        20
56.200        13
56.210        13
56.220        13
56.230        20
56.240         0
56.250        20
56.260         7
56.270        13
56.280        33
56.290        27
56.300        20
56.310        27
56.320         7
56.330        47
56.340         7
56.350        13
56.360        40
56.370         7
56.380        27
56.390        27
56.400        13
56.410        13
56.420        20
56.430        47
56.440        40
56.450         7
56.460        13
56.470        47
56.480        13
56.490        13
56.500        13
56.510        13
56.520        20
56.530         0
56.540         7
56.550         7
56.560        13
56.570        13
56.580         7
56.590         7
56.600         0
56.610        20
56.620        27
56.630        13
56.640        13
56.650        33
56.660         0
56.670        20
56.680         0
56.690        27
56.700        20
56.710        20
56.720         7
56.730        13
56.740        27
56.750        20
56.760         7
56.770        13
56.780        27
56.790        40
56.800        27
56.810        33
56.820         0
56.830        13
56.840        13
56.850         0
56.860        13
56.870        13
56.880        33
56.890         7
56.900        40
56.910        33
56.920         7
56.930        27
56.940         7
56.950        13
56.960         7
56.970         7
56.980         7
56.990        13
57.000        13
57.010        13
57.020        13
57.030         7
57.040        20
57.050        13
57.060        27
57.070        27
57.080        27
57.090        20
57.100        33
57.110         7
57.120        13
57.130        33
57.140        13
57.150        20
57.160         0
57.170        33
57.180         0
57.190        20
57.200        27
57.210        20
57.220        13
57.230        40
57.240        33
57.250        20
57.260         0
57.270         7
57.280        13
57.290         7
57.300        13
57.310         7
57.320        27
57.330        27
57.340         0
57.350         7
57.360        53
57.370        40
57.380        20
57.390        60
57.400        27
57.410        53
57.420        60
57.430        27
57.440        60
57.450        60
57.460        47
57.470       127
57.480       187
57.490       253
57.500       260
57.510       240
57.520       367
57.530       340
57.540       280
57.550       240
57.560       240
57.570       167
57.580       167
57.590        80
57.600        53
57.610        67
57.620        73
57.630        93
57.640        80
57.650       167
57.660       187
57.670       213
57.680       160
57.690       200
57.700       173
57.710       133
57.720       120
57.730       127
57.740        60
57.750       100
57.760        80
57.770        67
57.780        33
57.790        27
57.800        40
57.810        47
57.820        27
57.830        73
57.840        40
57.850        47
57.860         7
57.870        27
57.880        33
57.890        27
57.900        27
57.910        33
57.920        27
57.930        40
57.940        40
57.950        53
57.960        27
57.970        20
57.980        13
57.990        13
58.000         7
58.010        53
58.020        27
58.030        33
58.040        33
58.050        47
58.060        20
58.070        13
58.080        47
58.090        40
58.100        27
58.110        27
58.120        27
58.130        33
58.140        20
58.150         7
58.160        13
58.170        20
58.180        13
58.190        27
58.200        27
58.210        13
58.220        27
58.230        27
58.240        13
58.250        33
58.260         7
58.270        20
58.280        27
58.290         0
58.300        13
58.310         7
58.320         7
58.330        13
58.340        27
58.350        27
58.360        20
58.370        20
58.380        33
58.390        20
58.400        20
58.410        13
58.420         7
58.430        27
58.440        13
58.450         7
58.460        20
58.470        47
58.480        13
58.490         7
58.500        27
58.510         7
58.520        27
58.530        13
58.540        20
58.550        33
58.560        13
58.570        20
58.580        40
58.590         0
58.600         7
58.610        33
58.620        33
58.630         7
58.640        20
58.650         7
58.660         0
58.670        13
58.680        13
58.690        13
58.700        20
58.710        13
58.720        20
58.730        27
58.740        20
58.750         7
58.760         7
58.770         7
58.780        13
58.790        27
58.800        27
58.810        27
58.820         7
58.830        13
58.840        13
58.850         0
58.860        20
58.870        20
58.880         7
58.890        13
58.900        13
58.910         0
58.920        13
58.930         0
58.940        13
58.950        27
58.960         7
58.970        13
58.980        13
58.990         7
59.000         7
59.010         7
59.020         7
59.030        27
59.040        20
59.050        13
59.060         7
59.070        20
59.080        27
59.090        13
59.100        20
59.110        20
59.120        27
59.130        20
59.140         0
59.150         7
59.160         0
59.170        20
59.180        13
59.190        27
59.200        20
59.210        27
59.220         0
59.230         7
59.240        13
59.250        20
59.260        13
59.270        20
59.280        33
59.290        13
59.300        13
59.310        20
59.320        13
59.330         7
59.340         0
59.350        27
59.360        33
59.370        13
59.380        13
59.390        13
59.400         0
59.410         7
59.420        27
59.430        13
59.440        13
59.450        13
59.460        20
59.470        40
59.480         0
59.490        13
59.500         0
59.510         7
59.520         0
59.530         0
59.540        27
59.550         0
59.560        27
59.570         0
59.580        13
59.590        20
59.600         7
59.610        20
59.620        13
59.630         7
59.640        20
59.650        13
59.660         7
59.670        20
59.680         7
59.690        40
59.700        27
59.710        33
59.720        33
59.730        20
59.740        20
59.750         7
59.760        27
59.770        27
59.780        13
59.790        20
59.800        13
59.810        33
59.820        13
59.830        13
59.840        13
59.850        13
59.860        20
59.870         7
59.880         7
59.890         7
59.900        13
59.910        13
59.920        33
59.930        20
59.940        27
59.950        13
59.960        27
59.970        13
59.980        33
59.990         7
60.000         7
