20.000        27
20.010        27
20.020        73
20.030        47
20.040        33
20.050        80
20.060        40
20.070        67
20.080        80
20.090        47
20.100        40
20.110        53
20.120        60
20.130        53
20.140        60
20.150        60
20.160        73
20.170        73
20.180        47
20.190        53
20.200       127
20.210        80
20.220        93
20.230        73
20.240        53
20.250        60
20.260        87
20.270        53
20.280        80
20.290        47
20.300        73
20.310        87
20.320        67
20.330        73
20.340        40
20.350        80
20.360       113
20.370        67
20.380       100
20.390        60
20.400        87
20.410        73
20.420        73
20.430        67
20.440        73
20.450       100
20.460        60
20.470        87
20.480        93
20.490        73
20.500        67
20.510        53
20.520        87
20.530        93
20.540        67
20.550        80
20.560        60
20.570        60
20.580        47
20.590       140
20.600        67
20.610        60
20.620        53
20.630        73
20.640        60
20.650        80
20.660       100
20.670        67
20.680       100
20.690       107
20.700        93
20.710       113
20.720       100
20.730        93
20.740       133
20.750       107
20.760        60
20.770        73
20.780        73
20.790        73
20.800        53
20.810        93
20.820        80
20.830        47
20.840        93
20.850        60
20.860        67
20.870       113
20.880        67
20.890        93
20.900        73
20.910       107
20.920        93
20.930        67
20.940        40
20.950       113
20.960       100
20.970        67
20.980       107
20.990       107
21.000       100
21.010       120
21.020        93
21.030        87
21.040       127
21.050        73
21.060        73
21.070       113
21.080        80
21.090        93
21.100        80
21.110       113
21.120        93
21.130        73
21.140        93
21.150       113
21.160        67
21.170       100
21.180        53
21.190        60
21.200       100
21.210        87
21.220        87
21.230       107
21.240       100
21.250        67
21.260       100
21.270        73
21.280        60
21.290        47
21.300        67
21.310        73
21.320        47
21.330        93
21.340        93
21.350       153
21.360        60
21.370       100
21.380        73
21.390       147
21.400        87
21.410        60
21.420       107
21.430        40
21.440       100
21.450       127
21.460        73
21.470        67
21.480       107
21.490        93
21.500        33
21.510       100
21.520        93
21.530        80
21.540        87
21.550       133
21.560       107
21.570        80
21.580       120
21.590        47
21.600       127
21.610       113
21.620        80
21.630        87
21.640       107
21.650       113
21.660        87
21.670        93
21.680        67
21.690       127
21.700        60
21.710        80
21.720        87
21.730        87
21.740        80
21.750        33
21.760        80
21.770       107
21.780        80
21.790        80
21.800       100
21.810        80
21.820        93
21.830       127
21.840       107
21.850        87
21.860        60
21.870        80
21.880       107
21.890        80
21.900       113
21.910       113
21.920        67
21.930       107
21.940       113
21.950        93
21.960       147
21.970       107
21.980        73
21.990       107
22.000       100
22.010       113
22.020       100
22.030       153
22.040       107
22.050       100
22.060        73
22.070       113
22.080        73
22.090        67
22.100       100
22.110       127
22.120       100
22.130        40
22.140       107
22.150       133
22.160       113
22.170       100
22.180        87
22.190       173
22.200        80
22.210        93
22.220       127
22.230       127
22.240       113
22.250        80
22.260       113
22.270       113
22.280        80
22.290       113
22.300        87
22.310       147
22.320       140
22.330       140
22.340        80
22.350       133
22.360       140
22.370        73
22.380       173
22.390       113
22.400        67
22.410       113
22.420       100
22.430        80
22.440       120
22.450       100
22.460       107
22.470       107
22.480        33
22.490       107
22.500       127
22.510       113
22.520       140
22.530       140
22.540       120
22.550        93
22.560       140
22.570        80
22.580       133
22.590        87
22.600       113
22.610       133
22.620        67
22.630       160
22.640       107
22.650        87
22.660       147
22.670       127
22.680        67
22.690       140
22.700        93
22.710       180
22.720       113
22.730       133
22.740       100
22.750       180
22.760       113
22.770       100
22.780        93
22.790       107
22.800       107
22.810       107
22.820       107
22.830        80
22.840       113
22.850       133
22.860       120
22.870       173
22.880       153
22.890        73
22.900       127
22.910       127
22.920       147
22.930       153
22.940       133
22.950       127
22.960       187
22.970       173
22.980       147
22.990       193
23.000       167
23.010       173
23.020       173
23.030        93
23.040       173
23.050       180
23.060       180
23.070       220
23.080       233
23.090       446
23.100       546
23.110       713
23.120       873
23.130       866
23.140       940
23.150       780
23.160       553
23.170       486
23.180       373
23.190       280
23.200       167
23.210       240
23.220       207
23.230       120
23.240       173
23.250       160
23.260       140
23.270       147
23.280       167
23.290       240
23.300       107
23.310       173
23.320       173
23.330       167
23.340       173
23.350       140
23.360       133
23.370        87
23.380       133
23.390       140
23.400       127
23.410       147
23.420       220
23.430        93
23.440       180
23.450       167
23.460       180
23.470       100
23.480       100
23.490       107
23.500       193
23.510       173
23.520       160
23.530       133
23.540       113
23.550       120
23.560       160
23.570       133
23.580       180
23.590       107
23.600       160
23.610       113
23.620       187
23.630       107
23.640        93
23.650       200
23.660       153
23.670       247
23.680       133
23.690       100
23.700       133
23.710       160
23.720       120
23.730       153
23.740       107
23.750       120
23.760       127
23.770        93
23.780       127
23.790       160
23.800       140
23.810       120
23.820       147
23.830        93
23.840       200
23.850       147
23.860       127
23.870       127
23.880       160
23.890       140
23.900       120
23.910       160
23.920       107
23.930       160
23.940       133
23.950       113
23.960        93
23.970       133
23.980       120
23.990       127
24.000       167
24.010       173
24.020       113
24.030       107
24.040       133
24.050       120
24.060        93
24.070       160
24.080       133
24.090       107
24.100       173
24.110       180
24.120       147
24.130        93
24.140       153
24.150        80
24.160       127
24.170       180
24.180       113
24.190       180
24.200       167
24.210       187
24.220       133
24.230       120
24.240       113
24.250       113
24.260       107
24.270       133
24.280       140
24.290       127
24.300       153
24.310       153
24.320       120
24.330       127
24.340        67
24.350       107
24.360       100
24.370       100
24.380       153
24.390       107
24.400       127
24.410       113
24.420       127
24.430       147
24.440       173
24.450       120
24.460        80
24.470       147
24.480       120
24.490       107
24.500       147
24.510       160
24.520        80
24.530        93
24.540       127
24.550       100
24.560       140
24.570       113
24.580       160
24.590       140
24.600       207
24.610        80
24.620       207
24.630        87
24.640       127
24.650       153
24.660       200
24.670       120
24.680       173
24.690        73
24.700       160
24.710       200
24.720       153
24.730       267
24.740       300
24.750       273
24.760       260
24.770       440
24.780       480
24.790       360
24.800       413
24.810       360
24.820       393
24.830       373
24.840       486
24.850       420
24.860       473
24.870       347
24.880       440
24.890       413
24.900       380
24.910       466
24.920       420
24.930       340
24.940       373
24.950       440
24.960       480
24.970       480
24.980       513
24.990       440
25.000       413
25.010       400
25.020       446
25.030       453
25.040       433
25.050       473
25.060       466
25.070       373
25.080       367
25.090       513
25.100       500
25.110       407
25.120       493
25.130       486
25.140       560
25.150       473
25.160       473
25.170       480
25.180       460
25.190       466
25.200       433
25.210       560
25.220       626
25.230       407
25.240       413
25.250       560
25.260       653
25.270       506
25.280       506
25.290       620
25.300       686
25.310       593
25.320       686
25.330       753
25.340       800
25.350      1073
25.360      1259
25.370      1559
25.380      1766
25.390      2126
25.400      2526
25.410      2866
25.420      3332
25.430      4038
25.440      4232
25.450      4738
25.460      4765
25.470      5424
25.480      5671
25.490      6058
25.500      6477
25.510      7031
25.520      6617
25.530      6651
25.540      7004
25.550      7524
25.560      8457
25.570     10929
25.580     17753
25.590     35306
25.600     57051
25.610     77576
25.620     91430
25.630     97208
25.640    104225
25.650    107484
25.660    103719
25.670     90397
25.680     72464
25.690     61329
25.700     57610
25.710     57697
25.720     52752
25.730     42316
25.740     26483
25.750     13288
25.760      6304
25.770      4285
25.780      3579
25.790      2679
25.800      2259
25.810      1953
25.820      1713
25.830      1553
25.840      1240
25.850      1206
25.860      1020
25.870       940
25.880       986
25.890       793
25.900       940
25.910       740
25.920       700
25.930       760
25.940       693
25.950       593
25.960       540
25.970       640
25.980       653
25.990       493
26.000       560
26.010       540
26.020       613
26.030       606
26.040       553
26.050       520
26.060       580
26.070       513
26.080       393
26.090       573
26.100       526
26.110       493
26.120       520
26.130       506
26.140       407
26.150       473
26.160       540
26.170       466
26.180       533
26.190       486
26.200       453
26.210       433
26.220       380
26.230       433
26.240       453
26.250       526
26.260       393
26.270       513
26.280       466
26.290       440
26.300       460
26.310       446
26.320       433
26.330       393
26.340       407
26.350       373
26.360       440
26.370       413
26.380       387
26.390       433
26.400       353
26.410       420
26.420       373
26.430       360
26.440       400
26.450       480
26.460       340
26.470       307
26.480       360
26.490       367
26.500       360
26.510       333
26.520       367
26.530       380
26.540       327
26.550       433
26.560       380
26.570       367
26.580       373
26.590       367
26.600       320
26.610       446
26.620       360
26.630       340
26.640       387
26.650       320
26.660       327
26.670       260
26.680       333
26.690       426
26.700       347
26.710       413
26.720       407
26.730       420
26.740       387
26.750       347
26.760       300
26.770       373
26.780       407
26.790       333
26.800       387
26.810       313
26.820       353
26.830       333
26.840       247
26.850       367
26.860       307
26.870       280
26.880       333
26.890       340
26.900       413
26.910       393
26.920       300
26.930       300
26.940       333
26.950       267
26.960       313
26.970       333
26.980       320
26.990       347
27.000       380
27.010       293
27.020       300
27.030       267
27.040       253
27.050       313
27.060       293
27.070       333
27.080       300
27.090       300
27.100       293
27.110       313
27.120       287
27.130       353
27.140       267
27.150       320
27.160       280
27.170       387
27.180       287
27.190       333
27.200       293
27.210       320
27.220       253
27.230       267
27.240       327
27.250       313
27.260       293
27.270       253
27.280       293
27.290       320
27.300       333
27.310       273
27.320       353
27.330       293
27.340       280
27.350       247
27.360       300
27.370       293
27.380       267
27.390       273
27.400       227
27.410       320
27.420       293
27.430       267
27.440       260
27.450       287
27.460       387
27.470       293
27.480       227
27.490       300
27.500       253
27.510       313
27.520       220
27.530       260
27.540       267
27.550       280
27.560       273
27.570       307
27.580       360
27.590       207
27.600       260
27.610       207
27.620       267
27.630       340
27.640       320
27.650       300
27.660       227
27.670       280
27.680       207
27.690       233
27.700       273
27.710       380
27.720       227
27.730       340
27.740       233
27.750       367
27.760       313
27.770       247
27.780       333
27.790       307
27.800       273
27.810       313
27.820       307
27.830       300
27.840       220
27.850       260
27.860       247
27.870       233
27.880       333
27.890       240
27.900       220
27.910       327
27.920       253
27.930       293
27.940       273
27.950       267
27.960       327
27.970       360
27.980       260
27.990       260
28.000       293
28.010       293
28.020       300
28.030       300
28.040       213
28.050       220
28.060       193
28.070       320
28.080       287
28.090       240
28.100       213
28.110       260
28.120       273
28.130       327
28.140       240
28.150       267
28.160       267
28.170       207
28.180       220
28.190       287
28.200       247
28.210       327
28.220       227
28.230       313
28.240       213
28.250       260
28.260       233
28.270       200
28.280       313
28.290       327
28.300       260
28.310       287
28.320       340
28.330       233
28.340       260
28.350       207
28.360       293
28.370       273
28.380       233
28.390       220
28.400       240
28.410       207
28.420       227
28.430       213
28.440       233
28.450       273
28.460       180
28.470       227
28.480       180
28.490       260
28.500       247
28.510       260
28.520       287
28.530       380
28.540       233
28.550       253
28.560       213
28.570       300
28.580       233
28.590       287
28.600       167
28.610       293
28.620       280
28.630       233
28.640       193
28.650       240
28.660       260
28.670       200
28.680       227
28.690       227
28.700       213
28.710       173
28.720       233
28.730       287
28.740       213
28.750       287
28.760       253
28.770       220
28.780       220
28.790       287
28.800       213
28.810       260
28.820       233
28.830       260
28.840       193
28.850       207
28.860       187
28.870       213
28.880       200
28.890       273
28.900       200
28.910       193
28.920       233
28.930       240
28.940       140
28.950       307
28.960       340
28.970       220
28.980       200
28.990       200
29.000       260
29.010       233
29.020       240
29.030       247
29.040       247
29.050       213
29.060       200
29.070       220
29.080       153
29.090       280
29.100       227
29.110       267
29.120       293
29.130       240
29.140       167
29.150       207
29.160       233
29.170       167
29.180       153
29.190       260
29.200       273
29.210       220
29.220       127
29.230       247
29.240       193
29.250       180
29.260       333
29.270       267
29.280       187
29.290       193
29.300       273
29.310       213
29.320       240
29.330       213
29.340       233
29.350       220
29.360       227
29.370       207
29.380       220
29.390       227
29.400       173
29.410       167
29.420       140
29.430       253
29.440       213
29.450       147
29.460       287
29.470       247
29.480       200
29.490       207
29.500       147
29.510       240
29.520       160
29.530       147
29.540       213
29.550       160
29.560       240
29.570       180
29.580       240
29.590       247
29.600       200
29.610       187
29.620       200
29.630       173
29.640       273
29.650       227
29.660       247
29.670       253
29.680       247
29.690       227
29.700       140
29.710       207
29.720       180
29.730       180
29.740       233
29.750       193
29.760       247
29.770       227
29.780       180
29.790       213
29.800       220
29.810       147
29.820       200
29.830       233
29.840       253
29.850       180
29.860       173
29.870       187
29.880       193
29.890       207
29.900       240
29.910       167
29.920       247
29.930       207
29.940       200
29.950       227
29.960       193
29.970       153
29.980       167
29.990       140
30.000       140
30.010       167
30.020       193
30.030       247
30.040       247
30.050       233
30.060       160
30.070       193
30.080       200
30.090       220
30.100       160
30.110       187
30.120       207
30.130       180
30.140       160
30.150       267
30.160       220
30.170       200
30.180       220
30.190       127
30.200       220
30.210       173
30.220       140
30.230       220
30.240       233
30.250       187
30.260       160
30.270       233
30.280       207
30.290       200
30.300       140
30.310       127
30.320       220
30.330       200
30.340       193
30.350       153
30.360       180
30.370       193
30.380       247
30.390       213
30.400       187
30.410       153
30.420       167
30.430       147
30.440       167
30.450       213
30.460       200
30.470       167
30.480       207
30.490       153
30.500       220
30.510       200
30.520       227
30.530       200
30.540       160
30.550       173
30.560       147
30.570       127
30.580       160
30.590       173
30.600       160
30.610       147
30.620       133
30.630       153
30.640       187
30.650       173
30.660       167
30.670       173
30.680       187
30.690       140
30.700       193
30.710       173
30.720       127
30.730       180
30.740       147
30.750       180
30.760       113
30.770       187
30.780       147
30.790       160
30.800       133
30.810       200
30.820       207
30.830       213
30.840       140
30.850       147
30.860       120
30.870       147
30.880       173
30.890       120
30.900       147
30.910       153
30.920       147
30.930       120
30.940       120
30.950       127
30.960       133
30.970       127
30.980       200
30.990       173
31.000       147
31.010       173
31.020       147
31.030       120
31.040       113
31.050       193
31.060       107
31.070       107
31.080       153
31.090       187
31.100       193
31.110       120
31.120       173
31.130       133
31.140       207
31.150       147
31.160       193
31.170       160
31.180       193
31.190       187
31.200       167
31.210       200
31.220       187
31.230       100
31.240       227
31.250       127
31.260       187
31.270       173
31.280       147
31.290       133
31.300       153
31.310       133
31.320       153
31.330       140
31.340       127
31.350       147
31.360       147
31.370       153
31.380        87
31.390       153
31.400       100
31.410       153
31.420       180
31.430       147
31.440       140
31.450       120
31.460       200
31.470       133
31.480       160
31.490       153
31.500       127
31.510       167
31.520       167
31.530       133
31.540       133
31.550       140
31.560       167
31.570       113
31.580       180
31.590       113
31.600       167
31.610       147
31.620       140
31.630       147
31.640       127
31.650       140
31.660       120
31.670       113
31.680       107
31.690       160
31.700       187
31.710       147
31.720       140
31.730       193
31.740       160
31.750       187
31.760       140
31.770       180
31.780       113
31.790       140
31.800       193
31.810       160
31.820       167
31.830       113
31.840       153
31.850       140
31.860       200
31.870       160
31.880       153
31.890       120
31.900       120
31.910       140
31.920       180
31.930       160
31.940        87
31.950       153
31.960       153
31.970       167
31.980       113
31.990       127
32.000       120
32.010       147
32.020       167
32.030       153
32.040       173
32.050        87
32.060       140
32.070       220
32.080       140
32.090       133
32.100       180
32.110       240
32.120       187
32.130       227
32.140       227
32.150       253
32.160       227
32.170       207
32.180       193
32.190       213
32.200       240
32.210       253
32.220       260
32.230       387
32.240       247
32.250       280
32.260       307
32.270       260
32.280       200
32.290       240
32.300       220
32.310       300
32.320       260
32.330       267
32.340       273
32.350       227
32.360       213
32.370       227
32.380       187
32.390       227
32.400       187
32.410       220
32.420       127
32.430       160
32.440       147
32.450       207
32.460       160
32.470       147
32.480       140
32.490       173
32.500       167
32.510       180
32.520       213
32.530       153
32.540       140
32.550       153
32.560       133
32.570       147
32.580       113
32.590       113
32.600       160
32.610       113
32.620       167
32.630        87
32.640       107
32.650        93
32.660       153
32.670       227
32.680       140
32.690       173
32.700       140
32.710       107
32.720       107
32.730       133
32.740       173
32.750       107
32.760       133
32.770       107
32.780       140
32.790       113
32.800       153
32.810       153
32.820       147
32.830        67
32.840       140
32.850       180
32.860       120
32.870       100
32.880       113
32.890        87
32.900       100
32.910       173
32.920       140
32.930       147
32.940       147
32.950        80
32.960        87
32.970       140
32.980       133
32.990       100
33.000       127
33.010       113
33.020        60
33.030        67
33.040       107
33.050       140
33.060       153
33.070       120
33.080       120
33.090       120
33.100       120
33.110        80
33.120        93
33.130       120
33.140       147
33.150        47
33.160       100
33.170        80
33.180        73
33.190       107
33.200       127
33.210       147
33.220        53
33.230        80
33.240        80
33.250       120
33.260        73
33.270        73
33.280       100
33.290       107
33.300       100
33.310       113
33.320       147
33.330       107
33.340       120
33.350       133
33.360       107
33.370        87
33.380       140
33.390       100
33.400       133
33.410       127
33.420       100
33.430       107
33.440        80
33.450       113
33.460       107
33.470       100
33.480       107
33.490        80
33.500       107
33.510       107
33.520        73
33.530        80
33.540        60
33.550       107
33.560       153
33.570        80
33.580        93
33.590       167
33.600        87
33.610        80
33.620        87
33.630        80
33.640       107
33.650       113
33.660       120
33.670       100
33.680       133
33.690       120
33.700        47
33.710        60
33.720        93
33.730        80
33.740       113
33.750       133
33.760       113
33.770        67
33.780        73
33.790       107
33.800       107
33.810       167
33.820       107
33.830       100
33.840       153
33.850       120
33.860        87
33.870       120
33.880       120
33.890        93
33.900       127
33.910        87
33.920        80
33.930        53
33.940        73
33.950        87
33.960        60
33.970        73
33.980        87
33.990        73
34.000        60
34.010        67
34.020        73
34.030        67
34.040        67
34.050        87
34.060       113
34.070        80
34.080        93
34.090        40
34.100       133
34.110       133
34.120        80
34.130       107
34.140        93
34.150       100
34.160        93
34.170       107
34.180        47
34.190        73
34.200        93
34.210        53
34.220        80
34.230       127
34.240       127
34.250        87
34.260       120
34.270        93
34.280        73
34.290        87
34.300       120
34.310        73
34.320       100
34.330        80
34.340       120
34.350        93
34.360        87
34.370       107
34.380       107
34.390       120
34.400        60
34.410       100
34.420        87
34.430       107
34.440       127
34.450       100
34.460       107
34.470        87
34.480        53
34.490        73
34.500       113
34.510       140
34.520       100
34.530       107
34.540       113
34.550       133
34.560        93
34.570       107
34.580       120
34.590       127
34.600       120
34.610       120
34.620        60
34.630        53
34.640        40
34.650        67
34.660        53
34.670        80
34.680        93
34.690        87
34.700        47
34.710        73
34.720        93
34.730       100
34.740        87
34.750        87
34.760        87
34.770        80
34.780        87
34.790        73
34.800        87
34.810       100
34.820        67
34.830        93
34.840       120
34.850        60
34.860       100
34.870       100
34.880        87
34.890        60
34.900       140
34.910        53
34.920        73
34.930        67
34.940        53
34.950       120
34.960       100
34.970       120
34.980        33
34.990        87
35.000        80
35.010       100
35.020        93
35.030        60
35.040        47
35.050        47
35.060        60
35.070        60
35.080        67
35.090       120
35.100        40
35.110        53
35.120       107
35.130        93
35.140        67
35.150       127
35.160       140
35.170       107
35.180        87
35.190       107
35.200        67
35.210        33
35.220        87
35.230        80
35.240        73
35.250        93
35.260        80
35.270        53
35.280        47
35.290        67
35.300       127
35.310        93
35.320        60
35.330       133
35.340        67
35.350        73
35.360        87
35.370        60
35.380        93
35.390        53
35.400        93
35.410       120
35.420        53
35.430        47
35.440        67
35.450        80
35.460        93
35.470       127
35.480        60
35.490        93
35.500        40
35.510        60
35.520        87
35.530        87
35.540       127
35.550        53
35.560        73
35.570        87
35.580        87
35.590       100
35.600        33
35.610        60
35.620        60
35.630        73
35.640        60
35.650        67
35.660        67
35.670        73
35.680       100
35.690        80
35.700       100
35.710        73
35.720        53
35.730        60
35.740        93
35.750        60
35.760        73
35.770        67
35.780        53
35.790        80
35.800        67
35.810        67
35.820       100
35.830        87
35.840        67
35.850        40
35.860        73
35.870        67
35.880        73
35.890        47
35.900        47
35.910        93
35.920        67
35.930        67
35.940        60
35.950        53
35.960        67
35.970        53
35.980        60
35.990        60
36.000        47
36.010        80
36.020        80
36.030        47
36.040        67
36.050        73
36.060        67
36.070        33
36.080        40
36.090        33
36.100        53
36.110        73
36.120        53
36.130        93
36.140        47
36.150       100
36.160        53
36.170        67
36.180        67
36.190        67
36.200        67
36.210        60
36.220        73
36.230        53
36.240        53
36.250        40
36.260        60
36.270        73
36.280        53
36.290        47
36.300        53
36.310        60
36.320        87
36.330        80
36.340        73
36.350        93
36.360        53
36.370        80
36.380        87
36.390        40
36.400        67
36.410        27
36.420        93
36.430        27
36.440       127
36.450        67
36.460        20
36.470        87
36.480        80
36.490        47
36.500        20
36.510        80
36.520        60
36.530        60
36.540        47
36.550        53
36.560        40
36.570        73
36.580        60
36.590        60
36.600        80
36.610        73
36.620        60
36.630        73
36.640        60
36.650        73
36.660        67
36.670       100
36.680        60
36.690        93
36.700        60
36.710        47
36.720        87
36.730        93
36.740        47
36.750        80
36.760        67
36.770        53
36.780        93
36.790        67
36.800        53
36.810        33
36.820        53
36.830        40
36.840        67
36.850        33
36.860        53
36.870        80
36.880        53
36.890        40
36.900        40
36.910        27
36.920        60
36.930        60
36.940        73
36.950        80
36.960        73
36.970        67
36.980        60
36.990        20
37.000        67
37.010        60
37.020        53
37.030        73
37.040        67
37.050        47
37.060        60
37.070        67
37.080       100
37.090        60
37.100        47
37.110        93
37.120        60
37.130        40
37.140        40
37.150        33
37.160        20
37.170        67
37.180        87
37.190        53
37.200        47
37.210        73
37.220        53
37.230        47
37.240        40
37.250        40
37.260        33
37.270        80
37.280        87
37.290        47
37.300        47
37.310        73
37.320        53
37.330        87
37.340        20
37.350        53
37.360        73
37.370       107
37.380        67
37.390        40
37.400        60
37.410        67
37.420        87
37.430        87
37.440        87
37.450        60
37.460        33
37.470        40
37.480        47
37.490       107
37.500        53
37.510        47
37.520        33
37.530        87
37.540        33
37.550        33
37.560        60
37.570        33
37.580        80
37.590        27
37.600        47
37.610        80
37.620        60
37.630        40
37.640        47
37.650        33
37.660        53
37.670        33
37.680        60
37.690        47
37.700        53
37.710       127
37.720        47
37.730        53
37.740        40
37.750        20
37.760        20
37.770        53
37.780        27
37.790        80
37.800        53
37.810        60
37.820        40
37.830        60
37.840        40
37.850        40
37.860        60
37.870        27
37.880        60
37.890        40
37.900        27
37.910        47
37.920        67
37.930        40
37.940        60
37.950        33
37.960        47
37.970        60
37.980        47
37.990        33
38.000        80
38.010        20
38.020        53
38.030        27
38.040        40
38.050       180
38.060        20
38.070        40
38.080        40
38.090        47
38.100        67
38.110        93
38.120        27
38.130        27
38.140        67
38.150        53
38.160        60
38.170        53
38.180        60
38.190        20
38.200        33
38.210        60
38.220        73
38.230        73
38.240        80
38.250        47
38.260        60
38.270        47
38.280        67
38.290        60
38.300        73
38.310        80
38.320        27
38.330        53
38.340        53
38.350         7
38.360        27
38.370        53
38.380        53
38.390        47
38.400        47
38.410        33
38.420        67
38.430        33
38.440        67
38.450        53
38.460        40
38.470        53
38.480        40
38.490        53
38.500        60
38.510        40
38.520        27
38.530        40
38.540        73
38.550        20
38.560        27
38.570        33
38.580        67
38.590        47
38.600        33
38.610        47
38.620        33
38.630        60
38.640        13
38.650        40
38.660        67
38.670        60
38.680        53
38.690        27
38.700        33
38.710        73
38.720        47
38.730        20
38.740        60
38.750        93
38.760        47
38.770        73
38.780        47
38.790        33
38.800        47
38.810        53
38.820        53
38.830        47
38.840        47
38.850        87
38.860       100
38.870        67
38.880        67
38.890        67
38.900        47
38.910        33
38.920        20
38.930        40
38.940        73
38.950        73
38.960        47
38.970        60
38.980        40
38.990        47
39.000        47
39.010        27
39.020        80
39.030        53
39.040        53
39.050        20
39.060        67
39.070        53
39.080        40
39.090        73
39.100         7
39.110        33
39.120        33
39.130        20
39.140        67
39.150        40
39.160        40
39.170        33
39.180        40
39.190        47
39.200        20
39.210        47
39.220        73
39.230        53
39.240        33
39.250        13
39.260        60
39.270        73
39.280        60
39.290        20
39.300        40
39.310        27
39.320        27
39.330        27
39.340        60
39.350         7
39.360        27
39.370        40
39.380        47
39.390        27
39.400        60
39.410        27
39.420        40
39.430        40
39.440        60
39.450        20
39.460        20
39.470        47
39.480        47
39.490        47
39.500        73
39.510        27
39.520        40
39.530        20
39.540        60
39.550        33
39.560        40
39.570        67
39.580        53
39.590        60
39.600        53
39.610        47
39.620        73
39.630        67
39.640        13
39.650        40
39.660        13
39.670        40
39.680        47
39.690        47
39.700        33
39.710        33
39.720        47
39.730        27
39.740        53
39.750        40
39.760        53
39.770        33
39.780        27
39.790        67
39.800        60
39.810        40
39.820        40
39.830        40
39.840        53
39.850        60
39.860        40
39.870        40
39.880        60
39.890        73
39.900        13
39.910        60
39.920        47
39.930        47
39.940        33
39.950        33
39.960        87
39.970        53
39.980        20
39.990        47
40.000        20
40.010        53
40.020        33
40.030        53
40.040        20
40.050        33
40.060        40
40.070        53
40.080        60
40.090        47
40.100        20
40.110        20
40.120        27
40.130        40
40.140        47
40.150        40
40.160        53
40.170        33
40.180        27
40.190        60
40.200        27
40.210        13
40.220        33
40.230        13
40.240        33
40.250        80
40.260        40
40.270        33
40.280        67
40.290        27
40.300        47
40.310        27
40.320        53
40.330        60
40.340        40
40.350        53
40.360        73
40.370        27
40.380        20
40.390        27
40.400        53
40.410        27
40.420        33
40.430        27
40.440        53
40.450        40
40.460        33
40.470        60
40.480        33
40.490        27
40.500        47
40.510        67
40.520        47
40.530        40
40.540        33
40.550        60
40.560        53
40.570         7
40.580        27
40.590        47
40.600        33
40.610        40
40.620        33
40.630        47
40.640        53
40.650        53
40.660        47
40.670        27
40.680        33
40.690        33
40.700        40
40.710        60
40.720        27
40.730        73
40.740        27
40.750        33
40.760        53
40.770        67
40.780        27
40.790        53
40.800        27
40.810        47
40.820        53
40.830        27
40.840        47
40.850        20
40.860        53
40.870        13
40.880         7
40.890        27
40.900        60
40.910        40
40.920        40
40.930        33
40.940        27
40.950        20
40.960        53
40.970        33
40.980         7
40.990        47
41.000        27
41.010        40
41.020        33
41.030        33
41.040        33
41.050        40
41.060        27
41.070        73
41.080        60
41.090        27
41.100        53
41.110        47
41.120        20
41.130        27
41.140        27
41.150        40
41.160        53
41.170        33
41.180        33
41.190        40
41.200        53
41.210        27
41.220        33
41.230        13
41.240        20
41.250        47
41.260        33
41.270        47
41.280        60
41.290        13
41.300        40
41.310        27
41.320        47
41.330        40
41.340        53
41.350        47
41.360        33
41.370        40
41.380        40
41.390        27
41.400        13
41.410        53
41.420        27
41.430        40
41.440        47
41.450        40
41.460        47
41.470        73
41.480        53
41.490        33
41.500        53
41.510        27
41.520        60
41.530        47
41.540        27
41.550        60
41.560        40
41.570        53
41.580        20
41.590        33
41.600        53
41.610        47
41.620        40
41.630        27
41.640        27
41.650        33
41.660        33
41.670        40
41.680        67
41.690        53
41.700        40
41.710        47
41.720        33
41.730        47
41.740        33
41.750        53
41.760        60
41.770        20
41.780        60
41.790        20
41.800        27
41.810        47
41.820        27
41.830        13
41.840        27
41.850        20
41.860        47
41.870        27
41.880        40
41.890        20
41.900        47
41.910        60
41.920        33
41.930        40
41.940        73
41.950        67
41.960        27
41.970        47
41.980        33
41.990        27
42.000        27
42.010        33
42.020        40
42.030        47
42.040        33
42.050        27
42.060        40
42.070        20
42.080        27
42.090        27
42.100        47
42.110        53
42.120        47
42.130        20
42.140        27
42.150        33
42.160        33
42.170        13
42.180        67
42.190        40
42.200        40
42.210        67
42.220        47
42.230        27
42.240        20
42.250        47
42.260        40
42.270        27
42.280        47
42.290        27
42.300        27
42.310        27
42.320        20
42.330        60
42.340        20
42.350        60
42.360        20
42.370        13
42.380        40
42.390        27
42.400        60
42.410        27
42.420        40
42.430        53
42.440        33
42.450        20
42.460        40
42.470        20
42.480        40
42.490        33
42.500        27
42.510        40
42.520        40
42.530        33
42.540        33
42.550        27
42.560         7
42.570        40
42.580        60
42.590         7
42.600        33
42.610        47
42.620        53
42.630        40
42.640        40
42.650        80
42.660        33
42.670        47
42.680        20
42.690        67
42.700        47
42.710        60
42.720        33
42.730        33
42.740        20
42.750        20
42.760        40
42.770        27
42.780        47
42.790        60
42.800        53
42.810        33
42.820        93
42.830        73
42.840        53
42.850        33
42.860        40
42.870        13
42.880        20
42.890        67
42.900        13
42.910        40
42.920        33
42.930         7
42.940        13
42.950        47
42.960        13
42.970        40
42.980        27
42.990        53
43.000        27
43.010        53
43.020        27
43.030        47
43.040        53
43.050        47
43.060        33
43.070        33
43.080        20
43.090        27
43.100        27
43.110        27
43.120        47
43.130        27
43.140        20
43.150        20
43.160        27
43.170        13
43.180        27
43.190        20
43.200        60
43.210        13
43.220        27
43.230        40
43.240        33
43.250        80
43.260        33
43.270        33
43.280        27
43.290        13
43.300        33
43.310        60
43.320        47
43.330        27
43.340        27
43.350        47
43.360        47
43.370        27
43.380        40
43.390        40
43.400        20
43.410        33
43.420        60
43.430        60
43.440        47
43.450        20
43.460        13
43.470        33
43.480        53
43.490        27
43.500        33
43.510        20
43.520        47
43.530        47
43.540        47
43.550        20
43.560        27
43.570        20
43.580        40
43.590        53
43.600        33
43.610        13
43.620        27
43.630        33
43.640        40
43.650        20
43.660        33
43.670        40
43.680        20
43.690        20
43.700        53
43.710        20
43.720        67
43.730        20
43.740        27
43.750         0
43.760        20
43.770        40
43.780        47
43.790        40
43.800        47
43.810        27
43.820        33
43.830        67
43.840        60
43.850        27
43.860        33
43.870        20
43.880        40
43.890        33
43.900        40
43.910        60
43.920         7
43.930        47
43.940        33
43.950        60
43.960        67
43.970        73
43.980         7
43.990        67
44.000        33
44.010        33
44.020        20
44.030        47
44.040        13
44.050        27
44.060        60
44.070        13
44.080        13
44.090        53
44.100        33
44.110        33
44.120        13
44.130        20
44.140        33
44.150        47
44.160        47
44.170        20
44.180        27
44.190        80
44.200        40
44.210        53
44.220        20
44.230        20
44.240        47
44.250        27
44.260        33
44.270        47
44.280        60
44.290        27
44.300        47
44.310        80
44.320        20
44.330        40
44.340        53
44.350        40
44.360        33
44.370        27
44.380        27
44.390        33
44.400        20
44.410        47
44.420        13
44.430        53
44.440        33
44.450        47
44.460        27
44.470        33
44.480        33
44.490        40
44.500        33
44.510        40
44.520        27
44.530        20
44.540        33
44.550        47
44.560        27
44.570        33
44.580        47
44.590        40
44.600        47
44.610        20
44.620        47
44.630        33
44.640        13
44.650        73
44.660        27
44.670        33
44.680        27
44.690        27
44.700        60
44.710        13
44.720        20
44.730        33
44.740        47
44.750        27
44.760        27
44.770        53
44.780        67
44.790        47
44.800        40
44.810        33
44.820        20
44.830        40
44.840        67
44.850        40
44.860        53
44.870        27
44.880        33
44.890        27
44.900        33
44.910        33
44.920        40
44.930        60
44.940        40
44.950        33
44.960        27
44.970        47
44.980        60
44.990        47
45.000        67
45.010        13
45.020        20
45.030        53
45.040        20
45.050        20
45.060        40
45.070        27
45.080        60
45.090        53
45.100        47
45.110        53
45.120        53
45.130        33
45.140        60
45.150        33
45.160        60
45.170        53
45.180        40
45.190        27
45.200        40
45.210        73
45.220        40
45.230        47
45.240        33
45.250        60
45.260        80
45.270        80
45.280       100
45.290        47
45.300        53
45.310        13
45.320        33
45.330        53
45.340        33
45.350        60
45.360        60
45.370        47
45.380        93
45.390        73
45.400        20
45.410        33
45.420        47
45.430        53
45.440        53
45.450        47
45.460        80
45.470        67
45.480        53
45.490        53
45.500        53
45.510        40
45.520        67
45.530        60
45.540        73
45.550        60
45.560        80
45.570        87
45.580       120
45.590        80
45.600        80
45.610       133
45.620       133
45.630       107
45.640       120
45.650       140
45.660        53
45.670        93
45.680        93
45.690       160
45.700        93
45.710       133
45.720       167
45.730       140
45.740       140
45.750       160
45.760       133
45.770       147
45.780       173
45.790       207
45.800       233
45.810       147
45.820       227
45.830       193
45.840       207
45.850       240
45.860       193
45.870       280
45.880       260
45.890       260
45.900       273
45.910       240
45.920       280
45.930       333
45.940       273
45.950       287
45.960       347
45.970       240
45.980       380
45.990       353
46.000       360
46.010       353
46.020       293
46.030       353
46.040       327
46.050       313
46.060       367
46.070       367
46.080       240
46.090       240
46.100       400
46.110       360
46.120       313
46.130       300
46.140       333
46.150       240
46.160       153
46.170       213
46.180       273
46.190       207
46.200       207
46.210       280
46.220       187
46.230       180
46.240       267
46.250       127
46.260       160
46.270       240
46.280       153
46.290       207
46.300       180
46.310       153
46.320       180
46.330       173
46.340       107
46.350       140
46.360       113
46.370       107
46.380       127
46.390        87
46.400       133
46.410       147
46.420       167
46.430       100
46.440       113
46.450       107
46.460       153
46.470       133
46.480       107
46.490        73
46.500        60
46.510       120
46.520       153
46.530        93
46.540        80
46.550        93
46.560       100
46.570        67
46.580        60
46.590       107
46.600       107
46.610        40
46.620        73
46.630        53
46.640        73
46.650        47
46.660        73
46.670        80
46.680        67
46.690        53
46.700        60
46.710        60
46.720        53
46.730        93
46.740        93
46.750        73
46.760        60
46.770        87
46.780        40
46.790        67
46.800        67
46.810       120
46.820        80
46.830        87
46.840        80
46.850        87
46.860        47
46.870        93
46.880        87
46.890        67
46.900        67
46.910        93
46.920        53
46.930        60
46.940        47
46.950       100
46.960        53
46.970        60
46.980        60
46.990        60
47.000        93
47.010        73
47.020        80
47.030       140
47.040        73
47.050       113
47.060       107
47.070       127
47.080       160
47.090       147
47.100       140
47.110        93
47.120       133
47.130       127
47.140       167
47.150       213
47.160       280
47.170       420
47.180       466
47.190       593
47.200       746
47.210       846
47.220       926
47.230      1020
47.240      1013
47.250       886
47.260       753
47.270       500
47.280       387
47.290       187
47.300       220
47.310       160
47.320       207
47.330       113
47.340        87
47.350       147
47.360       120
47.370        60
47.380        73
47.390        93
47.400        53
47.410        73
47.420       113
47.430        47
47.440        53
47.450        80
47.460        67
47.470        33
47.480        60
47.490       107
47.500        67
47.510        27
47.520        40
47.530        27
47.540        60
47.550        80
47.560        33
47.570        60
47.580        60
47.590        73
47.600        27
47.610        27
47.620        67
47.630        53
47.640        60
47.650        67
47.660        53
47.670        47
47.680        67
47.690        53
47.700        67
47.710        73
47.720        93
47.730        47
47.740        73
47.750        40
47.760        40
47.770        67
47.780        47
47.790        60
47.800        40
47.810        67
47.820        47
47.830        53
47.840        33
47.850        67
47.860        53
47.870        53
47.880        60
47.890        40
47.900        53
47.910        67
47.920        60
47.930        53
47.940        33
47.950        27
47.960        53
47.970        20
47.980        67
47.990         0
48.000        53
48.010        40
48.020        33
48.030        40
48.040        47
48.050        53
48.060        20
48.070        40
48.080        47
48.090        40
48.100        27
48.110        33
48.120        73
48.130        87
48.140        47
48.150        20
48.160        27
48.170        67
48.180        60
48.190        40
48.200        60
48.210        60
48.220        60
48.230        20
48.240        13
48.250        53
48.260         7
48.270        67
48.280        60
48.290        47
48.300        13
48.310        53
48.320        13
48.330        20
48.340        27
48.350        47
48.360        13
48.370        40
48.380         7
48.390        67
48.400        20
48.410        27
48.420        13
48.430        53
48.440        67
48.450        33
48.460        27
48.470        27
48.480        67
48.490        67
48.500        47
48.510        33
48.520        47
48.530        60
48.540        20
48.550        47
48.560        67
48.570        33
48.580        47
48.590        27
48.600        27
48.610        60
48.620        27
48.630        40
48.640        40
48.650        60
48.660        60
48.670        20
48.680        33
48.690        27
48.700         7
48.710        33
48.720        40
48.730        27
48.740        67
48.750        33
48.760        20
48.770        27
48.780        67
48.790        13
48.800        13
48.810        40
48.820        53
48.830        20
48.840        33
48.850        40
48.860        13
48.870        60
48.880        60
48.890        53
48.900        27
48.910        33
48.920        27
48.930         7
48.940        13
48.950        27
48.960        20
48.970        20
48.980        27
48.990        27
49.000         7
49.010        27
49.020        47
49.030        27
49.040        33
49.050        20
49.060        33
49.070        13
49.080        13
49.090        20
49.100        40
49.110        33
49.120        20
49.130         7
49.140        53
49.150        80
49.160        47
49.170        27
49.180        47
49.190        27
49.200        80
49.210        47
49.220        40
49.230        73
49.240        53
49.250        47
49.260        60
49.270        40
49.280        53
49.290        33
49.300        40
49.310        27
49.320        20
49.330        40
49.340        73
49.350        20
49.360        47
49.370        53
49.380        53
49.390        33
49.400        53
49.410        13
49.420        47
49.430        73
49.440        60
49.450         7
49.460        33
49.470        20
49.480        20
49.490        47
49.500        47
49.510        33
49.520        27
49.530        47
49.540         7
49.550        33
49.560        20
49.570        40
49.580        47
49.590        27
49.600        40
49.610        27
49.620        27
49.630        13
49.640        47
49.650        33
49.660         7
49.670        27
49.680        33
49.690        40
49.700        27
49.710        60
49.720        27
49.730        27
49.740        33
49.750        53
49.760        53
49.770        27
49.780        20
49.790        40
49.800        40
49.810        40
49.820        13
49.830        40
49.840        40
49.850        47
49.860        20
49.870        27
49.880        47
49.890        47
49.900        33
49.910        13
49.920        20
49.930        27
49.940        13
49.950        60
49.960        20
49.970        13
49.980        60
49.990        27
50.000        47
50.010        33
50.020        20
50.030        40
50.040        20
50.050        60
50.060        33
50.070        27
50.080        33
50.090        27
50.100        40
50.110        27
50.120        20
50.130        67
50.140        33
50.150        73
50.160        47
50.170        13
50.180        27
50.190        33
50.200        40
50.210        73
50.220        33
50.230        33
50.240        33
50.250        53
50.260        47
50.270        40
50.280        40
50.290        33
50.300        27
50.310        27
50.320        27
50.330        33
50.340        40
50.350        20
50.360        47
50.370        53
50.380        27
50.390        60
50.400        20
50.410        47
50.420        27
50.430        27
50.440        40
50.450        33
50.460        33
50.470        33
50.480        27
50.490        33
50.500        33
50.510        53
50.520        40
50.530        47
50.540        73
50.550        67
50.560        53
50.570        33
50.580        40
50.590        47
50.600        40
50.610        93
50.620        53
50.630        60
50.640        87
50.650        73
50.660        80
50.670        80
50.680       133
50.690       180
50.700       160
50.710       200
50.720       227
50.730       267
50.740       307
50.750       213
50.760       300
50.770       220
50.780       247
50.790       273
50.800       193
50.810       267
50.820       253
50.830       260
50.840       280
50.850       333
50.860       240
50.870       353
50.880       240
50.890       233
50.900       333
50.910       260
50.920       240
50.930       233
50.940       213
50.950       233
50.960       260
50.970       253
50.980       240
50.990       253
51.000       253
51.010       280
51.020       240
51.030       300
51.040       247
51.050       347
51.060       327
51.070       280
51.080       293
51.090       273
51.100       260
51.110       260
51.120       333
51.130       327
51.140       233
51.150       320
51.160       300
51.170       307
51.180       287
51.190       273
51.200       320
51.210       253
51.220       253
51.230       200
51.240       267
51.250       280
51.260       347
51.270       293
51.280       233
51.290       300
51.300       313
51.310       300
51.320       287
51.330       373
51.340       367
51.350       367
51.360       293
51.370       280
51.380       327
51.390       380
51.400       280
51.410       320
51.420       280
51.430       327
51.440       307
51.450       227
51.460       287
51.470       347
51.480       280
51.490       260
51.500       287
51.510       227
51.520       340
51.530       320
51.540       340
51.550       253
51.560       293
51.570       313
51.580       287
51.590       373
51.600       280
51.610       373
51.620       260
51.630       293
51.640       300
51.650       253
51.660       293
51.670       400
51.680       273
51.690       293
51.700       387
51.710       333
51.720       387
51.730       287
51.740       313
51.750       307
51.760       313
51.770       413
51.780       360
51.790       360
51.800       307
51.810       327
51.820       293
51.830       400
51.840       300
51.850       400
51.860       333
51.870       327
51.880       273
51.890       393
51.900       453
51.910       380
51.920       300
51.930       267
51.940       453
51.950       413
51.960       307
51.970       353
51.980       440
51.990       393
52.000       466
52.010       453
52.020       420
52.030       440
52.040       446
52.050       453
52.060       446
52.070       553
52.080       553
52.090       460
52.100       526
52.110       420
52.120       433
52.130       433
52.140       513
52.150       573
52.160       493
52.170       740
52.180       660
52.190       673
52.200       566
52.210       646
52.220       753
52.230       720
52.240       840
52.250       706
52.260       973
52.270      1113
52.280       993
52.290      1126
52.300      1106
52.310      1353
52.320      1559
52.330      1766
52.340      2013
52.350      2472
52.360      3039
52.370      3612
52.380      4072
52.390      4958
52.400      4898
52.410      5345
52.420      5918
52.430      5884
52.440      6504
52.450      6564
52.460      7470
52.470      7204
52.480      8137
52.490      8363
52.500      8750
52.510      9843
52.520     11089
52.530     12948
52.540     16007
52.550     20812
52.560     31334
52.570     48800
52.580     72698
52.590     99487
52.600    117506
52.610    129815
52.620    137398
52.630    134959
52.640    126636
52.650    106524
52.660     78042
52.670     52732
52.680     35539
52.690     27189
52.700     28355
52.710     33220
52.720     44582
52.730     56571
52.740     66267
52.750     72524
52.760     75357
52.770     75710
52.780     68159
52.790     56764
52.800     40224
52.810     26776
52.820     16813
52.830     11149
52.840      8290
52.850      6257
52.860      5098
52.870      3978
52.880      3719
52.890      3065
52.900      2939
52.910      2419
52.920      2026
52.930      1973
52.940      1626
52.950      1559
52.960      1439
52.970      1579
52.980      1206
52.990      1279
53.000       993
53.010       900
53.020      1106
53.030      1026
53.040      1026
53.050       766
53.060       860
53.070       820
53.080       766
53.090       826
53.100       833
53.110       806
53.120       646
53.130       746
53.140       626
53.150       453
53.160       506
53.170       720
53.180       573
53.190       546
53.200       586
53.210       553
53.220       486
53.230       620
53.240       480
53.250       580
53.260       473
53.270       466
53.280       460
53.290       540
53.300       466
53.310       486
53.320       473
53.330       360
53.340       373
53.350       473
53.360       347
53.370       460
53.380       426
53.390       327
53.400       553
53.410       387
53.420       500
53.430       426
53.440       407
53.450       400
53.460       367
53.470       466
53.480       460
53.490       333
53.500       333
53.510       320
53.520       407
53.530       260
53.540       420
53.550       333
53.560       353
53.570       320
53.580       373
53.590       393
53.600       367
53.610       360
53.620       293
53.630       393
53.640       307
53.650       373
53.660       307
53.670       267
53.680       300
53.690       247
53.700       213
53.710       253
53.720       260
53.730       373
53.740       267
53.750       240
53.760       280
53.770       240
53.780       320
53.790       253
53.800       287
53.810       293
53.820       313
53.830       260
53.840       293
53.850       200
53.860       267
53.870       327
53.880       233
53.890       307
53.900       260
53.910       240
53.920       227
53.930       233
53.940       273
53.950       220
53.960       307
53.970       327
53.980       293
53.990       327
54.000       273
54.010       293
54.020       247
54.030       227
54.040       227
54.050       240
54.060       227
54.070       233
54.080       273
54.090       253
54.100       327
54.110       260
54.120       213
54.130       240
54.140       227
54.150       293
54.160       287
54.170       260
54.180       240
54.190       307
54.200       240
54.210       287
54.220       227
54.230       167
54.240       253
54.250       267
54.260       240
54.270       260
54.280       247
54.290       240
54.300       227
54.310       233
54.320       233
54.330       180
54.340       287
54.350       267
54.360       233
54.370       240
54.380       213
54.390       213
54.400       193
54.410       193
54.420       240
54.430       227
54.440       193
54.450       267
54.460       233
54.470       253
54.480       140
54.490       200
54.500       213
54.510       187
54.520       233
54.530       220
54.540       213
54.550       233
54.560       247
54.570       147
54.580       267
54.590       173
54.600       213
54.610       193
54.620       253
54.630       160
54.640       227
54.650       213
54.660       200
54.670       140
54.680       133
54.690       220
54.700       260
54.710       193
54.720       240
54.730       153
54.740       233
54.750       233
54.760       200
54.770       187
54.780       167
54.790       220
54.800       153
54.810       233
54.820       220
54.830       127
54.840       207
54.850       253
54.860       240
54.870       213
54.880       173
54.890       240
54.900       233
54.910       273
54.920       193
54.930       140
54.940       213
54.950       167
54.960       193
54.970       213
54.980       260
54.990       233
55.000       207
55.010       240
55.020       187
55.030       133
55.040       180
55.050       213
55.060       187
55.070       173
55.080       167
55.090       180
55.100       213
55.110       233
55.120       173
55.130       200
55.140       173
55.150       173
55.160       200
55.170       147
55.180       127
55.190       207
55.200       220
55.210       180
55.220       247
55.230       193
55.240       180
55.250       193
55.260       160
55.270       160
55.280       220
55.290       127
55.300       207
55.310       187
55.320       167
55.330       180
55.340       160
55.350       160
55.360       153
55.370       173
55.380       227
55.390       173
55.400       147
55.410       187
55.420       207
55.430       147
55.440       153
55.450       167
55.460       227
55.470       220
55.480       220
55.490       160
55.500       133
55.510       233
55.520       227
55.530       120
55.540       153
55.550       187
55.560       160
55.570       167
55.580       153
55.590       240
55.600       153
55.610        93
55.620       173
55.630       207
55.640       167
55.650       160
55.660       180
55.670       180
55.680       160
55.690       207
55.700       167
55.710       147
55.720       147
55.730       207
55.740       173
55.750       180
55.760       160
55.770       140
55.780       147
55.790       153
55.800       193
55.810       167
55.820       207
55.830       187
55.840       213
55.850       107
55.860       173
55.870       233
55.880       160
55.890       153
55.900       127
55.910       140
55.920       180
55.930       153
55.940       193
55.950       173
55.960       213
55.970       153
55.980       180
55.990       167
56.000       160
56.010       247
56.020       180
56.030       153
56.040       180
56.050       133
56.060       140
56.070       207
56.080       207
56.090       220
56.100       220
56.110       187
56.120       153
56.130       153
56.140       147
56.150       133
56.160       147
56.170       180
56.180       160
56.190       167
56.200       147
56.210       147
56.220       247
56.230       213
56.240       233
56.250       127
56.260       153
56.270       140
56.280       160
56.290       113
56.300       207
56.310       147
56.320       133
56.330       133
56.340       140
56.350       173
56.360       180
56.370       213
56.380       133
56.390       260
56.400       147
56.410       160
56.420       160
56.430       120
56.440       173
56.450       200
56.460        93
56.470       193
56.480       187
56.490       173
56.500       147
56.510       167
56.520       133
56.530       213
56.540       173
56.550       127
56.560       227
56.570       133
56.580       153
56.590       200
56.600       173
56.610        93
56.620       173
56.630       113
56.640       147
56.650       200
56.660       167
56.670       127
56.680        87
56.690       173
56.700       180
56.710       187
56.720       133
56.730       113
56.740       140
56.750       120
56.760       120
56.770       147
56.780       160
56.790       267
56.800       167
56.810       140
56.820       113
56.830       140
56.840       133
56.850       133
56.860       153
56.870       133
56.880       147
56.890       160
56.900       140
56.910       133
56.920       193
56.930       147
56.940       140
56.950       200
56.960       120
56.970       167
56.980        80
56.990       147
57.000       180
57.010       133
57.020       127
57.030       160
57.040       173
57.050       153
57.060       147
57.070       173
57.080       180
57.090       153
57.100       133
57.110       213
57.120       133
57.130       147
57.140       160
57.150       120
57.160       153
57.170       120
57.180       120
57.190       113
57.200       140
57.210       173
57.220       207
57.230        87
57.240       167
57.250       127
57.260       160
57.270       173
57.280        60
57.290       153
57.300       127
57.310       187
57.320       200
57.330       107
57.340       127
57.350       153
57.360       140
57.370       127
57.380       173
57.390       140
57.400       180
57.410       133
57.420       133
57.430       147
57.440       133
57.450       147
57.460       127
57.470       127
57.480       147
57.490       153
57.500       153
57.510       160
57.520       120
57.530        80
57.540       173
57.550        87
57.560       160
57.570       113
57.580        73
57.590       140
57.600       153
57.610       120
57.620       153
57.630       100
57.640       147
57.650       147
57.660       100
57.670       147
57.680       107
57.690       153
57.700       107
57.710       147
57.720       160
57.730       207
57.740       133
57.750       133
57.760       127
57.770       160
57.780        47
57.790       113
57.800       180
57.810       113
57.820       100
57.830       133
57.840       147
57.850        73
57.860       113
57.870       107
57.880       133
57.890       140
57.900       147
57.910       160
57.920       113
57.930       180
57.940       100
57.950       100
57.960       113
57.970       127
57.980       107
57.990       127
58.000       133
58.010       133
58.020       147
58.030       120
58.040       147
58.050       147
58.060       113
58.070       133
58.080        87
58.090       127
58.100       167
58.110       133
58.120       133
58.130       153
58.140        73
58.150       133
58.160       140
58.170       140
58.180       127
58.190        67
58.200       127
58.210        93
58.220       167
58.230       127
58.240       120
58.250       133
58.260       160
58.270       100
58.280        93
58.290       127
58.300       133
58.310       113
58.320       153
58.330       140
58.340       160
58.350        93
58.360        93
58.370        80
58.380       100
58.390       140
58.400       113
58.410       140
58.420       180
58.430       167
58.440       127
58.450       100
58.460        93
58.470       100
58.480       173
58.490       147
58.500       127
58.510       147
58.520       113
58.530       127
58.540       127
58.550       107
58.560        93
58.570       187
58.580       113
58.590       153
58.600       100
58.610       107
58.620       160
58.630       100
58.640       120
58.650       153
58.660       100
58.670       127
58.680       180
58.690       153
58.700       120
58.710       120
58.720       107
58.730       113
58.740        53
58.750        80
58.760       160
58.770       127
58.780       147
58.790       120
58.800       193
58.810        47
58.820       107
58.830        87
58.840       120
58.850        80
58.860       100
58.870       113
58.880        93
58.890       113
58.900       107
58.910       113
58.920       147
58.930        53
58.940       127
58.950       120
58.960       167
58.970       120
58.980       100
58.990       107
59.000       107
59.010        87
59.020       140
59.030       127
59.040       113
59.050        93
59.060       133
59.070       113
59.080       100
59.090       107
59.100        93
59.110       127
59.120       140
59.130        53
59.140        93
59.150       120
59.160       107
59.170       133
59.180       120
59.190       133
59.200       187
59.210        73
59.220        93
59.230       127
59.240       120
59.250       100
59.260       100
59.270        80
59.280       127
59.290       153
59.300       113
59.310        93
59.320        60
59.330       100
59.340        87
59.350       127
59.360       113
59.370        93
59.380        80
59.390       127
59.400        80
59.410       120
59.420        80
59.430       127
59.440       127
59.450       107
59.460       100
59.470       127
59.480        93
59.490        53
59.500        87
59.510        93
59.520       120
59.530       120
59.540        93
59.550        87
59.560       153
59.570        87
59.580        93
59.590       120
59.600       140
59.610       140
59.620       167
59.630        87
59.640        60
59.650       100
59.660       127
59.670        87
59.680        53
59.690        87
59.700       133
59.710       113
59.720       113
59.730        67
59.740        80
59.750        73
59.760        67
59.770        80
59.780       100
59.790       167
59.800       120
59.810        93
59.820       113
59.830        80
59.840        47
59.850       140
59.860       107
59.870       160
59.880       127
59.890       133
59.900       107
59.910        53
59.920        40
59.930        87
59.940       133
59.950       120
59.960       100
59.970        87
59.980       133
59.990        73
60.000        80
