20.000        73
20.010        73
20.020       100
20.030        60
20.040        93
20.050       133
20.060       120
20.070       120
20.080        67
20.090        73
20.100        93
20.110        80
20.120        80
20.130        60
20.140        93
20.150       127
20.160        53
20.170        87
20.180        80
20.190       107
20.200        73
20.210        73
20.220        67
20.230        53
20.240        93
20.250        67
20.260        93
20.270        73
20.280       173
20.290       113
20.300       100
20.310       100
20.320       133
20.330        80
20.340        80
20.350       127
20.360       113
20.370        73
20.380       100
20.390        87
20.400       107
20.410        80
20.420        60
20.430       100
20.440        67
20.450       113
20.460       107
20.470        80
20.480       127
20.490       113
20.500       147
20.510        80
20.520       100
20.530       160
20.540       120
20.550        87
20.560       107
20.570       133
20.580       107
20.590        60
20.600        60
20.610        73
20.620        33
20.630       107
20.640        80
20.650       113
20.660        87
20.670       120
20.680        87
20.690        47
20.700        87
20.710        67
20.720        80
20.730       113
20.740        60
20.750        80
20.760        67
20.770        80
20.780        93
20.790       120
20.800       100
20.810       120
20.820        73
20.830       107
20.840        67
20.850        47
20.860       107
20.870        80
20.880       127
20.890        53
20.900       107
20.910       133
20.920        87
20.930       120
20.940        67
20.950       133
20.960        53
20.970       100
20.980        67
20.990        93
21.000        73
21.010       100
21.020       100
21.030       140
21.040       113
21.050        60
21.060        87
21.070        93
21.080        47
21.090       120
21.100        60
21.110       100
21.120        87
21.130        80
21.140       100
21.150        60
21.160       140
21.170        87
21.180        67
21.190       113
21.200       100
21.210       107
21.220        73
21.230        87
21.240        60
21.250        93
21.260        93
21.270        93
21.280       107
21.290        73
21.300       173
21.310       107
21.320       107
21.330        93
21.340       107
21.350        67
21.360        80
21.370       113
21.380       120
21.390       113
21.400        67
21.410        80
21.420       100
21.430        67
21.440       100
21.450        87
21.460        93
21.470       153
21.480        67
21.490        93
21.500        80
21.510       100
21.520        87
21.530       113
21.540       107
21.550       100
21.560       100
21.570       107
21.580        93
21.590        80
21.600       140
21.610       113
21.620       127
21.630       113
21.640       120
21.650       133
21.660       113
21.670        67
21.680        73
21.690        60
21.700       100
21.710       127
21.720        80
21.730        60
21.740       100
21.750        80
21.760        73
21.770       107
21.780       127
21.790       120
21.800       160
21.810       133
21.820       120
21.830        67
21.840        87
21.850       127
21.860        87
21.870       100
21.880       100
21.890       140
21.900       113
21.910       120
21.920       100
21.930        87
21.940       173
21.950       160
21.960        40
21.970       120
21.980       160
21.990        93
22.000        80
22.010        80
22.020       100
22.030       107
22.040       133
22.050       120
22.060       140
22.070       180
22.080       133
22.090        93
22.100       133
22.110       153
22.120       127
22.130       120
22.140       140
22.150       107
22.160       133
22.170       113
22.180        80
22.190       167
22.200       113
22.210       140
22.220       100
22.230       147
22.240       140
22.250       127
22.260       167
22.270       147
22.280        87
22.290       160
22.300       133
22.310       193
22.320       133
22.330       167
22.340       133
22.350       153
22.360       127
22.370       180
22.380       160
22.390       220
22.400       160
22.410       193
22.420       167
22.430       167
22.440       207
22.450       100
22.460       200
22.470       213
22.480       227
22.490       253
22.500       213
22.510       313
22.520       293
22.530       293
22.540       287
22.550       253
22.560       353
22.570       280
22.580       307
22.590       533
22.600       440
22.610       513
22.620       433
22.630       453
22.640       540
22.650       433
22.660       560
22.670       453
22.680       446
22.690       493
22.700       433
22.710       493
22.720       506
22.730       486
22.740       580
22.750       500
22.760       413
22.770       373
22.780       247
22.790       380
22.800       320
22.810       446
22.820       353
22.830       340
22.840       273
22.850       327
22.860       247
22.870       260
22.880       233
22.890       347
22.900       193
22.910       287
22.920       240
22.930       207
22.940       260
22.950       247
22.960       207
22.970       187
22.980       280
22.990       213
23.000       273
23.010       200
23.020       233
23.030       200
23.040       227
23.050       247
23.060       227
23.070       333
23.080       420
23.090       706
23.100       753
23.110       906
23.120       893
23.130      1086
23.140       780
23.150       646
23.160       480
23.170       307
23.180       327
23.190       247
23.200       233
23.210       253
23.220       200
23.230       180
23.240       280
23.250       247
23.260       160
23.270       140
23.280       153
23.290       193
23.300       187
23.310       140
23.320       133
23.330       187
23.340       167
23.350       187
23.360       153
23.370       127
23.380       167
23.390       160
23.400       180
23.410       147
23.420       140
23.430       153
23.440       147
23.450       167
23.460       200
23.470       233
23.480       167
23.490       147
23.500        93
23.510       173
23.520       133
23.530       133
23.540       167
23.550       140
23.560       147
23.570       167
23.580       127
23.590       207
23.600       187
23.610       140
23.620       153
23.630        67
23.640       147
23.650       140
23.660       200
23.670       153
23.680       113
23.690       160
23.700       120
23.710       173
23.720       133
23.730       213
23.740        87
23.750       147
23.760       153
23.770       160
23.780       180
23.790       147
23.800       133
23.810       153
23.820       127
23.830       127
23.840       153
23.850       147
23.860       180
23.870       133
23.880       160
23.890       153
23.900       127
23.910       193
23.920       133
23.930       160
23.940       167
23.950       113
23.960       180
23.970       167
23.980       160
23.990       100
24.000       147
24.010       147
24.020       173
24.030       147
24.040       140
24.050       113
24.060       153
24.070        93
24.080       120
24.090       140
24.100       153
24.110       160
24.120       187
24.130       127
24.140       153
24.150       187
24.160       180
24.170       240
24.180       153
24.190       180
24.200       133
24.210       100
24.220       120
24.230       113
24.240       167
24.250       160
24.260        80
24.270       173
24.280       133
24.290       147
24.300       187
24.310       113
24.320       167
24.330       140
24.340       133
24.350       160
24.360       133
24.370       140
24.380       113
24.390       160
24.400       187
24.410       107
24.420       107
24.430       147
24.440        73
24.450       140
24.460       100
24.470       153
24.480       180
24.490       173
24.500       113
24.510       120
24.520       147
24.530       120
24.540        87
24.550       120
24.560       140
24.570       140
24.580       187
24.590       133
24.600       120
24.610       153
24.620       187
24.630        80
24.640       160
24.650       160
24.660       180
24.670       233
24.680       180
24.690       153
24.700       133
24.710       200
24.720       220
24.730       353
24.740       253
24.750       320
24.760       420
24.770       426
24.780       380
24.790       373
24.800       506
24.810       420
24.820       413
24.830       327
24.840       446
24.850       426
24.860       367
24.870       393
24.880       453
24.890       500
24.900       387
24.910       486
24.920       413
24.930       460
24.940       460
24.950       453
24.960       353
24.970       440
24.980       367
24.990       573
25.000       293
25.010       407
25.020       553
25.030       480
25.040       440
25.050       380
25.060       393
25.070       367
25.080       513
25.090       446
25.100       460
25.110       506
25.120       413
25.130       327
25.140       333
25.150       460
25.160       393
25.170       480
25.180       460
25.190       546
25.200       546
25.210       433
25.220       500
25.230       526
25.240       460
25.250       493
25.260       393
25.270       513
25.280       420
25.290       420
25.300       553
25.310       533
25.320       500
25.330       540
25.340       620
25.350       560
25.360       640
25.370       580
25.380       566
25.390       586
25.400       900
25.410       906
25.420       966
25.430       953
25.440      1193
25.450      1113
25.460      1633
25.470      1873
25.480      2146
25.490      2759
25.500      3105
25.510      3392
25.520      3832
25.530      4591
25.540      5451
25.550      6724
25.560      9756
25.570     18912
25.580     37498
25.590     61269
25.600     78409
25.610     87332
25.620     88525
25.630     91037
25.640     92416
25.650     87525
25.660     78535
25.670     65227
25.680     56284
25.690     52139
25.700     50333
25.710     45162
25.720     35979
25.730     23684
25.740     14494
25.750      9683
25.760      7710
25.770      6711
25.780      5824
25.790      5564
25.800      4452
25.810      4172
25.820      3059
25.830      2552
25.840      2286
25.850      2106
25.860      1739
25.870      1233
25.880      1100
25.890       893
25.900       733
25.910       773
25.920       673
25.930       626
25.940       753
25.950       700
25.960       686
25.970       526
25.980       640
25.990       580
26.000       606
26.010       740
26.020       686
26.030       506
26.040       460
26.050       413
26.060       540
26.070       513
26.080       413
26.090       606
26.100       540
26.110       426
26.120       546
26.130       433
26.140       480
26.150       493
26.160       466
26.170       433
26.180       420
26.190       400
26.200       446
26.210       500
26.220       453
26.230       420
26.240       493
26.250       420
26.260       420
26.270       446
26.280       426
26.290       307
26.300       347
26.310       480
26.320       460
26.330       380
26.340       426
26.350       413
26.360       426
26.370       353
26.380       307
26.390       426
26.400       393
26.410       333
26.420       333
26.430       367
26.440       426
26.450       407
26.460       267
26.470       360
26.480       407
26.490       333
26.500       420
26.510       340
26.520       387
26.530       426
26.540       333
26.550       280
26.560       387
26.570       433
26.580       380
26.590       393
26.600       373
26.610       273
26.620       367
26.630       327
26.640       380
26.650       353
26.660       360
26.670       333
26.680       280
26.690       407
26.700       393
26.710       333
26.720       407
26.730       320
26.740       327
26.750       333
26.760       367
26.770       367
26.780       327
26.790       280
26.800       293
26.810       353
26.820       273
26.830       293
26.840       320
26.850       307
26.860       333
26.870       273
26.880       347
26.890       327
26.900       293
26.910       313
26.920       413
26.930       340
26.940       287
26.950       353
26.960       300
26.970       287
26.980       267
26.990       307
27.000       320
27.010       400
27.020       453
27.030       327
27.040       347
27.050       347
27.060       273
27.070       293
27.080       347
27.090       253
27.100       267
27.110       273
27.120       333
27.130       300
27.140       293
27.150       267
27.160       353
27.170       327
27.180       287
27.190       200
27.200       333
27.210       327
27.220       273
27.230       267
27.240       247
27.250       233
27.260       267
27.270       260
27.280       300
27.290       300
27.300       320
27.310       293
27.320       260
27.330       260
27.340       313
27.350       300
27.360       233
27.370       320
27.380       273
27.390       380
27.400       280
27.410       300
27.420       387
27.430       287
27.440       280
27.450       273
27.460       333
27.470       353
27.480       380
27.490       293
27.500       280
27.510       207
27.520       300
27.530       287
27.540       287
27.550       233
27.560       267
27.570       307
27.580       327
27.590       340
27.600       240
27.610       247
27.620       260
27.630       347
27.640       267
27.650       233
27.660       273
27.670       273
27.680       260
27.690       240
27.700       307
27.710       307
27.720       360
27.730       227
27.740       273
27.750       180
27.760       280
27.770       267
27.780       340
27.790       300
27.800       327
27.810       233
27.820       240
27.830       320
27.840       273
27.850       300
27.860       273
27.870       220
27.880       233
27.890       287
27.900       280
27.910       193
27.920       253
27.930       240
27.940       313
27.950       240
27.960       313
27.970       187
27.980       333
27.990       220
28.000       240
28.010       313
28.020       240
28.030       253
28.040       233
28.050       280
28.060       280
28.070       207
28.080       213
28.090       313
28.100       313
28.110       233
28.120       287
28.130       193
28.140       260
28.150       247
28.160       253
28.170       227
28.180       260
28.190       347
28.200       227
28.210       260
28.220       220
28.230       247
28.240       253
28.250       207
28.260       247
28.270       267
28.280       240
28.290       233
28.300       287
28.310       167
28.320       200
28.330       247
28.340       187
28.350       193
28.360       267
28.370       313
28.380       187
28.390       320
28.400       247
28.410       327
28.420       247
28.430       260
28.440       260
28.450       260
28.460       260
28.470       213
28.480       273
28.490       293
28.500       353
28.510       253
28.520       187
28.530       240
28.540       313
28.550       227
28.560       187
28.570       193
28.580       240
28.590       233
28.600       273
28.610       260
28.620       247
28.630       240
28.640       300
28.650       227
28.660       247
28.670       147
28.680       233
28.690       167
28.700       300
28.710       247
28.720       313
28.730       207
28.740       247
28.750       327
28.760       167
28.770       180
28.780       160
28.790       247
28.800       300
28.810       273
28.820       193
28.830       153
28.840       227
28.850       287
28.860       227
28.870       227
28.880       280
28.890       253
28.900       233
28.910       300
28.920       220
28.930       247
28.940       193
28.950       260
28.960       307
28.970       200
28.980       240
28.990       300
29.000       220
29.010       180
29.020       193
29.030       267
29.040       293
29.050       247
29.060       307
29.070       253
29.080       220
29.090       247
29.100       213
29.110       287
29.120       220
29.130       220
29.140       207
29.150       220
29.160       167
29.170       207
29.180       267
29.190       200
29.200       213
29.210       187
29.220       267
29.230       187
29.240       207
29.250       307
29.260       267
29.270       267
29.280       287
29.290       267
29.300       220
29.310       253
29.320       173
29.330       220
29.340       193
29.350       200
29.360       213
29.370       160
29.380       200
29.390       260
29.400       260
29.410       207
29.420       267
29.430       207
29.440       207
29.450       193
29.460       187
29.470       267
29.480       207
29.490       233
29.500       213
29.510       220
29.520       213
29.530       173
29.540       187
29.550       173
29.560       253
29.570       260
29.580       153
29.590       280
29.600       213
29.610       160
29.620       240
29.630       200
29.640       120
29.650       253
29.660       273
29.670       213
29.680       247
29.690       247
29.700       227
29.710       233
29.720       207
29.730       147
29.740       227
29.750       193
29.760       233
29.770       247
29.780       193
29.790       253
29.800       233
29.810       260
29.820       213
29.830       220
29.840       207
29.850       187
29.860       267
29.870       240
29.880       200
29.890       180
29.900       233
29.910       213
29.920       173
29.930       260
29.940       280
29.950       247
29.960       260
29.970       227
29.980       193
29.990       273
30.000       247
30.010       207
30.020       147
30.030       247
30.040       260
30.050       193
30.060       213
30.070       220
30.080       173
30.090       227
30.100       160
30.110       247
30.120       167
30.130       213
30.140       227
30.150       173
30.160       260
30.170       127
30.180       207
30.190       187
30.200       187
30.210       173
30.220       193
30.230       207
30.240       200
30.250       140
30.260       207
30.270       220
30.280       187
30.290       167
30.300       153
30.310       200
30.320       220
30.330       200
30.340       193
30.350       233
30.360       213
30.370       187
30.380       107
30.390       187
30.400       187
30.410       240
30.420       227
30.430       200
30.440       193
30.450       213
30.460       133
30.470       200
30.480       260
30.490       273
30.500       180
30.510       240
30.520       180
30.530       193
30.540       200
30.550       193
30.560       193
30.570       160
30.580       213
30.590       220
30.600       193
30.610       200
30.620       187
30.630       180
30.640       173
30.650       227
30.660       153
30.670       227
30.680       180
30.690       133
30.700       160
30.710       180
30.720       207
30.730       227
30.740       180
30.750       180
30.760       153
30.770       187
30.780       140
30.790       147
30.800       180
30.810       187
30.820       167
30.830       180
30.840       173
30.850       207
30.860       140
30.870       200
30.880       193
30.890       213
30.900       193
30.910       207
30.920       207
30.930       133
30.940       173
30.950       207
30.960       207
30.970       220
30.980       167
30.990       153
31.000       147
31.010       213
31.020       160
31.030       113
31.040       160
31.050       200
31.060       153
31.070       180
31.080       120
31.090       187
31.100       180
31.110       173
31.120       133
31.130       227
31.140       193
31.150       173
31.160       107
31.170       147
31.180       213
31.190       193
31.200       120
31.210       240
31.220       153
31.230       160
31.240       160
31.250       173
31.260       167
31.270       193
31.280       193
31.290       153
31.300       133
31.310       133
31.320       127
31.330       173
31.340       233
31.350       207
31.360       120
31.370       153
31.380       173
31.390       133
31.400       160
31.410       113
31.420       133
31.430       153
31.440       153
31.450       140
31.460       200
31.470       160
31.480       127
31.490       167
31.500       153
31.510       127
31.520       133
31.530       120
31.540       247
31.550       180
31.560       160
31.570       140
31.580       133
31.590       140
31.600       193
31.610       213
31.620       187
31.630       173
31.640       153
31.650       193
31.660       127
31.670       200
31.680       127
31.690       187
31.700       187
31.710       147
31.720       160
31.730       147
31.740       147
31.750       193
31.760       213
31.770       133
31.780       160
31.790       107
31.800       167
31.810       160
31.820       120
31.830       127
31.840       107
31.850       200
31.860       160
31.870       207
31.880       207
31.890       180
31.900       200
31.910       120
31.920       180
31.930       153
31.940       153
31.950       167
31.960       227
31.970       140
31.980       133
31.990       127
32.000       100
32.010       127
32.020       147
32.030       193
32.040       207
32.050       213
32.060       213
32.070       187
32.080       187
32.090       220
32.100       180
32.110       140
32.120       167
32.130       127
32.140       107
32.150       213
32.160       153
32.170       193
32.180       240
32.190       220
32.200       213
32.210       267
32.220       240
32.230       213
32.240       300
32.250       300
32.260       273
32.270       233
32.280       240
32.290       333
32.300       307
32.310       280
32.320       320
32.330       293
32.340       347
32.350       367
32.360       446
32.370       433
32.380       320
32.390       353
32.400       420
32.410       453
32.420       360
32.430       380
32.440       426
32.450       420
32.460       300
32.470       460
32.480       307
32.490       373
32.500       353
32.510       340
32.520       307
32.530       247
32.540       413
32.550       347
32.560       313
32.570       320
32.580       233
32.590       327
32.600       187
32.610       280
32.620       227
32.630       220
32.640       180
32.650       173
32.660       160
32.670       147
32.680       180
32.690       240
32.700       220
32.710       147
32.720       200
32.730       173
32.740       127
32.750       187
32.760       160
32.770        80
32.780       127
32.790       100
32.800       120
32.810       107
32.820        93
32.830       173
32.840       133
32.850       127
32.860       100
32.870       120
32.880       153
32.890       107
32.900       147
32.910       127
32.920       120
32.930       107
32.940       153
32.950       107
32.960       153
32.970        87
32.980       127
32.990       107
33.000       100
33.010       147
33.020        80
33.030        87
33.040       133
33.050       173
33.060       100
33.070       133
33.080       113
33.090       147
33.100       167
33.110       133
33.120       127
33.130       153
33.140        93
33.150       113
33.160       120
33.170       100
33.180       100
33.190        87
33.200       100
33.210       127
33.220        60
33.230       160
33.240       133
33.250       147
33.260        87
33.270       100
33.280        93
33.290       127
33.300       153
33.310       140
33.320       120
33.330        73
33.340       107
33.350       140
33.360       167
33.370       120
33.380        93
33.390        80
33.400       113
33.410       113
33.420       173
33.430       113
33.440       113
33.450        73
33.460       100
33.470        73
33.480       160
33.490       140
33.500       133
33.510       113
33.520       100
33.530       107
33.540        93
33.550       140
33.560       133
33.570       100
33.580        93
33.590       127
33.600       160
33.610        93
33.620       113
33.630       120
33.640       180
33.650       120
33.660        93
33.670       147
33.680        87
33.690       140
33.700       140
33.710       127
33.720       120
33.730       120
33.740       153
33.750       100
33.760       133
33.770       100
33.780       100
33.790       107
33.800        87
33.810       107
33.820        93
33.830        93
33.840        67
33.850       113
33.860        87
33.870        80
33.880       120
33.890        80
33.900       180
33.910       127
33.920       160
33.930        93
33.940       133
33.950       113
33.960       107
33.970       140
33.980        93
33.990       100
34.000       120
34.010        80
34.020       147
34.030       147
34.040       133
34.050       140
34.060        87
34.070        87
34.080        87
34.090       100
34.100       127
34.110       107
34.120       100
34.130        87
34.140       147
34.150        80
34.160       153
34.170       113
34.180        87
34.190        93
34.200       147
34.210       100
34.220        60
34.230        93
34.240       127
34.250        60
34.260        80
34.270       147
34.280       120
34.290        73
34.300       127
34.310       120
34.320        93
34.330        60
34.340        73
34.350       160
34.360        80
34.370       113
34.380       140
34.390       107
34.400        53
34.410       120
34.420       147
34.430        93
34.440        80
34.450        87
34.460       140
34.470        87
34.480        87
34.490        87
34.500       100
34.510       120
34.520        67
34.530        80
34.540        93
34.550       140
34.560        87
34.570       107
34.580        60
34.590        93
34.600        93
34.610        87
34.620       100
34.630       113
34.640       107
34.650       133
34.660        73
34.670       127
34.680       100
34.690        67
34.700        67
34.710        80
34.720       113
34.730       113
34.740       133
34.750        80
34.760        93
34.770       140
34.780        80
34.790        73
34.800       100
34.810        93
34.820        93
34.830        60
34.840        87
34.850        67
34.860        87
34.870        87
34.880       120
34.890        87
34.900        80
34.910       107
34.920       107
34.930       107
34.940        87
34.950       113
34.960        80
34.970       113
34.980        80
34.990        73
35.000       120
35.010        87
35.020        60
35.030        73
35.040        80
35.050        80
35.060        87
35.070        93
35.080        53
35.090        87
35.100        60
35.110       107
35.120        87
35.130        60
35.140        60
35.150        93
35.160        67
35.170        40
35.180       107
35.190        80
35.200       113
35.210        93
35.220        73
35.230       147
35.240       107
35.250       100
35.260       107
35.270        93
35.280       180
35.290       120
35.300        80
35.310        40
35.320       107
35.330        87
35.340        80
35.350        53
35.360        67
35.370       127
35.380       100
35.390        93
35.400        53
35.410        67
35.420        80
35.430       113
35.440       113
35.450       100
35.460        73
35.470        87
35.480        80
35.490        93
35.500       147
35.510       113
35.520        53
35.530        60
35.540        60
35.550       120
35.560       120
35.570        53
35.580        73
35.590        87
35.600        67
35.610        40
35.620        60
35.630        60
35.640        60
35.650        73
35.660       100
35.670       100
35.680        73
35.690       107
35.700        53
35.710        87
35.720        80
35.730        93
35.740        93
35.750       100
35.760       100
35.770        53
35.780        87
35.790        73
35.800        73
35.810        93
35.820        67
35.830        67
35.840       153
35.850        73
35.860        80
35.870        60
35.880       120
35.890        60
35.900        60
35.910        13
35.920       113
35.930        67
35.940        93
35.950        80
35.960        73
35.970        67
35.980        80
35.990        53
36.000        53
36.010        73
36.020        53
36.030        20
36.040        87
36.050        53
36.060       140
36.070        80
36.080        53
36.090       160
36.100        60
36.110        80
36.120        67
36.130        73
36.140       100
36.150        80
36.160        93
36.170       107
36.180        53
36.190        73
36.200        93
36.210       133
36.220        67
36.230        73
36.240        80
36.250        87
36.260        67
36.270        47
36.280        87
36.290       100
36.300        67
36.310        93
36.320       127
36.330        53
36.340        67
36.350       113
36.360        67
36.370        93
36.380        67
36.390       153
36.400        60
36.410        47
36.420        47
36.430        53
36.440        87
36.450        53
36.460        53
36.470        73
36.480        87
36.490        60
36.500        87
36.510        53
36.520        60
36.530        67
36.540       107
36.550       100
36.560        60
36.570        53
36.580        87
36.590        80
36.600        73
36.610        80
36.620       107
36.630        53
36.640        47
36.650        53
36.660       100
36.670        53
36.680        27
36.690        73
36.700        60
36.710        73
36.720        80
36.730        73
36.740        80
36.750       107
36.760        47
36.770        87
36.780        60
36.790        47
36.800        93
36.810        73
36.820        53
36.830        87
36.840        67
36.850        60
36.860        20
36.870        93
36.880        67
36.890        47
36.900        60
36.910        60
36.920        93
36.930        93
36.940        93
36.950        20
36.960        40
36.970        73
36.980        53
36.990        67
37.000        47
37.010        60
37.020        67
37.030        53
37.040        67
37.050        73
37.060        73
37.070        80
37.080       113
37.090        53
37.100        40
37.110        67
37.120        67
37.130        47
37.140        73
37.150        47
37.160        67
37.170        60
37.180        73
37.190        87
37.200       113
37.210        87
37.220        40
37.230        80
37.240        53
37.250        53
37.260        33
37.270        53
37.280        80
37.290        60
37.300        67
37.310        67
37.320        40
37.330        67
37.340        53
37.350        40
37.360        67
37.370        73
37.380        40
37.390        67
37.400        33
37.410        67
37.420        40
37.430        60
37.440        87
37.450        87
37.460        60
37.470        53
37.480        40
37.490        40
37.500        53
37.510        60
37.520        73
37.530        27
37.540        60
37.550        53
37.560        93
37.570        80
37.580        67
37.590        40
37.600        80
37.610        27
37.620        33
37.630        80
37.640        60
37.650        40
37.660        73
37.670        27
37.680        73
37.690        87
37.700        33
37.710        53
37.720        73
37.730        67
37.740        47
37.750        73
37.760        53
37.770        27
37.780        47
37.790        93
37.800        67
37.810        67
37.820        80
37.830        73
37.840        47
37.850        60
37.860        53
37.870        47
37.880        67
37.890        67
37.900        80
37.910        47
37.920        33
37.930        40
37.940        87
37.950        60
37.960        53
37.970        53
37.980        53
37.990        20
38.000        27
38.010        53
38.020        27
38.030        40
38.040        33
38.050        87
38.060        60
38.070        80
38.080        53
38.090        20
38.100        53
38.110        67
38.120        67
38.130        47
38.140        53
38.150        60
38.160        47
38.170        47
38.180        47
38.190        47
38.200        60
38.210        67
38.220        20
38.230        67
38.240        80
38.250        40
38.260        33
38.270        67
38.280        67
38.290        33
38.300        40
38.310        47
38.320        93
38.330        47
38.340        47
38.350        53
38.360       100
38.370        40
38.380        40
38.390        53
38.400        47
38.410        47
38.420        20
38.430        87
38.440        33
38.450        53
38.460        80
38.470        13
38.480        40
38.490        33
38.500        67
38.510        73
38.520        47
38.530        67
38.540        13
38.550        40
38.560        67
38.570        80
38.580        33
38.590        27
38.600        33
38.610        67
38.620        47
38.630        87
38.640        47
38.650        67
38.660        67
38.670        40
38.680        80
38.690        47
38.700        80
38.710        40
38.720        53
38.730        27
38.740        40
38.750        53
38.760        60
38.770        40
38.780        47
38.790        33
38.800        60
38.810        53
38.820        60
38.830        53
38.840        60
38.850        33
38.860        87
38.870        67
38.880        67
38.890        40
38.900        60
38.910        60
38.920        47
38.930        47
38.940        53
38.950        40
38.960        27
38.970        60
38.980        73
38.990        33
39.000        40
39.010        67
39.020        60
39.030        33
39.040        27
39.050        47
39.060        27
39.070        93
39.080        53
39.090        53
39.100        33
39.110        33
39.120        47
39.130        47
39.140        53
39.150        20
39.160        80
39.170        40
39.180        53
39.190        80
39.200        53
39.210        27
39.220        40
39.230        20
39.240        47
39.250        47
39.260         7
39.270        53
39.280        33
39.290        20
39.300        53
39.310        60
39.320        13
39.330        40
39.340        40
39.350        53
39.360        27
39.370        60
39.380        40
39.390         7
39.400        20
39.410        53
39.420        53
39.430        73
39.440        27
39.450        53
39.460        47
39.470        40
39.480        27
39.490        80
39.500        20
39.510        60
39.520        67
39.530        33
39.540        53
39.550        40
39.560        27
39.570        60
39.580        40
39.590        53
39.600        53
39.610        80
39.620        47
39.630        40
39.640        53
39.650        53
39.660        47
39.670        27
39.680        53
39.690        60
39.700        33
39.710        67
39.720        27
39.730        27
39.740        33
39.750        40
39.760        67
39.770        53
39.780        73
39.790        40
39.800        33
39.810        47
39.820        40
39.830        60
39.840        60
39.850        33
39.860        27
39.870       100
39.880        53
39.890        73
39.900        47
39.910        60
39.920        47
39.930       107
39.940        67
39.950        47
39.960        67
39.970        47
39.980       120
39.990        47
40.000        47
40.010        80
40.020       100
40.030        53
40.040       107
40.050        40
40.060        80
40.070        53
40.080        73
40.090        73
40.100        80
40.110        73
40.120        60
40.130        53
40.140        67
40.150        73
40.160        60
40.170        93
40.180        67
40.190        53
40.200        33
40.210        67
40.220        53
40.230        87
40.240        53
40.250        40
40.260        47
40.270        73
40.280        40
40.290        47
40.300        33
40.310        53
40.320        47
40.330        47
40.340        60
40.350        20
40.360        33
40.370        47
40.380        53
40.390        33
40.400        27
40.410        67
40.420        47
40.430        47
40.440        33
40.450        20
40.460        13
40.470        40
40.480        47
40.490        13
40.500        47
40.510        33
40.520        27
40.530        47
40.540        73
40.550        73
40.560        40
40.570        47
40.580        33
40.590        47
40.600        13
40.610        13
40.620        27
40.630        33
40.640        47
40.650        40
40.660        27
40.670        47
40.680        40
40.690        27
40.700        40
40.710        40
40.720        33
40.730        40
40.740        80
40.750        47
40.760        40
40.770        40
40.780        47
40.790        47
40.800        27
40.810        60
40.820        60
40.830        47
40.840        33
40.850        40
40.860        27
40.870        47
40.880        40
40.890        87
40.900        40
40.910        47
40.920        40
40.930        27
40.940        20
40.950        60
40.960        33
40.970        53
40.980        33
40.990        40
41.000        47
41.010        13
41.020        27
41.030        73
41.040        27
41.050        67
41.060        40
41.070        47
41.080        20
41.090        67
41.100        40
41.110        33
41.120        47
41.130        60
41.140        27
41.150        47
41.160        13
41.170        47
41.180        20
41.190        33
41.200        20
41.210        33
41.220        47
41.230        73
41.240        33
41.250        40
41.260        40
41.270        67
41.280        53
41.290        33
41.300        53
41.310        33
41.320        60
41.330        47
41.340        53
41.350        53
41.360        47
41.370        40
41.380        27
41.390        60
41.400        53
41.410        53
41.420        47
41.430        53
41.440        60
41.450        87
41.460        27
41.470        60
41.480        47
41.490        60
41.500        60
41.510        93
41.520        40
41.530        53
41.540        33
41.550        53
41.560        53
41.570        47
41.580        80
41.590        53
41.600        60
41.610       100
41.620        60
41.630        33
41.640        80
41.650        67
41.660        53
41.670        73
41.680        73
41.690        60
41.700        80
41.710        60
41.720        73
41.730        40
41.740        53
41.750        87
41.760        67
41.770        53
41.780        27
41.790        80
41.800        73
41.810        33
41.820        80
41.830        73
41.840        60
41.850        47
41.860        53
41.870        53
41.880        53
41.890        47
41.900        33
41.910        60
41.920        33
41.930        73
41.940        47
41.950        53
41.960        60
41.970        20
41.980        60
41.990         7
42.000        20
42.010        40
42.020        47
42.030        40
42.040        33
42.050        27
42.060        33
42.070        40
42.080        13
42.090        33
42.100        93
42.110        53
42.120        40
42.130        33
42.140        20
42.150        33
42.160        20
42.170        13
42.180        67
42.190        33
42.200        33
42.210        60
42.220        40
42.230        27
42.240        20
42.250        27
42.260        40
42.270        40
42.280         7
42.290        47
42.300        40
42.310        40
42.320        73
42.330        53
42.340        47
42.350        27
42.360        20
42.370        20
42.380        73
42.390        20
42.400        47
42.410        60
42.420        40
42.430        60
42.440        13
42.450        13
42.460        40
42.470        67
42.480        27
42.490        33
42.500        40
42.510        33
42.520        20
42.530        33
42.540        40
42.550        33
42.560        47
42.570        60
42.580        67
42.590        20
42.600        20
42.610        40
42.620        33
42.630        13
42.640        53
42.650        47
42.660        20
42.670        20
42.680        33
42.690        20
42.700        20
42.710        20
42.720        73
42.730        53
42.740        47
42.750        33
42.760        53
42.770        40
42.780        53
42.790        53
42.800        40
42.810        20
42.820        47
42.830         0
42.840        40
42.850        40
42.860        53
42.870        40
42.880        40
42.890        27
42.900        27
42.910        20
42.920        33
42.930        47
42.940        27
42.950        40
42.960        53
42.970        27
42.980        40
42.990        47
43.000        47
43.010        60
43.020        33
43.030        53
43.040        33
43.050        27
43.060        40
43.070        60
43.080        13
43.090        40
43.100        33
43.110        73
43.120        40
43.130        27
43.140        47
43.150        20
43.160        47
43.170        20
43.180        53
43.190        40
43.200        40
43.210        33
43.220        53
43.230        33
43.240        40
43.250        47
43.260        47
43.270        33
43.280        53
43.290        53
43.300        33
43.310        40
43.320        20
43.330         7
43.340        27
43.350        33
43.360        67
43.370        27
43.380        40
43.390        40
43.400        40
43.410         7
43.420        40
43.430         7
43.440        20
43.450         7
43.460        20
43.470        33
43.480        33
43.490        53
43.500        27
43.510        47
43.520        33
43.530        33
43.540        60
43.550        40
43.560        27
43.570        73
43.580        40
43.590        47
43.600        53
43.610        27
43.620        33
43.630        27
43.640        60
43.650        60
43.660        60
43.670        40
43.680        47
43.690        47
43.700         0
43.710        67
43.720        20
43.730        40
43.740        27
43.750        80
43.760        20
43.770        67
43.780        73
43.790        40
43.800        47
43.810        47
43.820        60
43.830        67
43.840        13
43.850        27
43.860        27
43.870        33
43.880        40
43.890        80
43.900        20
43.910        40
43.920        40
43.930        40
43.940        20
43.950        40
43.960        33
43.970        60
43.980        40
43.990        27
44.000        20
44.010        33
44.020        40
44.030        40
44.040        20
44.050        47
44.060        20
44.070        40
44.080        13
44.090        40
44.100        67
44.110        40
44.120        60
44.130        47
44.140        33
44.150        40
44.160        80
44.170        13
44.180        67
44.190        33
44.200        20
44.210        40
44.220       100
44.230        33
44.240        93
44.250        53
44.260        33
44.270        53
44.280        40
44.290        40
44.300        27
44.310        87
44.320        27
44.330        73
44.340        73
44.350        47
44.360        67
44.370        47
44.380        60
44.390        20
44.400        27
44.410        53
44.420        40
44.430        20
44.440        67
44.450        73
44.460        60
44.470        27
44.480        47
44.490        33
44.500        33
44.510        40
44.520        73
44.530        40
44.540        73
44.550        73
44.560        33
44.570        67
44.580        20
44.590        73
44.600        40
44.610        40
44.620        67
44.630        80
44.640        73
44.650        67
44.660       107
44.670        47
44.680        53
44.690       100
44.700        80
44.710        67
44.720        60
44.730        73
44.740        53
44.750        60
44.760        53
44.770        60
44.780       107
44.790        73
44.800        67
44.810        93
44.820        93
44.830       113
44.840        60
44.850        93
44.860       127
44.870        73
44.880       107
44.890       127
44.900        93
44.910        73
44.920       127
44.930       113
44.940       127
44.950       133
44.960       107
44.970        87
44.980        53
44.990       113
45.000       153
45.010       107
45.020       133
45.030       120
45.040        87
45.050       113
45.060       107
45.070        93
45.080        80
45.090       160
45.100       133
45.110        87
45.120       127
45.130       120
45.140       133
45.150        93
45.160       107
45.170        93
45.180       113
45.190        93
45.200       160
45.210       127
45.220       113
45.230       107
45.240       127
45.250       160
45.260       140
45.270       147
45.280       153
45.290        87
45.300       200
45.310       180
45.320       133
45.330       213
45.340       153
45.350       107
45.360       207
45.370       127
45.380       147
45.390       200
45.400       180
45.410       167
45.420       207
45.430       180
45.440       193
45.450       180
45.460       207
45.470       160
45.480       187
45.490       233
45.500       133
45.510       140
45.520       260
45.530       220
45.540       193
45.550       313
45.560       193
45.570       260
45.580       187
45.590       200
45.600       360
45.610       387
45.620       400
45.630       360
45.640       340
45.650       473
45.660       340
45.670       360
45.680       420
45.690       420
45.700       407
45.710       506
45.720       513
45.730       620
45.740       573
45.750       633
45.760       600
45.770       626
45.780       720
45.790       586
45.800       706
45.810       660
45.820       773
45.830       820
45.840       846
45.850       886
45.860       900
45.870      1020
45.880      1000
45.890      1100
45.900      1080
45.910      1120
45.920       973
45.930      1326
45.940      1466
45.950      1413
45.960      1399
45.970      1526
45.980      1479
45.990      1679
46.000      1733
46.010      2026
46.020      1999
46.030      2186
46.040      2159
46.050      2466
46.060      2266
46.070      2632
46.080      2692
46.090      2839
46.100      2852
46.110      2952
46.120      3065
46.130      3292
46.140      3439
46.150      3425
46.160      3739
46.170      3725
46.180      3685
46.190      3792
46.200      3725
46.210      4325
46.220      4092
46.230      4425
46.240      3952
46.250      4332
46.260      4405
46.270      4425
46.280      4498
46.290      4845
46.300      4532
46.310      4418
46.320      4438
46.330      4492
46.340      4278
46.350      4618
46.360      4218
46.370      4478
46.380      4205
46.390      4105
46.400      4318
46.410      3665
46.420      3932
46.430      3858
46.440      3798
46.450      3692
46.460      3639
46.470      3399
46.480      3639
46.490      3385
46.500      3279
46.510      3279
46.520      3272
46.530      2786
46.540      2699
46.550      2779
46.560      2399
46.570      2472
46.580      2452
46.590      2366
46.600      2506
46.610      2159
46.620      1959
46.630      1966
46.640      2006
46.650      1833
46.660      1719
46.670      1699
46.680      1346
46.690      1493
46.700      1286
46.710      1573
46.720      1266
46.730      1379
46.740      1200
46.750      1246
46.760      1013
46.770      1106
46.780      1026
46.790       920
46.800       886
46.810      1006
46.820       906
46.830       813
46.840       720
46.850       906
46.860       653
46.870       766
46.880       666
46.890       693
46.900       713
46.910       506
46.920       586
46.930       353
46.940       633
46.950       420
46.960       433
46.970       493
46.980       373
46.990       473
47.000       426
47.010       400
47.020       367
47.030       460
47.040       453
47.050       367
47.060       433
47.070       380
47.080       367
47.090       413
47.100       407
47.110       393
47.120       546
47.130       446
47.140       540
47.150       420
47.160       753
47.170       820
47.180       873
47.190      1126
47.200      1173
47.210      1233
47.220      1206
47.230       993
47.240      1000
47.250       800
47.260       713
47.270       693
47.280       500
47.290       393
47.300       393
47.310       327
47.320       267
47.330       280
47.340       273
47.350       240
47.360       247
47.370       240
47.380       213
47.390       253
47.400       267
47.410       200
47.420       153
47.430       167
47.440       153
47.450       167
47.460       147
47.470       147
47.480       173
47.490       147
47.500       133
47.510       133
47.520       167
47.530       147
47.540       133
47.550       120
47.560       113
47.570       127
47.580       107
47.590       160
47.600       120
47.610       120
47.620       127
47.630       147
47.640       127
47.650        93
47.660        93
47.670       140
47.680       120
47.690       140
47.700       113
47.710       133
47.720       120
47.730       173
47.740        87
47.750       107
47.760       120
47.770       113
47.780       140
47.790       193
47.800       200
47.810        93
47.820        93
47.830       100
47.840       107
47.850       133
47.860        80
47.870        67
47.880       113
47.890        87
47.900       100
47.910        73
47.920       107
47.930       113
47.940        73
47.950        47
47.960        80
47.970        93
47.980        93
47.990        67
48.000        67
48.010        87
48.020       107
48.030        47
48.040        60
48.050        87
48.060       113
48.070       120
48.080       133
48.090       107
48.100       100
48.110        93
48.120       107
48.130        60
48.140       127
48.150        80
48.160        93
48.170       100
48.180        87
48.190       107
48.200        60
48.210       107
48.220        67
48.230        80
48.240        93
48.250        60
48.260        47
48.270        93
48.280        80
48.290        73
48.300       140
48.310        60
48.320        67
48.330        67
48.340       107
48.350       100
48.360        53
48.370       127
48.380       113
48.390        93
48.400        80
48.410       100
48.420        93
48.430        80
48.440       133
48.450        80
48.460        73
48.470        87
48.480        53
48.490        40
48.500       100
48.510        73
48.520        87
48.530        73
48.540        60
48.550        53
48.560        67
48.570        40
48.580        80
48.590        60
48.600        60
48.610        87
48.620        67
48.630        60
48.640        47
48.650       113
48.660        27
48.670        80
48.680        27
48.690        60
48.700        67
48.710        27
48.720        40
48.730       100
48.740       100
48.750        93
48.760        67
48.770        93
48.780       100
48.790        60
48.800        40
48.810        60
48.820        67
48.830       107
48.840        53
48.850        67
48.860        67
48.870        53
48.880        73
48.890        53
48.900        73
48.910        27
48.920        40
48.930        53
48.940        47
48.950       100
48.960        47
48.970        47
48.980       107
48.990        47
49.000        53
49.010        53
49.020        40
49.030        73
49.040       107
49.050        73
49.060        53
49.070        53
49.080        53
49.090        87
49.100         7
49.110        53
49.120        87
49.130        33
49.140        33
49.150        67
49.160        47
49.170        53
49.180        73
49.190       107
49.200        27
49.210        60
49.220        67
49.230        53
49.240        87
49.250        60
49.260        53
49.270        20
49.280        40
49.290        60
49.300        53
49.310        33
49.320        40
49.330        87
49.340        73
49.350        80
49.360        47
49.370        60
49.380        67
49.390        40
49.400        67
49.410        67
49.420       107
49.430        47
49.440        20
49.450        53
49.460        67
49.470        67
49.480        80
49.490        33
49.500        60
49.510        73
49.520        53
49.530        60
49.540        27
49.550        47
49.560        60
49.570        33
49.580        53
49.590        87
49.600        80
49.610        73
49.620        53
49.630        33
49.640        67
49.650        67
49.660        33
49.670        40
49.680        20
49.690        47
49.700        73
49.710        73
49.720        93
49.730        47
49.740        47
49.750        53
49.760        40
49.770        53
49.780        60
49.790        47
49.800        60
49.810        60
49.820        53
49.830        20
49.840        60
49.850        47
49.860        53
49.870        47
49.880        93
49.890        47
49.900        33
49.910        53
49.920       100
49.930        53
49.940        53
49.950        53
49.960        87
49.970        40
49.980        53
49.990        80
50.000        60
50.010        73
50.020        33
50.030        53
50.040        40
50.050        53
50.060        87
50.070        80
50.080        47
50.090        67
50.100        53
50.110        13
50.120        53
50.130        87
50.140        40
50.150        67
50.160        33
50.170        33
50.180        73
50.190        53
50.200        73
50.210        40
50.220        47
50.230        67
50.240        40
50.250        60
50.260        33
50.270        60
50.280        93
50.290        73
50.300        60
50.310        40
50.320        20
50.330        53
50.340        40
50.350        73
50.360        27
50.370        53
50.380        60
50.390        60
50.400        53
50.410        60
50.420        33
50.430        53
50.440        40
50.450        40
50.460        40
50.470        67
50.480        80
50.490        60
50.500        73
50.510        47
50.520        40
50.530        53
50.540        73
50.550        47
50.560        27
50.570        87
50.580        60
50.590        60
50.600        60
50.610        47
50.620        67
50.630        80
50.640        87
50.650       100
50.660       167
50.670       133
50.680       153
50.690       227
50.700       273
50.710       260
50.720       280
50.730       333
50.740       267
50.750       307
50.760       273
50.770       280
50.780       300
50.790       313
50.800       313
50.810       267
50.820       300
50.830       387
50.840       273
50.850       373
50.860       293
50.870       347
50.880       373
50.890       367
50.900       387
50.910       320
50.920       220
50.930       300
50.940       313
50.950       260
50.960       227
50.970       260
50.980       320
50.990       393
51.000       333
51.010       333
51.020       320
51.030       333
51.040       327
51.050       327
51.060       300
51.070       333
51.080       347
51.090       247
51.100       320
51.110       373
51.120       360
51.130       293
51.140       380
51.150       313
51.160       260
51.170       307
51.180       347
51.190       333
51.200       380
51.210       333
51.220       240
51.230       313
51.240       407
51.250       267
51.260       273
51.270       307
51.280       313
51.290       273
51.300       227
51.310       380
51.320       327
51.330       313
51.340       273
51.350       367
51.360       380
51.370       360
51.380       307
51.390       333
51.400       313
51.410       333
51.420       327
51.430       280
51.440       333
51.450       340
51.460       300
51.470       340
51.480       307
51.490       387
51.500       453
51.510       320
51.520       420
51.530       287
51.540       360
51.550       293
51.560       287
51.570       360
51.580       327
51.590       253
51.600       340
51.610       373
51.620       313
51.630       340
51.640       320
51.650       380
51.660       393
51.670       340
51.680       333
51.690       387
51.700       380
51.710       287
51.720       380
51.730       367
51.740       313
51.750       373
51.760       407
51.770       367
51.780       340
51.790       440
51.800       373
51.810       333
51.820       287
51.830       413
51.840       526
51.850       347
51.860       453
51.870       400
51.880       433
51.890       347
51.900       420
51.910       446
51.920       407
51.930       407
51.940       373
51.950       367
51.960       380
51.970       466
51.980       380
51.990       426
52.000       407
52.010       466
52.020       446
52.030       407
52.040       460
52.050       420
52.060       620
52.070       426
52.080       486
52.090       506
52.100       606
52.110       500
52.120       486
52.130       580
52.140       520
52.150       666
52.160       553
52.170       713
52.180       560
52.190       686
52.200       733
52.210       513
52.220       780
52.230       806
52.240       613
52.250       880
52.260      1020
52.270      1273
52.280       960
52.290      1379
52.300      1333
52.310      1253
52.320      1799
52.330      1886
52.340      2126
52.350      2239
52.360      2399
52.370      2866
52.380      2812
52.390      2712
52.400      2919
52.410      3185
52.420      3265
52.430      3519
52.440      4292
52.450      4691
52.460      5291
52.470      6211
52.480      7031
52.490      8370
52.500      9976
52.510     12588
52.520     14947
52.530     20145
52.540     29082
52.550     43369
52.560     65207
52.570     93023
52.580    115920
52.590    131461
52.600    138358
52.610    137252
52.620    132374
52.630    117733
52.640     94489
52.650     69099
52.660     48787
52.670     36146
52.680     31401
52.690     34226
52.700     43809
52.710     55651
52.720     68772
52.730     78255
52.740     81841
52.750     80235
52.760     75723
52.770     65507
52.780     51439
52.790     36239
52.800     23004
52.810     15834
52.820     11822
52.830      8690
52.840      8077
52.850      6704
52.860      6151
52.870      5724
52.880      5025
52.890      4305
52.900      3892
52.910      3305
52.920      2806
52.930      2599
52.940      2033
52.950      1633
52.960      1546
52.970      1466
52.980      1113
52.990      1233
53.000      1186
53.010      1006
53.020      1000
53.030       933
53.040       920
53.050       880
53.060       940
53.070       813
53.080       806
53.090       720
53.100       680
53.110       733
53.120       746
53.130       620
53.140       646
53.150       620
53.160       680
53.170       640
53.180       640
53.190       633
53.200       586
53.210       600
53.220       686
53.230       566
53.240       533
53.250       593
53.260       506
53.270       573
53.280       546
53.290       540
53.300       433
53.310       553
53.320       493
53.330       500
53.340       426
53.350       420
53.360       493
53.370       340
53.380       347
53.390       520
53.400       400
53.410       340
53.420       473
53.430       486
53.440       480
53.450       327
53.460       393
53.470       367
53.480       373
53.490       340
53.500       387
53.510       313
53.520       407
53.530       313
53.540       393
53.550       313
53.560       387
53.570       347
53.580       353
53.590       367
53.600       360
53.610       253
53.620       340
53.630       293
53.640       300
53.650       393
53.660       367
53.670       387
53.680       280
53.690       313
53.700       360
53.710       333
53.720       360
53.730       287
53.740       400
53.750       420
53.760       300
53.770       293
53.780       300
53.790       313
53.800       280
53.810       280
53.820       193
53.830       240
53.840       240
53.850       313
53.860       260
53.870       287
53.880       327
53.890       313
53.900       233
53.910       300
53.920       287
53.930       167
53.940       273
53.950       333
53.960       340
53.970       273
53.980       273
53.990       193
54.000       213
54.010       313
54.020       287
54.030       353
54.040       273
54.050       327
54.060       380
54.070       247
54.080       327
54.090       267
54.100       220
54.110       193
54.120       313
54.130       187
54.140       260
54.150       247
54.160       300
54.170       253
54.180       220
54.190       247
54.200       293
54.210       260
54.220       287
54.230       253
54.240       260
54.250       287
54.260       267
54.270       307
54.280       187
54.290       293
54.300       227
54.310       247
54.320       213
54.330       227
54.340       280
54.350       253
54.360       260
54.370       253
54.380       253
54.390       193
54.400       253
54.410       220
54.420       187
54.430       213
54.440       280
54.450       193
54.460       153
54.470       233
54.480       220
54.490       253
54.500       160
54.510       193
54.520       220
54.530       213
54.540       287
54.550       240
54.560       253
54.570       227
54.580       207
54.590       193
54.600       287
54.610       213
54.620       187
54.630       280
54.640       213
54.650       113
54.660       193
54.670       233
54.680       200
54.690       260
54.700       180
54.710       247
54.720       227
54.730       227
54.740       200
54.750       207
54.760       227
54.770       240
54.780       167
54.790       253
54.800       200
54.810       227
54.820       147
54.830       233
54.840       213
54.850       187
54.860       213
54.870       193
54.880       253
54.890       173
54.900       227
54.910       260
54.920       213
54.930       207
54.940       153
54.950       200
54.960       213
54.970       200
54.980       193
54.990       207
55.000       227
55.010       147
55.020       147
55.030       160
55.040       207
55.050       140
55.060       140
55.070       233
55.080       180
55.090       213
55.100       120
55.110       260
55.120       147
55.130       187
55.140       247
55.150       173
55.160       213
55.170       193
55.180       160
55.190       160
55.200       173
55.210       160
55.220       233
55.230       173
55.240       213
55.250       153
55.260       193
55.270       167
55.280       160
55.290       140
55.300       253
55.310       180
55.320       147
55.330       173
55.340       227
55.350       153
55.360       207
55.370       220
55.380       173
55.390       147
55.400       180
55.410       140
55.420       180
55.430       107
55.440       107
55.450       160
55.460       153
55.470       113
55.480       167
55.490       167
55.500       160
55.510       207
55.520       187
55.530       167
55.540       153
55.550       207
55.560       200
55.570       153
55.580        93
55.590       140
55.600       260
55.610       107
55.620       193
55.630       193
55.640       200
55.650       207
55.660       113
55.670       153
55.680       147
55.690       120
55.700       133
55.710       180
55.720       153
55.730       107
55.740       247
55.750       200
55.760       180
55.770       153
55.780       167
55.790        87
55.800       180
55.810       180
55.820       153
55.830       193
55.840       200
55.850       133
55.860       160
55.870       140
55.880       180
55.890       167
55.900       167
55.910       160
55.920       180
55.930       120
55.940       153
55.950       200
55.960       200
55.970       147
55.980       207
55.990       160
56.000       127
56.010       133
56.020       193
56.030       147
56.040       173
56.050       153
56.060       187
56.070       100
56.080       127
56.090       147
56.100        93
56.110       100
56.120       167
56.130       147
56.140       160
56.150       120
56.160       140
56.170       200
56.180       193
56.190       107
56.200       173
56.210       167
56.220       153
56.230       160
56.240       180
56.250       200
56.260       147
56.270       113
56.280       180
56.290       193
56.300       173
56.310       147
56.320       107
56.330       160
56.340       140
56.350       147
56.360       153
56.370       147
56.380       200
56.390       153
56.400       147
56.410       173
56.420       213
56.430       187
56.440       147
56.450       140
56.460       147
56.470       120
56.480       147
56.490       120
56.500       127
56.510       180
56.520       153
56.530       153
56.540       147
56.550       153
56.560       187
56.570       147
56.580       107
56.590       140
56.600       173
56.610       153
56.620        93
56.630       147
56.640       140
56.650       180
56.660       187
56.670       153
56.680       167
56.690       167
56.700       133
56.710       133
56.720       107
56.730       133
56.740       133
56.750       160
56.760       173
56.770       127
56.780       213
56.790        87
56.800       133
56.810       147
56.820       113
56.830       153
56.840       147
56.850       107
56.860       133
56.870       133
56.880       153
56.890       140
56.900       120
56.910       127
56.920       127
56.930       140
56.940       147
56.950       127
56.960       147
56.970       227
56.980       153
56.990       153
57.000       193
57.010        87
57.020       153
57.030       160
57.040       180
57.050       120
57.060       153
57.070        87
57.080       133
57.090       127
57.100        93
57.110       140
57.120       160
57.130       100
57.140        93
57.150       160
57.160       153
57.170        93
57.180       127
57.190       173
57.200       153
57.210       140
57.220       107
57.230       100
57.240       153
57.250       200
57.260       173
57.270       113
57.280       120
57.290       127
57.300       120
57.310       120
57.320       107
57.330       140
57.340       133
57.350       120
57.360       133
57.370       113
57.380       160
57.390       100
57.400       100
57.410        73
57.420       133
57.430       153
57.440       107
57.450       160
57.460       133
57.470       113
57.480       127
57.490        87
57.500       213
57.510       133
57.520       147
57.530       100
57.540       140
57.550       133
57.560       113
57.570       180
57.580       140
57.590       133
57.600       153
57.610       147
57.620       107
57.630       120
57.640       187
57.650        80
57.660       193
57.670       113
57.680       127
57.690       107
57.700       127
57.710       160
57.720       107
57.730       107
57.740       180
57.750       133
57.760       140
57.770       100
57.780       107
57.790       140
57.800       147
57.810       127
57.820        60
57.830       120
57.840       113
57.850        87
57.860       133
57.870       147
57.880       140
57.890       107
57.900       133
57.910       127
57.920       120
57.930       127
57.940        80
57.950       127
57.960        80
57.970       127
57.980       100
57.990       133
58.000        87
58.010       100
58.020        93
58.030       107
58.040       133
58.050        93
58.060       120
58.070       120
58.080       120
58.090        73
58.100        67
58.110       100
58.120       127
58.130       120
58.140       120
58.150       120
58.160        93
58.170        87
58.180       133
58.190        93
58.200       107
58.210       200
58.220       133
58.230       120
58.240       107
58.250       113
58.260       127
58.270        87
58.280       140
58.290       113
58.300       127
58.310       153
58.320       100
58.330       140
58.340       127
58.350       100
58.360       100
58.370       153
58.380       167
58.390        93
58.400       140
58.410       133
58.420       120
58.430        47
58.440        73
58.450        80
58.460       107
58.470        87
58.480       160
58.490       113
58.500       100
58.510       153
58.520       107
58.530        67
58.540        87
58.550       140
58.560        87
58.570       133
58.580       113
58.590       133
58.600       107
58.610        73
58.620       100
58.630       107
58.640        80
58.650       127
58.660        93
58.670        87
58.680       147
58.690       107
58.700        80
58.710       107
58.720       153
58.730       113
58.740       100
58.750       107
58.760        93
58.770       120
58.780       100
58.790       140
58.800       100
58.810        53
58.820       120
58.830       113
58.840       133
58.850        80
58.860       113
58.870        80
58.880       120
58.890       133
58.900       113
58.910       133
58.920        67
58.930       113
58.940        93
58.950       113
58.960       120
58.970        93
58.980       140
58.990        87
59.000       100
59.010        73
59.020       140
59.030       140
59.040        60
59.050       120
59.060       133
59.070        93
59.080        80
59.090        80
59.100       127
59.110        87
59.120       113
59.130        93
59.140        73
59.150       107
59.160       107
59.170        93
59.180       120
59.190        93
59.200        67
59.210        93
59.220        60
59.230       147
59.240       140
59.250        87
59.260       147
59.270       113
59.280       100
59.290        80
59.300        87
59.310        87
59.320        87
59.330        93
59.340       113
59.350       133
59.360       133
59.370       127
59.380       113
59.390       140
59.400       100
59.410       107
59.420       100
59.430        73
59.440       120
59.450        67
59.460       107
59.470       100
59.480       100
59.490        93
59.500        93
59.510        93
59.520       127
59.530        87
59.540        60
59.550        87
59.560        33
59.570       107
59.580        73
59.590       153
59.600       107
59.610        73
59.620       120
59.630        93
59.640        80
59.650       100
59.660       113
59.670       133
59.680       100
59.690       107
59.700        60
59.710       113
59.720       133
59.730       100
59.740        93
59.750       100
59.760       133
59.770       100
59.780        93
59.790       100
59.800       100
59.810        80
59.820        93
59.830        80
59.840        67
59.850       127
59.860       100
59.870       147
59.880        87
59.890        87
59.900        80
59.910        73
59.920        93
59.930        93
59.940       127
59.950        73
59.960       120
59.970       140
59.980        93
59.990        80
60.000        87
