20.000        27
20.010        60
20.020        27
20.030        13
20.040        20
20.050        53
20.060        40
20.070        13
20.080        27
20.090        40
20.100        20
20.110         7
20.120        27
20.130        27
20.140        20
20.150        20
20.160        40
20.170        20
20.180        33
20.190        40
20.200        47
20.210        47
20.220         0
20.230        53
20.240        33
20.250        47
20.260        47
20.270        13
20.280        53
20.290        33
20.300        60
20.310        47
20.320        73
20.330        73
20.340        47
20.350        13
20.360        47
20.370        33
20.380        47
20.390        13
20.400         7
20.410        53
20.420        53
20.430        27
20.440        80
20.450        33
20.460        40
20.470        27
20.480        20
20.490        20
20.500        60
20.510        33
20.520        47
20.530        20
20.540        47
20.550        47
20.560        20
20.570        73
20.580        40
20.590        33
20.600        60
20.610        53
20.620        40
20.630        60
20.640        53
20.650        33
20.660        20
20.670        47
20.680        27
20.690        47
20.700        40
20.710        47
20.720        13
20.730        47
20.740        13
20.750        60
20.760        60
20.770        40
20.780        60
20.790        27
20.800        27
20.810        60
20.820        20
20.830        53
20.840        40
20.850        47
20.860        20
20.870        27
20.880        13
20.890        20
20.900        13
20.910        20
20.920        33
20.930        47
20.940        40
20.950        27
20.960        80
20.970        47
20.980        40
20.990        27
21.000        40
21.010        40
21.020        47
21.030        33
21.040        47
21.050        47
21.060        33
21.070        47
21.080        40
21.090        27
21.100        27
21.110        13
21.120         7
21.130        60
21.140        40
21.150        33
21.160        67
21.170        47
21.180        40
21.190        40
21.200        33
21.210        33
21.220        40
21.230        67
21.240         0
21.250        60
21.260        47
21.270        47
21.280        67
21.290        60
21.300        40
21.310        33
21.320        47
21.330        33
21.340        27
21.350        67
21.360        13
21.370        67
21.380        53
21.390        33
21.400        13
21.410        40
21.420        47
21.430        20
21.440        27
21.450        27
21.460        27
21.470        47
21.480        27
21.490        67
21.500        33
21.510        13
21.520        47
21.530        20
21.540        53
21.550        20
21.560        73
21.570        33
21.580        33
21.590        20
21.600        13
21.610        40
21.620        27
21.630        47
21.640        40
21.650        13
21.660        47
21.670        13
21.680        47
21.690        27
21.700        27
21.710        40
21.720        27
21.730        27
21.740        33
21.750        53
21.760        53
21.770        27
21.780        33
21.790        53
21.800        20
21.810        27
21.820        13
21.830        40
21.840        27
21.850        33
21.860        27
21.870        13
21.880        13
21.890        60
21.900        87
21.910        20
21.920        33
21.930        27
21.940        27
21.950        27
21.960        33
21.970        47
21.980        40
21.990        33
22.000        53
22.010        27
22.020        33
22.030        33
22.040        13
22.050        47
22.060        20
22.070        27
22.080        53
22.090        27
22.100        20
22.110        13
22.120        73
22.130        20
22.140        27
22.150        47
22.160        20
22.170        47
22.180         7
22.190        13
22.200        53
22.210        13
22.220        33
22.230        27
22.240        20
22.250        27
22.260        73
22.270         7
22.280        47
22.290        27
22.300        67
22.310        20
22.320        40
22.330        53
22.340        53
22.350        60
22.360        20
22.370        13
22.380        40
22.390        47
22.400        33
22.410        27
22.420        47
22.430        13
22.440        33
22.450        20
22.460        20
22.470        53
22.480        53
22.490        53
22.500        20
22.510        33
22.520        33
22.530        27
22.540        40
22.550        47
22.560        27
22.570        27
22.580        20
22.590        33
22.600        27
22.610        47
22.620        27
22.630        67
22.640        27
22.650        20
22.660        47
22.670        27
22.680        13
22.690        33
22.700        33
22.710        13
22.720        33
22.730        20
22.740         7
22.750        40
22.760        47
22.770        27
22.780        33
22.790        33
22.800        27
22.810        40
22.820        60
22.830        67
22.840        53
22.850        33
22.860        20
22.870        27
22.880        40
22.890        47
22.900        13
22.910        33
22.920        33
22.930        27
22.940        53
22.950        20
22.960        27
22.970        20
22.980         7
22.990        27
23.000        40
23.010        40
23.020        60
23.030        13
23.040        27
23.050        40
23.060        20
23.070        40
23.080        27
23.090        40
23.100        27
23.110        33
23.120         7
23.130        27
23.140        47
23.150        20
23.160        47
23.170        40
23.180        40
23.190        20
23.200        47
23.210        40
23.220        20
23.230        33
23.240        27
23.250        33
23.260        13
23.270        47
23.280        47
23.290        20
23.300        27
23.310        13
23.320        60
23.330        20
23.340        47
23.350        60
23.360        47
23.370        27
23.380        33
23.390        47
23.400         7
23.410        33
23.420        33
23.430        20
23.440        27
23.450        47
23.460        13
23.470        20
23.480        20
23.490        33
23.500        20
23.510        40
23.520        60
23.530        53
23.540        27
23.550        60
23.560        33
23.570        60
23.580        27
23.590        47
23.600        40
23.610        40
23.620        33
23.630        40
23.640        20
23.650        33
23.660        13
23.670        40
23.680        33
23.690        13
23.700        13
23.710        53
23.720        33
23.730        87
23.740        27
23.750        27
23.760        13
23.770        20
23.780        20
23.790        27
23.800        13
23.810        20
23.820        20
23.830        20
23.840        60
23.850        20
23.860        20
23.870        67
23.880        40
23.890        20
23.900        27
23.910        47
23.920        27
23.930        27
23.940        13
23.950        20
23.960        27
23.970         7
23.980        13
23.990        27
24.000        27
24.010        40
24.020        27
24.030        33
24.040         7
24.050        13
24.060         7
24.070        40
24.080        13
24.090         7
24.100        40
24.110        27
24.120        20
24.130        27
24.140         0
24.150        27
24.160        47
24.170        60
24.180        20
24.190        27
24.200        20
24.210        13
24.220        13
24.230         7
24.240        33
24.250        40
24.260        27
24.270        27
24.280        20
24.290        20
24.300        53
24.310        47
24.320        40
24.330        40
24.340        20
24.350        20
24.360        13
24.370        53
24.380        20
24.390        47
24.400        20
24.410        20
24.420        53
24.430        47
24.440        47
24.450        60
24.460        13
24.470        13
24.480        40
24.490        40
24.500        13
24.510        27
24.520        33
24.530        27
24.540        20
24.550        13
24.560        27
24.570        13
24.580        60
24.590        20
24.600        53
24.610         0
24.620        33
24.630        53
24.640        27
24.650        27
24.660        13
24.670        33
24.680        20
24.690        53
24.700        27
24.710        47
24.720        47
24.730        20
24.740        40
24.750        33
24.760        33
24.770        27
24.780        47
24.790        13
24.800        33
24.810        27
24.820        33
24.830        27
24.840        20
24.850         7
24.860        53
24.870        27
24.880        20
24.890        33
24.900        40
24.910        33
24.920        27
24.930        20
24.940        13
24.950        27
24.960        20
24.970        40
24.980        27
24.990        20
25.000        33
25.010        47
25.020        20
25.030        20
25.040        13
25.050        33
25.060        27
25.070        13
25.080        27
25.090        20
25.100        33
25.110        20
25.120        20
25.130        20
25.140        20
25.150        13
25.160        20
25.170        20
25.180        13
25.190        33
25.200        27
25.210        27
25.220        13
25.230        33
25.240        33
25.250        40
25.260        20
25.270        33
25.280        67
25.290        40
25.300        27
25.310        20
25.320         7
25.330        40
25.340        27
25.350        20
25.360        27
25.370        27
25.380        13
25.390        27
25.400        33
25.410        20
25.420        27
25.430        40
25.440        33
25.450        13
25.460        27
25.470        33
25.480        47
25.490        20
25.500        33
25.510        27
25.520        60
25.530        27
25.540        20
25.550        33
25.560         7
25.570        33
25.580        20
25.590        33
25.600        20
25.610        33
25.620        40
25.630        47
25.640        40
25.650        60
25.660        20
25.670        33
25.680        33
25.690        53
25.700        40
25.710         7
25.720        33
25.730        47
25.740        47
25.750        33
25.760        73
25.770        20
25.780         7
25.790        13
25.800        13
25.810        40
25.820        20
25.830        20
25.840        27
25.850        33
25.860        67
25.870        33
25.880        20
25.890        47
25.900        40
25.910        27
25.920        33
25.930        13
25.940        13
25.950        33
25.960        33
25.970        13
25.980        20
25.990        20
26.000        20
26.010        20
26.020        20
26.030        20
26.040        27
26.050        20
26.060        20
26.070        20
26.080        13
26.090        20
26.100        33
26.110        20
26.120         0
26.130        33
26.140        40
26.150        47
26.160        27
26.170         0
26.180        40
26.190         0
26.200        20
26.210        13
26.220        13
26.230        33
26.240        27
26.250        27
26.260        20
26.270        20
26.280        13
26.290        20
26.300        27
26.310        40
26.320        40
26.330        27
26.340        33
26.350        40
26.360        33
26.370         7
26.380        33
26.390        20
26.400        53
26.410        20
26.420        33
26.430         7
26.440        13
26.450        27
26.460        27
26.470         7
26.480        13
26.490        27
26.500         0
26.510        20
26.520         7
26.530        27
26.540        13
26.550        13
26.560        40
26.570        20
26.580        60
26.590        20
26.600        40
26.610        20
26.620        33
26.630        47
26.640        13
26.650        33
26.660        33
26.670        27
26.680        33
26.690        27
26.700        20
26.710        33
26.720        27
26.730        13
26.740        20
26.750        20
26.760        60
26.770        40
26.780        27
26.790         7
26.800         0
26.810         7
26.820         7
26.830        20
26.840        20
26.850         0
26.860         7
26.870        40
26.880         7
26.890        13
26.900        13
26.910        20
26.920        27
26.930        13
26.940        33
26.950        20
26.960        33
26.970        60
26.980        47
26.990        20
27.000        53
27.010        20
27.020        40
27.030        20
27.040        20
27.050        13
27.060        20
27.070         7
27.080        13
27.090         7
27.100        13
27.110        47
27.120        40
27.130         7
27.140        13
27.150        27
27.160        60
27.170         0
27.180        27
27.190        53
27.200        20
27.210         0
27.220        33
27.230        13
27.240        27
27.250        27
27.260        33
27.270        20
27.280        27
27.290        13
27.300        13
27.310        13
27.320        13
27.330        20
27.340        13
27.350        13
27.360        13
27.370        13
27.380        27
27.390        13
27.400         7
27.410        27
27.420         0
27.430        33
27.440        20
27.450        13
27.460        33
27.470        13
27.480        13
27.490        20
27.500        33
27.510        20
27.520        27
27.530        40
27.540         7
27.550         7
27.560         7
27.570         7
27.580        33
27.590        13
27.600        27
27.610        33
27.620        13
27.630        13
27.640        20
27.650        27
27.660        40
27.670        27
27.680        20
27.690        40
27.700        33
27.710        33
27.720        27
27.730        13
27.740         7
27.750         7
27.760        13
27.770        27
27.780        33
27.790        13
27.800         0
27.810        13
27.820        33
27.830        13
27.840        33
27.850        13
27.860        20
27.870        20
27.880        27
27.890        27
27.900        20
27.910         7
27.920        27
27.930        27
27.940        13
27.950        27
27.960        20
27.970        27
27.980        20
27.990        13
28.000         7
28.010        20
28.020        13
28.030        20
28.040         0
28.050        33
28.060        13
28.070        27
28.080        40
28.090        13
28.100        20
28.110        13
28.120        13
28.130        27
28.140        33
28.150        27
28.160        13
28.170        33
28.180        13
28.190         7
28.200        20
28.210        47
28.220        33
28.230         7
28.240        33
28.250        53
28.260        33
28.270        20
28.280        20
28.290        33
28.300        13
28.310        40
28.320        27
28.330        47
28.340        60
28.350        13
28.360        47
28.370        27
28.380        13
28.390        27
28.400        27
28.410        33
28.420        20
28.430        27
28.440        67
28.450        27
28.460        20
28.470        27
28.480        20
28.490        33
28.500         0
28.510        13
28.520         7
28.530        27
28.540        20
28.550        13
28.560        20
28.570        20
28.580        27
28.590        27
28.600        27
28.610        13
28.620        13
28.630        40
28.640        20
28.650         7
28.660        13
28.670        13
28.680        27
28.690        13
28.700        20
28.710        53
28.720        13
28.730         0
28.740        20
28.750        13
28.760        27
28.770        33
28.780        27
28.790         7
28.800        13
28.810        13
28.820         7
28.830        20
28.840         7
28.850        27
28.860        40
28.870        20
28.880        27
28.890        40
28.900        40
28.910         7
28.920        27
28.930        27
28.940        27
28.950        27
28.960        40
28.970        20
28.980        33
28.990        53
29.000        33
29.010        53
29.020        27
29.030        13
29.040        20
29.050        27
29.060         7
29.070        13
29.080        20
29.090        33
29.100        27
29.110        20
29.120        27
29.130        27
29.140        33
29.150        33
29.160        27
29.170        53
29.180        27
29.190        40
29.200        20
29.210         7
29.220        20
29.230        20
29.240         7
29.250        27
29.260        40
29.270        13
29.280        47
29.290        40
29.300        33
29.310        40
29.320        20
29.330        13
29.340        20
29.350        73
29.360         7
29.370        20
29.380        27
29.390        20
29.400        27
29.410        20
29.420        33
29.430        20
29.440        33
29.450        13
29.460        40
29.470        33
29.480        13
29.490        13
29.500        13
29.510        33
29.520        20
29.530        13
29.540        20
29.550        20
29.560        13
29.570        47
29.580        27
29.590        27
29.600        13
29.610        33
29.620         7
29.630        20
29.640        27
29.650        27
29.660        27
29.670        13
29.680        13
29.690        20
29.700         7
29.710        40
29.720        20
29.730        13
29.740         0
29.750         0
29.760        47
29.770        33
29.780        33
29.790        13
29.800        27
29.810        47
29.820         7
29.830        20
29.840        13
29.850        20
29.860        27
29.870        53
29.880        20
29.890         7
29.900        13
29.910        13
29.920        27
29.930        20
29.940        33
29.950        20
29.960        27
29.970        33
29.980        20
29.990        13
30.000        20
30.010        40
30.020         7
30.030        20
30.040        13
30.050        27
30.060         7
30.070        20
30.080        13
30.090         0
30.100        27
30.110         0
30.120        47
30.130         7
30.140         7
30.150         7
30.160         7
30.170        27
30.180         7
30.190         7
30.200        13
30.210        33
30.220        27
30.230        40
30.240        13
30.250        27
30.260        27
30.270        33
30.280        27
30.290        27
30.300        20
30.310         0
30.320         0
30.330        47
30.340        13
30.350        13
30.360        33
30.370        33
30.380        13
30.390        13
30.400        33
30.410         0
30.420        27
30.430        27
30.440        40
30.450        40
30.460        40
30.470        27
30.480        13
30.490        20
30.500        13
30.510        33
30.520         7
30.530        13
30.540        33
30.550         7
30.560        27
30.570        27
30.580        13
30.590        13
30.600        13
30.610         0
30.620        13
30.630        20
30.640        20
30.650        20
30.660         7
30.670         7
30.680        27
30.690        33
30.700         0
30.710         7
30.720        20
30.730        13
30.740        27
30.750        20
30.760        20
30.770        13
30.780        13
30.790        20
30.800        33
30.810        20
30.820        20
30.830        13
30.840        20
30.850        13
30.860        20
30.870        33
30.880        27
30.890        33
30.900        33
30.910        13
30.920        27
30.930        13
30.940        20
30.950        20
30.960        33
30.970        27
30.980         0
30.990        13
31.000        27
31.010        13
31.020        20
31.030         7
31.040        33
31.050        27
31.060         7
31.070        20
31.080        20
31.090        27
31.100        20
31.110        40
31.120         0
31.130        27
31.140        27
31.150        13
31.160        20
31.170        13
31.180        13
31.190        20
31.200        20
31.210        60
31.220        27
31.230         0
31.240        27
31.250        40
31.260        27
31.270        27
31.280        27
31.290        13
31.300         7
31.310        33
31.320        13
31.330        33
31.340        20
31.350        27
31.360        33
31.370        20
31.380        27
31.390        13
31.400         0
31.410        13
31.420        20
31.430        27
31.440        13
31.450         7
31.460        13
31.470        47
31.480        40
31.490        27
31.500        13
31.510        20
31.520        20
31.530        27
31.540        13
31.550         7
31.560        13
31.570         7
31.580         0
31.590        13
31.600        13
31.610        27
31.620        20
31.630        33
31.640        13
31.650         0
31.660        13
31.670        33
31.680        20
31.690        33
31.700         7
31.710        27
31.720        47
31.730        20
31.740        27
31.750        40
31.760        27
31.770        27
31.780        40
31.790        20
31.800        13
31.810         0
31.820        20
31.830         7
31.840         7
31.850        27
31.860        13
31.870         0
31.880        20
31.890        27
31.900        13
31.910         7
31.920         7
31.930        27
31.940        33
31.950        47
31.960        27
31.970        33
31.980        33
31.990        27
32.000        20
32.010        47
32.020        53
32.030        27
32.040        13
32.050         0
32.060        27
32.070        13
32.080        27
32.090        40
32.100        13
32.110        20
32.120        27
32.130        40
32.140        60
32.150        40
32.160        20
32.170        40
32.180        53
32.190        27
32.200        53
32.210        53
32.220        40
32.230        60
32.240        87
32.250        47
32.260        93
32.270        67
32.280        53
32.290       100
32.300       133
32.310        67
32.320       100
32.330       100
32.340        60
32.350        93
32.360        80
32.370       127
32.380        80
32.390        33
32.400        67
32.410        67
32.420        40
32.430        93
32.440        60
32.450        27
32.460        60
32.470        47
32.480        47
32.490        73
32.500        40
32.510        27
32.520         7
32.530        20
32.540        67
32.550        53
32.560        27
32.570        33
32.580        33
32.590        27
32.600        33
32.610        40
32.620        13
32.630        33
32.640        33
32.650        20
32.660        13
32.670        13
32.680        40
32.690        33
32.700        13
32.710        27
32.720        20
32.730        13
32.740        20
32.750        20
32.760        20
32.770        33
32.780         0
32.790         7
32.800        20
32.810        27
32.820        13
32.830        40
32.840         7
32.850        27
32.860        20
32.870        27
32.880         7
32.890        33
32.900        27
32.910         7
32.920        33
32.930        13
32.940        20
32.950         7
32.960         7
32.970         7
32.980        13
32.990        13
33.000        27
33.010        27
33.020         7
33.030        20
33.040        27
33.050         7
33.060        27
33.070        20
33.080        40
33.090         0
33.100        20
33.110        20
33.120        27
33.130        27
33.140        20
33.150        27
33.160         7
33.170        20
33.180        40
33.190        27
33.200        13
33.210        40
33.220        27
33.230        33
33.240        20
33.250         0
33.260        13
33.270        20
33.280        13
33.290        27
33.300        33
33.310        13
33.320        20
33.330        33
33.340        20
33.350        13
33.360        40
33.370         7
33.380        20
33.390        20
33.400        20
33.410        20
33.420        40
33.430        13
33.440        20
33.450        13
33.460        20
33.470        20
33.480         7
33.490        13
33.500        13
33.510        27
33.520        33
33.530         0
33.540         0
33.550        40
33.560        13
33.570        27
33.580        33
33.590         0
33.600        20
33.610        27
33.620         7
33.630        13
33.640        27
33.650        13
33.660         7
33.670        33
33.680        13
33.690        27
33.700        13
33.710        13
33.720        33
33.730        20
33.740        20
33.750        20
33.760        20
33.770        13
33.780        33
33.790        13
33.800        27
33.810        13
33.820        20
33.830        27
33.840        20
33.850        13
33.860        27
33.870         0
33.880        27
33.890        13
33.900         7
33.910        27
33.920         0
33.930        20
33.940        13
33.950        13
33.960         7
33.970        13
33.980        33
33.990        13
34.000        27
34.010        20
34.020        20
34.030        20
34.040        13
34.050         7
34.060        27
34.070        27
34.080        33
34.090        13
34.100        33
34.110         7
34.120        20
34.130        20
34.140         0
34.150        20
34.160        27
34.170         0
34.180        33
34.190        33
34.200        27
34.210        13
34.220        40
34.230        13
34.240        13
34.250        27
34.260         7
34.270        13
34.280        27
34.290        33
34.300        13
34.310         7
34.320        33
34.330        13
34.340        13
34.350        20
34.360        13
34.370         7
34.380         7
34.390        27
34.400        27
34.410         7
34.420        33
34.430        13
34.440         0
34.450        27
34.460        13
34.470        27
34.480        20
34.490        27
34.500         7
34.510         7
34.520        20
34.530         7
34.540        20
34.550        13
34.560        27
34.570        13
34.580        33
34.590         7
34.600        13
34.610        13
34.620        27
34.630         7
34.640        13
34.650        13
34.660        20
34.670        27
34.680        13
34.690        33
34.700        33
34.710        27
34.720         7
34.730         0
34.740         7
34.750        40
34.760        27
34.770        27
34.780        20
34.790        27
34.800        20
34.810         7
34.820        33
34.830        27
34.840         7
34.850        20
34.860         7
34.870        13
34.880        27
34.890        13
34.900        13
34.910        27
34.920        40
34.930        13
34.940        13
34.950        13
34.960        20
34.970        33
34.980        33
34.990        33
35.000        33
35.010        20
35.020        20
35.030        40
35.040        27
35.050        20
35.060        27
35.070        27
35.080        27
35.090        27
35.100        40
35.110         7
35.120        27
35.130        67
35.140        47
35.150        60
35.160       147
35.170       133
35.180       127
35.190        93
35.200       147
35.210        60
35.220       147
35.230        47
35.240        73
35.250        67
35.260       113
35.270       147
35.280        80
35.290       100
35.300        27
35.310        73
35.320        67
35.330        53
35.340        47
35.350        20
35.360        13
35.370        27
35.380        27
35.390        47
35.400        27
35.410        13
35.420        20
35.430        40
35.440        13
35.450        47
35.460        33
35.470        20
35.480         0
35.490        27
35.500        60
35.510        13
35.520        20
35.530        27
35.540        13
35.550        47
35.560        13
35.570        40
35.580        13
35.590        27
35.600         7
35.610        33
35.620         7
35.630         7
35.640        20
35.650        27
35.660        13
35.670         7
35.680        47
35.690        33
35.700         7
35.710        13
35.720        40
35.730        13
35.740        27
35.750        13
35.760        40
35.770        20
35.780        33
35.790        27
35.800        40
35.810         7
35.820        27
35.830         7
35.840        13
35.850        27
35.860         0
35.870        20
35.880        13
35.890        20
35.900        20
35.910        27
35.920        20
35.930        20
35.940        33
35.950        33
35.960        13
35.970        27
35.980        13
35.990        27
36.000        20
36.010        13
36.020        20
36.030        20
36.040         7
36.050        40
36.060        20
36.070        20
36.080        20
36.090         0
36.100        27
36.110         7
36.120        20
36.130        40
36.140        33
36.150         7
36.160        20
36.170         7
36.180        13
36.190        20
36.200        40
36.210        13
36.220        40
36.230        13
36.240        27
36.250         7
36.260        20
36.270         7
36.280        20
36.290        20
36.300         7
36.310        20
36.320        27
36.330         7
36.340        27
36.350         0
36.360        20
36.370         7
36.380        13
36.390        27
36.400        20
36.410        20
36.420        27
36.430        33
36.440        20
36.450        53
36.460        20
36.470         7
36.480         0
36.490        27
36.500         7
36.510        13
36.520        27
36.530        20
36.540        20
36.550        33
36.560         7
36.570        27
36.580        27
36.590        27
36.600        13
36.610        60
36.620        20
36.630        20
36.640        20
36.650         0
36.660        27
36.670         7
36.680        33
36.690        20
36.700        13
36.710        27
36.720        33
36.730         7
36.740         7
36.750         7
36.760         0
36.770        33
36.780        27
36.790        27
36.800        13
36.810         7
36.820         7
36.830        20
36.840         7
36.850         7
36.860        20
36.870        40
36.880        33
36.890        33
36.900        40
36.910         7
36.920        20
36.930        27
36.940        20
36.950        13
36.960        33
36.970        33
36.980        20
36.990         7
37.000        27
37.010        13
37.020        33
37.030        13
37.040        33
37.050        20
37.060        20
37.070        13
37.080         0
37.090        20
37.100        13
37.110         7
37.120         7
37.130        33
37.140        13
37.150        33
37.160        20
37.170        27
37.180        27
37.190        33
37.200        27
37.210        13
37.220         0
37.230        13
37.240        13
37.250        27
37.260        13
37.270        27
37.280         7
37.290        33
37.300        13
37.310        13
37.320        27
37.330        20
37.340         7
37.350         7
37.360        20
37.370        20
37.380        27
37.390        27
37.400         0
37.410         7
37.420        13
37.430         7
37.440        27
37.450         0
37.460        27
37.470        13
37.480         0
37.490        13
37.500        33
37.510        20
37.520        33
37.530        20
37.540        33
37.550        20
37.560        33
37.570        27
37.580        13
37.590        20
37.600        27
37.610         7
37.620        27
37.630        40
37.640        20
37.650        13
37.660        33
37.670        53
37.680        40
37.690        33
37.700        53
37.710        27
37.720        20
37.730        40
37.740        33
37.750        40
37.760        40
37.770        40
37.780        27
37.790        40
37.800        33
37.810       107
37.820        67
37.830       133
37.840       140
37.850       107
37.860        93
37.870        87
37.880        80
37.890        80
37.900        47
37.910        73
37.920        53
37.930        27
37.940        80
37.950        53
37.960        40
37.970        80
37.980        27
37.990        27
38.000        40
38.010        20
38.020        27
38.030         7
38.040        27
38.050        27
38.060        20
38.070         7
38.080        27
38.090         7
38.100        13
38.110         7
38.120         7
38.130        13
38.140        20
38.150        20
38.160         0
38.170        40
38.180        13
38.190        13
38.200         7
38.210        13
38.220        20
38.230        20
38.240        20
38.250        13
38.260        20
38.270        13
38.280         7
38.290        27
38.300         7
38.310        13
38.320        13
38.330        40
38.340        13
38.350        13
38.360         0
38.370        27
38.380         7
38.390         7
38.400        20
38.410        13
38.420        20
38.430        33
38.440        20
38.450        40
38.460         0
38.470         0
38.480        27
38.490        67
38.500         7
38.510         7
38.520         7
38.530        27
38.540         7
38.550         7
38.560        27
38.570        27
38.580        13
38.590        13
38.600        20
38.610        33
38.620        20
38.630         7
38.640         7
38.650        27
38.660        20
38.670        33
38.680        20
38.690        20
38.700         0
38.710        20
38.720        20
38.730        13
38.740        47
38.750        20
38.760         0
38.770        27
38.780        20
38.790        27
38.800        20
38.810         7
38.820         0
38.830         7
38.840         7
38.850        27
38.860        20
38.870        13
38.880        20
38.890        20
38.900        33
38.910        13
38.920        33
38.930        13
38.940        13
38.950        20
38.960        13
38.970        53
38.980        20
38.990         0
39.000        20
39.010        27
39.020        27
39.030        40
39.040         7
39.050        20
39.060        20
39.070        40
39.080        33
39.090        13
39.100        27
39.110         7
39.120         7
39.130        27
39.140        13
39.150        40
39.160        13
39.170        13
39.180        13
39.190        13
39.200        13
39.210        40
39.220        27
39.230        13
39.240        13
39.250         7
39.260         0
39.270        20
39.280        33
39.290        20
39.300        20
39.310        27
39.320         7
39.330         7
39.340        20
39.350        13
39.360        27
39.370        40
39.380        33
39.390        13
39.400        20
39.410         7
39.420        33
39.430        13
39.440        13
39.450        20
39.460         0
39.470        33
39.480         7
39.490        33
39.500        33
39.510        13
39.520        20
39.530         7
39.540        20
39.550        20
39.560        20
39.570        13
39.580        13
39.590         7
39.600        20
39.610        33
39.620        27
39.630         0
39.640        13
39.650         7
39.660        13
39.670        27
39.680        13
39.690        40
39.700         0
39.710        20
39.720        40
39.730        13
39.740         0
39.750         7
39.760        33
39.770        33
39.780         7
39.790        20
39.800        13
39.810        20
39.820         7
39.830        33
39.840        40
39.850        13
39.860        13
39.870        40
39.880        33
39.890        60
39.900        47
39.910        33
39.920        40
39.930        60
39.940        33
39.950        60
39.960        73
39.970        27
39.980        47
39.990        67
40.000        33
40.010        67
40.020        40
40.030        53
40.040        47
40.050        27
40.060        47
40.070        40
40.080        27
40.090        67
40.100        20
40.110        47
40.120        20
40.130        33
40.140        40
40.150        20
40.160        13
40.170        33
40.180        47
40.190        20
40.200        40
40.210        40
40.220        47
40.230        47
40.240        40
40.250        20
40.260        20
40.270        13
40.280        33
40.290         7
40.300        13
40.310        27
40.320        33
40.330        33
40.340         7
40.350        13
40.360         0
40.370        33
40.380         7
40.390        20
40.400        20
40.410         7
40.420        27
40.430        47
40.440        20
40.450        13
40.460        27
40.470        20
40.480        33
40.490        33
40.500         0
40.510        20
40.520        27
40.530        27
40.540         7
40.550        27
40.560        20
40.570        27
40.580         7
40.590        27
40.600        13
40.610        13
40.620        20
40.630        13
40.640        20
40.650        40
40.660        13
40.670        27
40.680        20
40.690        13
40.700        20
40.710        33
40.720        33
40.730        40
40.740         7
40.750        27
40.760         7
40.770         7
40.780        27
40.790        20
40.800        27
40.810        20
40.820         7
40.830         7
40.840        20
40.850        20
40.860        27
40.870        20
40.880        27
40.890        13
40.900        33
40.910        13
40.920        20
40.930        13
40.940        33
40.950        27
40.960        20
40.970        13
40.980        40
40.990        20
41.000         7
41.010         7
41.020         7
41.030        20
41.040        33
41.050        20
41.060        33
41.070        20
41.080        13
41.090        27
41.100        33
41.110        33
41.120        20
41.130        33
41.140        20
41.150        13
41.160        13
41.170        13
41.180         7
41.190        13
41.200        27
41.210        13
41.220        27
41.230        27
41.240         7
41.250        27
41.260        20
41.270        27
41.280         7
41.290        27
41.300        47
41.310        20
41.320         7
41.330        27
41.340        20
41.350         7
41.360        40
41.370        13
41.380        33
41.390        27
41.400        13
41.410        13
41.420         7
41.430        13
41.440        20
41.450        20
41.460        13
41.470        13
41.480         7
41.490        27
41.500        53
41.510        20
41.520        47
41.530        33
41.540        40
41.550        27
41.560        27
41.570        53
41.580        73
41.590        67
41.600        27
41.610       100
41.620        60
41.630        67
41.640        67
41.650       100
41.660        67
41.670       107
41.680       133
41.690       133
41.700       113
41.710       147
41.720       173
41.730       167
41.740       173
41.750       107
41.760       113
41.770        87
41.780        60
41.790        60
41.800        67
41.810       100
41.820        40
41.830       140
41.840        60
41.850        60
41.860       107
41.870        33
41.880        67
41.890        20
41.900        20
41.910        47
41.920        33
41.930        60
41.940        20
41.950        20
41.960         0
41.970        13
41.980        20
41.990        27
42.000        20
42.010        33
42.020         7
42.030        27
42.040        20
42.050        13
42.060        27
42.070        33
42.080        27
42.090        20
42.100        13
42.110        20
42.120        20
42.130        33
42.140        33
42.150        27
42.160        13
42.170         7
42.180        33
42.190         0
42.200        33
42.210        53
42.220        33
42.230        20
42.240        20
42.250        27
42.260        40
42.270        13
42.280         7
42.290        13
42.300        13
42.310        13
42.320        27
42.330        13
42.340        13
42.350        33
42.360        40
42.370        20
42.380        60
42.390         7
42.400         7
42.410         0
42.420        33
42.430         0
42.440        33
42.450        13
42.460        20
42.470        20
42.480        33
42.490        40
42.500        40
42.510        33
42.520        13
42.530        13
42.540        27
42.550        13
42.560        13
42.570         7
42.580        27
42.590        20
42.600        40
42.610        13
42.620        13
42.630        27
42.640        20
42.650        27
42.660        20
42.670         7
42.680        20
42.690        13
42.700        13
42.710        20
42.720        13
42.730        13
42.740        20
42.750        20
42.760        20
42.770        27
42.780        20
42.790         7
42.800         7
42.810        40
42.820        27
42.830        40
42.840        27
42.850        40
42.860         7
42.870         7
42.880        40
42.890         7
42.900        33
42.910        27
42.920        40
42.930        33
42.940         7
42.950        33
42.960        47
42.970         7
42.980        47
42.990        13
43.000         0
43.010        40
43.020        20
43.030        40
43.040        20
43.050        13
43.060        27
43.070         7
43.080        20
43.090        40
43.100        13
43.110        13
43.120        13
43.130        53
43.140         7
43.150        13
43.160        20
43.170        53
43.180        73
43.190        13
43.200        53
43.210        40
43.220        40
43.230        60
43.240        33
43.250        40
43.260        33
43.270        60
43.280        93
43.290        53
43.300        20
43.310        93
43.320        93
43.330        87
43.340       100
43.350       127
43.360       107
43.370       140
43.380       193
43.390       227
43.400       273
43.410       280
43.420       213
43.430       193
43.440       207
43.450       127
43.460       107
43.470        67
43.480       113
43.490        87
43.500        60
43.510        73
43.520        80
43.530       120
43.540        87
43.550        53
43.560        47
43.570        47
43.580        47
43.590        20
43.600        27
43.610        33
43.620        20
43.630        20
43.640        13
43.650        27
43.660        13
43.670        20
43.680        27
43.690        13
43.700        13
43.710        13
43.720        33
43.730        40
43.740         0
43.750        27
43.760        53
43.770        20
43.780        27
43.790        47
43.800        27
43.810        20
43.820        13
43.830        13
43.840         7
43.850         7
43.860        20
43.870        13
43.880        13
43.890        20
43.900        27
43.910        33
43.920        80
43.930        27
43.940         7
43.950        27
43.960        27
43.970        13
43.980        33
43.990        33
44.000        13
44.010        13
44.020        27
44.030        27
44.040        20
44.050        20
44.060        20
44.070        20
44.080        27
44.090        27
44.100        13
44.110         7
44.120        27
44.130        27
44.140        20
44.150        40
44.160        13
44.170        47
44.180        47
44.190        13
44.200         7
44.210        33
44.220         7
44.230         7
44.240        20
44.250         7
44.260         7
44.270         7
44.280        20
44.290         0
44.300         7
44.310        20
44.320        33
44.330        27
44.340        27
44.350        20
44.360        27
44.370        13
44.380        20
44.390         0
44.400         7
44.410         7
44.420        13
44.430        27
44.440        20
44.450        13
44.460        20
44.470        27
44.480        53
44.490        47
44.500        20
44.510         0
44.520         7
44.530        13
44.540        20
44.550        27
44.560        13
44.570         7
44.580         7
44.590        20
44.600        13
44.610        33
44.620        13
44.630        33
44.640        13
44.650        33
44.660        13
44.670        27
44.680        40
44.690         0
44.700        27
44.710        13
44.720        13
44.730        27
44.740         7
44.750        27
44.760        40
44.770        13
44.780        13
44.790        20
44.800        33
44.810        33
44.820        13
44.830        20
44.840        20
44.850         0
44.860        20
44.870         0
44.880        20
44.890        20
44.900        13
44.910        40
44.920        33
44.930        20
44.940        20
44.950        20
44.960        33
44.970        20
44.980        13
44.990        40
45.000        47
45.010        27
45.020        13
45.030        13
45.040        33
45.050        20
45.060        27
45.070         7
45.080        20
45.090        13
45.100        27
45.110        13
45.120        27
45.130        13
45.140        20
45.150        33
45.160        53
45.170         7
45.180        13
45.190         0
45.200        20
45.210        20
45.220        13
45.230        33
45.240        20
45.250        33
45.260        27
45.270        20
45.280        40
45.290        13
45.300        20
45.310        20
45.320         0
45.330        27
45.340        13
45.350        13
45.360        20
45.370        47
45.380        20
45.390         7
45.400         7
45.410        13
45.420        13
45.430        13
45.440        27
45.450        33
45.460        47
45.470        13
45.480        27
45.490        27
45.500         7
45.510        20
45.520        20
45.530        33
45.540         7
45.550         7
45.560        20
45.570        13
45.580        40
45.590         7
45.600        20
45.610        20
45.620        53
45.630        33
45.640        53
45.650        20
45.660        33
45.670        27
45.680        13
45.690        40
45.700        20
45.710        13
45.720        47
45.730        60
45.740        33
45.750        27
45.760        13
45.770        33
45.780        40
45.790        27
45.800        13
45.810        53
45.820        13
45.830        40
45.840        40
45.850        60
45.860        27
45.870        40
45.880        33
45.890        27
45.900        80
45.910        20
45.920        60
45.930        67
45.940        47
45.950        53
45.960        53
45.970        53
45.980        73
45.990        80
46.000        60
46.010        53
46.020        73
46.030        53
46.040        73
46.050        47
46.060        93
46.070        47
46.080        53
46.090        67
46.100        40
46.110        53
46.120        73
46.130        60
46.140        47
46.150        93
46.160        47
46.170        47
46.180       100
46.190        87
46.200        87
46.210        40
46.220        73
46.230        73
46.240        73
46.250        20
46.260        87
46.270        73
46.280        87
46.290        60
46.300        80
46.310        60
46.320        67
46.330        73
46.340        87
46.350        47
46.360        67
46.370        33
46.380        67
46.390        80
46.400        13
46.410        47
46.420        67
46.430        60
46.440        67
46.450        20
46.460        47
46.470        33
46.480        27
46.490         7
46.500        27
46.510        60
46.520        53
46.530        33
46.540        40
46.550        27
46.560        87
46.570        27
46.580        13
46.590        47
46.600        20
46.610        33
46.620        47
46.630        20
46.640        13
46.650         7
46.660        20
46.670        20
46.680        40
46.690        33
46.700        20
46.710        60
46.720        33
46.730        47
46.740        27
46.750        13
46.760        53
46.770        13
46.780        27
46.790        27
46.800        13
46.810        27
46.820        40
46.830        13
46.840        27
46.850        40
46.860        40
46.870        40
46.880        20
46.890        20
46.900        20
46.910        40
46.920        13
46.930        47
46.940        27
46.950        33
46.960        13
46.970         0
46.980        20
46.990        13
47.000        33
47.010        20
47.020        33
47.030        20
47.040        47
47.050        27
47.060        13
47.070        27
47.080        40
47.090        33
47.100         7
47.110        53
47.120         7
47.130         7
47.140        20
47.150         0
47.160        27
47.170        33
47.180        27
47.190        20
47.200        27
47.210        20
47.220        33
47.230        33
47.240         0
47.250        40
47.260        13
47.270         7
47.280        27
47.290        20
47.300        27
47.310        20
47.320        40
47.330        33
47.340        27
47.350        13
47.360        33
47.370        13
47.380         7
47.390        27
47.400        27
47.410        33
47.420         7
47.430         7
47.440        33
47.450         7
47.460         7
47.470        13
47.480        47
47.490         7
47.500        20
47.510        13
47.520        33
47.530        13
47.540        33
47.550        13
47.560        27
47.570        20
47.580        13
47.590        40
47.600         7
47.610        40
47.620        20
47.630        20
47.640        13
47.650        33
47.660        20
47.670         0
47.680        20
47.690        13
47.700        40
47.710        27
47.720         7
47.730         0
47.740        20
47.750         7
47.760        20
47.770         7
47.780        27
47.790        13
47.800        27
47.810        13
47.820         7
47.830         7
47.840        20
47.850        20
47.860        13
47.870        13
47.880         7
47.890         7
47.900         7
47.910        13
47.920        27
47.930        27
47.940        27
47.950        20
47.960         0
47.970         0
47.980        27
47.990        20
48.000        20
48.010        13
48.020         0
48.030        33
48.040        27
48.050         7
48.060        20
48.070         7
48.080         7
48.090         0
48.100        20
48.110         0
48.120         7
48.130        27
48.140        47
48.150         7
48.160        13
48.170         7
48.180        20
48.190        27
48.200        27
48.210        20
48.220        33
48.230        27
48.240        13
48.250        13
48.260         7
48.270        13
48.280         7
48.290        40
48.300         7
48.310        20
48.320        20
48.330        20
48.340        20
48.350         7
48.360        13
48.370        20
48.380        20
48.390        20
48.400        27
48.410        20
48.420        40
48.430         0
48.440         7
48.450         7
48.460         7
48.470        33
48.480        13
48.490        13
48.500        40
48.510        20
48.520        47
48.530        13
48.540        27
48.550        13
48.560        33
48.570        13
48.580        20
48.590        27
48.600         7
48.610         7
48.620         7
48.630        33
48.640        20
48.650         7
48.660        13
48.670        13
48.680        13
48.690        27
48.700        20
48.710        33
48.720         7
48.730         7
48.740        13
48.750        33
48.760        13
48.770        13
48.780        20
48.790        13
48.800         7
48.810        20
48.820        27
48.830        33
48.840        13
48.850        13
48.860         7
48.870         7
48.880        13
48.890        20
48.900        20
48.910         7
48.920        20
48.930        47
48.940        33
48.950        27
48.960        20
48.970         7
48.980        20
48.990         7
49.000        33
49.010        27
49.020        13
49.030        53
49.040        27
49.050        27
49.060        27
49.070         0
49.080        13
49.090         0
49.100         0
49.110        20
49.120        27
49.130        20
49.140        13
49.150         7
49.160        33
49.170        13
49.180        13
49.190        13
49.200        13
49.210         7
49.220        20
49.230        20
49.240        20
49.250         7
49.260        13
49.270        20
49.280        40
49.290        20
49.300        27
49.310         7
49.320        20
49.330        20
49.340        13
49.350         0
49.360        27
49.370        13
49.380        27
49.390        20
49.400         0
49.410        27
49.420         0
49.430        20
49.440        13
49.450        13
49.460        13
49.470        40
49.480        27
49.490        27
49.500        20
49.510        20
49.520         7
49.530        27
49.540         0
49.550        33
49.560        20
49.570        13
49.580         7
49.590         7
49.600        13
49.610        33
49.620        13
49.630        13
49.640         7
49.650        13
49.660        13
49.670        13
49.680         7
49.690        27
49.700        20
49.710        13
49.720        13
49.730         7
49.740        13
49.750        13
49.760        20
49.770        13
49.780        27
49.790        47
49.800        33
49.810        20
49.820        13
49.830        60
49.840        27
49.850        20
49.860         0
49.870         7
49.880        27
49.890        20
49.900        27
49.910        27
49.920         7
49.930        27
49.940        13
49.950        13
49.960         0
49.970         0
49.980        13
49.990        13
50.000        33
50.010        27
50.020        13
50.030        13
50.040        27
50.050        27
50.060        20
50.070        13
50.080        13
50.090        27
50.100        33
50.110        13
50.120        13
50.130        20
50.140         7
50.150        13
50.160        20
50.170        20
50.180        27
50.190        33
50.200        20
50.210        27
50.220        13
50.230        53
50.240        40
50.250        13
50.260        13
50.270        20
50.280         0
50.290        27
50.300        27
50.310        27
50.320         0
50.330        20
50.340        13
50.350        20
50.360        27
50.370        20
50.380         7
50.390        20
50.400        20
50.410        27
50.420         7
50.430         0
50.440        13
50.450        13
50.460        27
50.470        13
50.480        13
50.490         0
50.500         7
50.510        13
50.520        33
50.530        27
50.540        27
50.550        13
50.560        13
50.570         7
50.580        27
50.590        20
50.600         7
50.610        20
50.620        13
50.630        20
50.640        13
50.650        27
50.660        33
50.670        13
50.680         7
50.690        27
50.700        13
50.710        13
50.720        13
50.730         0
50.740         7
50.750        33
50.760        20
50.770        27
50.780        13
50.790        33
50.800        33
50.810        20
50.820         7
50.830        33
50.840        13
50.850        13
50.860        13
50.870        20
50.880         0
50.890        13
50.900        13
50.910        13
50.920         7
50.930         0
50.940        33
50.950        20
50.960        33
50.970        13
50.980        13
50.990        13
51.000        27
51.010        27
51.020        27
51.030         7
51.040        27
51.050         7
51.060         7
51.070        27
51.080        27
51.090        20
51.100         7
51.110        20
51.120        13
51.130         7
51.140        13
51.150         7
51.160        27
51.170        40
51.180         7
51.190         7
51.200        20
51.210        33
51.220        27
51.230        20
51.240         0
51.250        53
51.260        13
51.270        13
51.280        13
51.290        13
51.300        33
51.310        20
51.320        13
51.330         0
51.340        13
51.350        20
51.360        13
51.370        20
51.380        20
51.390        27
51.400        33
51.410        27
51.420        13
51.430        20
51.440        20
51.450        13
51.460        13
51.470         0
51.480        20
51.490        20
51.500        27
51.510        13
51.520        20
51.530         7
51.540        13
51.550         0
51.560         7
51.570        27
51.580        27
51.590        27
51.600        27
51.610        13
51.620        20
51.630         0
51.640        27
51.650         7
51.660        33
51.670        13
51.680        13
51.690        20
51.700         7
51.710         7
51.720        33
51.730        27
51.740        20
51.750        13
51.760        20
51.770        27
51.780        27
51.790        13
51.800        20
51.810        20
51.820        47
51.830        33
51.840         7
51.850        20
51.860         0
51.870         0
51.880        33
51.890        27
51.900         7
51.910         7
51.920         7
51.930        20
51.940        27
51.950        20
51.960        47
51.970        20
51.980         7
51.990        20
52.000        33
52.010        40
52.020         7
52.030         7
52.040        33
52.050        27
52.060        13
52.070        33
52.080        27
52.090        13
52.100        27
52.110        20
52.120        13
52.130        40
52.140        27
52.150         7
52.160        13
52.170         7
52.180        33
52.190        20
52.200        20
52.210        13
52.220        20
52.230        20
52.240         7
52.250        33
52.260        13
52.270        13
52.280        40
52.290        27
52.300        20
52.310        20
52.320         0
52.330         7
52.340        27
52.350         7
52.360         7
52.370         7
52.380        27
52.390        20
52.400        20
52.410         7
52.420         7
52.430         0
52.440        20
52.450        13
52.460        27
52.470         7
52.480        27
52.490        27
52.500        40
52.510        33
52.520         7
52.530        53
52.540        60
52.550        13
52.560        33
52.570        40
52.580        47
52.590        33
52.600        47
52.610        33
52.620        13
52.630        20
52.640        27
52.650        33
52.660        27
52.670         7
52.680        13
52.690        53
52.700        33
52.710        40
52.720        40
52.730        20
52.740        27
52.750        40
52.760        27
52.770        40
52.780        27
52.790        40
52.800        27
52.810        20
52.820        33
52.830        20
52.840        27
52.850        20
52.860        13
52.870        20
52.880        33
52.890        13
52.900        47
52.910        27
52.920        20
52.930         7
52.940        13
52.950         7
52.960        20
52.970        20
52.980        20
52.990        33
53.000        20
53.010        20
53.020         7
53.030         0
53.040        13
53.050        13
53.060        13
53.070        20
53.080        13
53.090         0
53.100        27
53.110        13
53.120        13
53.130        20
53.140         0
53.150        27
53.160        27
53.170         0
53.180        27
53.190        20
53.200        13
53.210        27
53.220        20
53.230         7
53.240         7
53.250        27
53.260        13
53.270        27
53.280         0
53.290         7
53.300        20
53.310         0
53.320         7
53.330         7
53.340         7
53.350        13
53.360        13
53.370        20
53.380        27
53.390        13
53.400        13
53.410        33
53.420         7
53.430        33
53.440        20
53.450         7
53.460        20
53.470        27
53.480        20
53.490        13
53.500        20
53.510        20
53.520        13
53.530        20
53.540         7
53.550        13
53.560        13
53.570        27
53.580        13
53.590         7
53.600        13
53.610        13
53.620         0
53.630        20
53.640        33
53.650        27
53.660        13
53.670        20
53.680         7
53.690         7
53.700        20
53.710         7
53.720        13
53.730        27
53.740        20
53.750         7
53.760        20
53.770        53
53.780        47
53.790        13
53.800        13
53.810         0
53.820         7
53.830        13
53.840        13
53.850        27
53.860        13
53.870         0
53.880        13
53.890         0
53.900        13
53.910         7
53.920        27
53.930        33
53.940        20
53.950         0
53.960         7
53.970        27
53.980        33
53.990         7
54.000        27
54.010        13
54.020         7
54.030        20
54.040        13
54.050        20
54.060        33
54.070         7
54.080        20
54.090        13
54.100        20
54.110        13
54.120        13
54.130        47
54.140        20
54.150        27
54.160         0
54.170        20
54.180         7
54.190        20
54.200         0
54.210        13
54.220         0
54.230        27
54.240        13
54.250         7
54.260         0
54.270         7
54.280        33
54.290        40
54.300         0
54.310        33
54.320         7
54.330         7
54.340         7
54.350        13
54.360        20
54.370         7
54.380        20
54.390        27
54.400         0
54.410        27
54.420        20
54.430        13
54.440        13
54.450        27
54.460        13
54.470         7
54.480        13
54.490        27
54.500         7
54.510         7
54.520        13
54.530        33
54.540        27
54.550        20
54.560        20
54.570        13
54.580        20
54.590        13
54.600         7
54.610        33
54.620         7
54.630         7
54.640        20
54.650        13
54.660         0
54.670        20
54.680         7
54.690        13
54.700        13
54.710         7
54.720        20
54.730         7
54.740         7
54.750        13
54.760        20
54.770        20
54.780         7
54.790         7
54.800        13
54.810         0
54.820         7
54.830        27
54.840        27
54.850         7
54.860        27
54.870        27
54.880        33
54.890        20
54.900         7
54.910         7
54.920        13
54.930        13
54.940        27
54.950        40
54.960        13
54.970        20
54.980        27
54.990        13
55.000        13
55.010        33
55.020        33
55.030         7
55.040        13
55.050        33
55.060        20
55.070        27
55.080        13
55.090        20
55.100        20
55.110        13
55.120        13
55.130         7
55.140         0
55.150        47
55.160         7
55.170         7
55.180         7
55.190        13
55.200        13
55.210         7
55.220        20
55.230        20
55.240         7
55.250        20
55.260        20
55.270        33
55.280         7
55.290        33
55.300        20
55.310         0
55.320        20
55.330         7
55.340        33
55.350        13
55.360        40
55.370         0
55.380         0
55.390        27
55.400        27
55.410        20
55.420        27
55.430        13
55.440        13
55.450        20
55.460         7
55.470         7
55.480        33
55.490         7
55.500         7
55.510        13
55.520        20
55.530        40
55.540        20
55.550        20
55.560        20
55.570        20
55.580        13
55.590        20
55.600        13
55.610        27
55.620         7
55.630        20
55.640        13
55.650         7
55.660         7
55.670         7
55.680         0
55.690         7
55.700        13
55.710         0
55.720        27
55.730        13
55.740        20
55.750        13
55.760         7
55.770         7
55.780         7
55.790        13
55.800        20
55.810         7
55.820        13
55.830        40
55.840        20
55.850         7
55.860        13
55.870        20
55.880        27
55.890        20
55.900        13
55.910         0
55.920         0
55.930         0
55.940        33
55.950         7
55.960        40
55.970         7
55.980        13
55.990        40
56.000        20
56.010         7
56.020         7
56.030        27
56.040        13
56.050        27
56.060        13
56.070         0
56.080        40
56.090        20
56.100        20
56.110        27
56.120        53
56.130        20
56.140        20
56.150         7
56.160        20
56.170        13
56.180        13
56.190        13
56.200        20
56.210         0
56.220        13
56.230        13
56.240        13
56.250        13
56.260         7
56.270        27
56.280        20
56.290        33
56.300        20
56.310        13
56.320        13
56.330        20
56.340        13
56.350         7
56.360         7
56.370        13
56.380         7
56.390         0
56.400         0
56.410        13
56.420        13
56.430         7
56.440        27
56.450        27
56.460        13
56.470         0
56.480         7
56.490        13
56.500         7
56.510        20
56.520        27
56.530        20
56.540        27
56.550         0
56.560        13
56.570        20
56.580         7
56.590        13
56.600         0
56.610        20
56.620        27
56.630         0
56.640         7
56.650        27
56.660        20
56.670        33
56.680        27
56.690        27
56.700        20
56.710        13
56.720         7
56.730        20
56.740         7
56.750        13
56.760        20
56.770         7
56.780         7
56.790         7
56.800        20
56.810        20
56.820        27
56.830         7
56.840         0
56.850        13
56.860        13
56.870         7
56.880        20
56.890        13
56.900         0
56.910        20
56.920        40
56.930        20
56.940        33
56.950        20
56.960         7
56.970        20
56.980         0
56.990        20
57.000         7
57.010        20
57.020         7
57.030         7
57.040        27
57.050         0
57.060        47
57.070         7
57.080        33
57.090        20
57.100        13
57.110        13
57.120        20
57.130        20
57.140        27
57.150        40
57.160        13
57.170         7
57.180        40
57.190        20
57.200        27
57.210        27
57.220        20
57.230        13
57.240        13
57.250        27
57.260        33
57.270         7
57.280        33
57.290        13
57.300        13
57.310        20
57.320         7
57.330        13
57.340        53
57.350        13
57.360        33
57.370        27
57.380        27
57.390        33
57.400        20
57.410        20
57.420        27
57.430        40
57.440        27
57.450        60
57.460        20
57.470        80
57.480        87
57.490       187
57.500       280
57.510       233
57.520       233
57.530       247
57.540       227
57.550       253
57.560       233
57.570       173
57.580       160
57.590       113
57.600       120
57.610        87
57.620        53
57.630        47
57.640        87
57.650        93
57.660       127
57.670       127
57.680        67
57.690       153
57.700       153
57.710       173
57.720       113
57.730        93
57.740       107
57.750        67
57.760        33
57.770        47
57.780        27
57.790        47
57.800         7
57.810        40
57.820        33
57.830        13
57.840        27
57.850        40
57.860        20
57.870        20
57.880        40
57.890        13
57.900        13
57.910        13
57.920        13
57.930        20
57.940        13
57.950        40
57.960        47
57.970        13
57.980        20
57.990        40
58.000        20
58.010        20
58.020        13
58.030        13
58.040        13
58.050         7
58.060        33
58.070         7
58.080        20
58.090        20
58.100         7
58.110        20
58.120        13
58.130        13
58.140        20
58.150        20
58.160        27
58.170         0
58.180         7
58.190        13
58.200         7
58.210        40
58.220        20
58.230        20
58.240         7
58.250         7
58.260        20
58.270         7
58.280        27
58.290        20
58.300         7
58.310        20
58.320        20
58.330         7
58.340        20
58.350         7
58.360        20
58.370        13
58.380        20
58.390        13
58.400        20
58.410        13
58.420        13
58.430        13
58.440        13
58.450        13
58.460         7
58.470        20
58.480         7
58.490        27
58.500         7
58.510        13
58.520         0
58.530        27
58.540         0
58.550        20
58.560        20
58.570        33
58.580         7
58.590         7
58.600        13
58.610        27
58.620         0
58.630         7
58.640         7
58.650         7
58.660         7
58.670        13
58.680        13
58.690        13
58.700         0
58.710        13
58.720        27
58.730        27
58.740        13
58.750        13
58.760         0
58.770        13
58.780        13
58.790        20
58.800         7
58.810         7
58.820         7
58.830         7
58.840        13
58.850        20
58.860        13
58.870        13
58.880         7
58.890         7
58.900        20
58.910        20
58.920        20
58.930        20
58.940         0
58.950        13
58.960        13
58.970        20
58.980         7
58.990        20
59.000        27
59.010        13
59.020         7
59.030         0
59.040        13
59.050        27
59.060        13
59.070        20
59.080         7
59.090         0
59.100         7
59.110        27
59.120         0
59.130        13
59.140        13
59.150        20
59.160        13
59.170         0
59.180        13
59.190        13
59.200        27
59.210        20
59.220         7
59.230        20
59.240        13
59.250         7
59.260         7
59.270        13
59.280        20
59.290        20
59.300        13
59.310         0
59.320        13
59.330        13
59.340        20
59.350        13
59.360         7
59.370         0
59.380         7
59.390        13
59.400         7
59.410        27
59.420         7
59.430        13
59.440        20
59.450         7
59.460         7
59.470        27
59.480        33
59.490        40
59.500         7
59.510        20
59.520        20
59.530        13
59.540        13
59.550        20
59.560         7
59.570         0
59.580        27
59.590        13
59.600        20
59.610         7
59.620        13
59.630         0
59.640        27
59.650        13
59.660        13
59.670        33
59.680        13
59.690        13
59.700         7
59.710         7
59.720         7
59.730        20
59.740        13
59.750        13
59.760         7
59.770        20
59.780         0
59.790        13
59.800        20
59.810         7
59.820        13
59.830         7
59.840        13
59.850         0
59.860        27
59.870        13
59.880         7
59.890        27
59.900        27
59.910        27
59.920        13
59.930        13
59.940         0
59.950        20
59.960        20
59.970        27
59.980         0
59.990        27
60.000        27
