20.000        13
20.010        13
20.020       113
20.030        87
20.040        80
20.050        87
20.060       107
20.070        73
20.080       133
20.090       100
20.100        60
20.110        73
20.120        87
20.130        93
20.140       133
20.150       107
20.160       120
20.170        53
20.180        40
20.190       100
20.200        40
20.210        87
20.220        67
20.230        47
20.240        93
20.250        60
20.260        93
20.270        93
20.280        67
20.290        60
20.300       107
20.310        67
20.320        93
20.330        80
20.340        67
20.350       100
20.360       100
20.370        93
20.380        87
20.390       100
20.400        73
20.410        93
20.420       127
20.430        93
20.440       100
20.450        47
20.460       100
20.470       100
20.480        67
20.490       120
20.500        67
20.510       113
20.520       153
20.530        60
20.540       127
20.550        67
20.560       100
20.570       100
20.580        73
20.590        73
20.600        67
20.610       140
20.620        93
20.630       140
20.640       127
20.650       107
20.660        73
20.670       107
20.680        27
20.690        80
20.700        53
20.710        93
20.720       120
20.730       100
20.740        40
20.750        87
20.760        80
20.770        80
20.780       107
20.790       100
20.800        67
20.810       107
20.820        93
20.830       100
20.840        67
20.850        93
20.860        73
20.870       113
20.880       113
20.890       140
20.900        60
20.910        93
20.920       153
20.930        80
20.940        93
20.950        93
20.960        87
20.970       127
20.980        80
20.990        87
21.000       147
21.010       133
21.020       127
21.030        33
21.040        67
21.050        93
21.060        80
21.070       100
21.080       100
21.090       113
21.100       100
21.110       147
21.120        73
21.130        80
21.140       113
21.150       120
21.160        93
21.170       107
21.180        67
21.190       107
21.200       100
21.210        73
21.220       100
21.230        87
21.240        47
21.250       113
21.260        93
21.270        93
21.280       140
21.290       140
21.300       100
21.310       113
21.320       120
21.330       100
21.340        80
21.350        53
21.360        53
21.370       107
21.380       133
21.390        80
21.400        87
21.410        93
21.420        67
21.430       160
21.440        87
21.450        73
21.460       127
21.470        53
21.480       113
21.490        67
21.500        80
21.510       133
21.520       127
21.530       147
21.540        80
21.550       113
21.560       107
21.570        93
21.580        80
21.590       100
21.600       100
21.610        73
21.620       127
21.630       120
21.640       127
21.650       133
21.660       160
21.670       120
21.680       100
21.690       100
21.700        87
21.710        80
21.720        93
21.730       100
21.740        73
21.750        93
21.760       127
21.770       120
21.780        73
21.790        87
21.800        87
21.810        47
21.820       113
21.830        73
21.840        93
21.850       120
21.860       100
21.870        67
21.880        93
21.890       107
21.900       100
21.910       100
21.920       173
21.930       107
21.940        53
21.950        87
21.960       107
21.970       127
21.980       113
21.990        93
22.000        60
22.010        87
22.020       147
22.030       113
22.040       107
22.050        93
22.060       120
22.070       127
22.080        93
22.090       113
22.100       173
22.110        80
22.120       113
22.130        93
22.140       100
22.150       120
22.160       133
22.170       153
22.180       100
22.190        87
22.200       127
22.210       127
22.220       153
22.230       133
22.240       153
22.250        93
22.260       127
22.270       133
22.280       120
22.290       173
22.300       100
22.310       113
22.320       133
22.330        87
22.340       180
22.350       153
22.360       140
22.370       147
22.380       173
22.390       160
22.400       180
22.410       187
22.420       187
22.430       180
22.440       133
22.450       127
22.460       187
22.470       147
22.480       167
22.490       200
22.500       207
22.510       273
22.520       260
22.530       200
22.540       280
22.550       207
22.560       240
22.570       273
22.580       207
22.590       273
22.600       267
22.610       233
22.620       293
22.630       233
22.640       267
22.650       307
22.660       307
22.670       213
22.680       327
22.690       273
22.700       253
22.710       273
22.720       280
22.730       227
22.740       220
22.750       247
22.760       347
22.770       253
22.780       247
22.790       287
22.800       140
22.810       247
22.820       227
22.830       220
22.840       227
22.850       200
22.860       187
22.870       207
22.880       153
22.890       193
22.900       253
22.910       167
22.920       267
22.930       227
22.940       153
22.950       207
22.960       147
22.970       260
22.980       220
22.990       187
23.000       200
23.010       193
23.020       187
23.030       200
23.040       267
23.050       180
23.060       227
23.070       273
23.080       260
23.090       413
23.100       513
23.110       726
23.120      1046
23.130       946
23.140      1106
23.150      1000
23.160       906
23.170       760
23.180       486
23.190       327
23.200       240
23.210       240
23.220       240
23.230       240
23.240       207
23.250       167
23.260       140
23.270       160
23.280       140
23.290       207
23.300       187
23.310       153
23.320       187
23.330       120
23.340       127
23.350       220
23.360        67
23.370       113
23.380       153
23.390       127
23.400       147
23.410       167
23.420       147
23.430       153
23.440       187
23.450       213
23.460       160
23.470       173
23.480       107
23.490       180
23.500       147
23.510       160
23.520       140
23.530       133
23.540       187
23.550       180
23.560       127
23.570       133
23.580       140
23.590       133
23.600       200
23.610       120
23.620       147
23.630       167
23.640       127
23.650       120
23.660       173
23.670       147
23.680       133
23.690       187
23.700       133
23.710        93
23.720       127
23.730       153
23.740       107
23.750       187
23.760       153
23.770       173
23.780       107
23.790       120
23.800       153
23.810        93
23.820       113
23.830       167
23.840       180
23.850       120
23.860       127
23.870       127
23.880       107
23.890       120
23.900       133
23.910       167
23.920       187
23.930       113
23.940       140
23.950       160
23.960       113
23.970       207
23.980       147
23.990       127
24.000       140
24.010       167
24.020       160
24.030       113
24.040       160
24.050       140
24.060       160
24.070       173
24.080       107
24.090       220
24.100       160
24.110       173
24.120       147
24.130       173
24.140       147
24.150       147
24.160       147
24.170       160
24.180       113
24.190        80
24.200       107
24.210       147
24.220       187
24.230       113
24.240       153
24.250       153
24.260        87
24.270       127
24.280       140
24.290       127
24.300       153
24.310       153
24.320       133
24.330       153
24.340       167
24.350       120
24.360       133
24.370       133
24.380       133
24.390        73
24.400       147
24.410       107
24.420       140
24.430       133
24.440        93
24.450       127
24.460       147
24.470       133
24.480       120
24.490        80
24.500       147
24.510       120
24.520       167
24.530       147
24.540       120
24.550       107
24.560       160
24.570       113
24.580       173
24.590       140
24.600       120
24.610       140
24.620       153
24.630       153
24.640       133
24.650       133
24.660       173
24.670       173
24.680       147
24.690       113
24.700       213
24.710       127
24.720       140
24.730       280
24.740       253
24.750       300
24.760       293
24.770       367
24.780       413
24.790       573
24.800       420
24.810       533
24.820       593
24.830       446
24.840       473
24.850       480
24.860       433
24.870       486
24.880       533
24.890       526
24.900       446
24.910       466
24.920       500
24.930       500
24.940       440
24.950       526
24.960       566
24.970       560
24.980       506
24.990       500
25.000       560
25.010       506
25.020       446
25.030       453
25.040       473
25.050       480
25.060       506
25.070       426
25.080       533
25.090       540
25.100       413
25.110       506
25.120       513
25.130       533
25.140       533
25.150       586
25.160       506
25.170       620
25.180       580
25.190       573
25.200       506
25.210       486
25.220       546
25.230       566
25.240       546
25.250       506
25.260       553
25.270       586
25.280       586
25.290       653
25.300       580
25.310       866
25.320       673
25.330       706
25.340       673
25.350       813
25.360       853
25.370       953
25.380      1379
25.390      1426
25.400      1793
25.410      2586
25.420      2546
25.430      3379
25.440      3825
25.450      4158
25.460      4938
25.470      5311
25.480      5405
25.490      6064
25.500      6524
25.510      7104
25.520      7717
25.530      7544
25.540      8177
25.550      8936
25.560      9663
25.570     12595
25.580     18473
25.590     35173
25.600     59649
25.610     84240
25.620    100880
25.630    108337
25.640    112948
25.650    116380
25.660    113388
25.670    103818
25.680     84260
25.690     71951
25.700     65920
25.710     64141
25.720     61096
25.730     49534
25.740     34153
25.750     18506
25.760      9676
25.770      6131
25.780      4118
25.790      3659
25.800      3012
25.810      2652
25.820      2106
25.830      1859
25.840      1619
25.850      1473
25.860      1419
25.870      1180
25.880       933
25.890       933
25.900       926
25.910       966
25.920       913
25.930       646
25.940       666
25.950       680
25.960       833
25.970       706
25.980       680
25.990       680
26.000       546
26.010       740
26.020       653
26.030       653
26.040       740
26.050       540
26.060       520
26.070       693
26.080       566
26.090       600
26.100       606
26.110       446
26.120       613
26.130       580
26.140       400
26.150       486
26.160       553
26.170       480
26.180       440
26.190       413
26.200       513
26.210       453
26.220       426
26.230       433
26.240       460
26.250       466
26.260       420
26.270       493
26.280       413
26.290       500
26.300       426
26.310       420
26.320       486
26.330       420
26.340       440
26.350       426
26.360       367
26.370       446
26.380       433
26.390       353
26.400       433
26.410       420
26.420       466
26.430       393
26.440       353
26.450       407
26.460       520
26.470       420
26.480       380
26.490       426
26.500       340
26.510       387
26.520       520
26.530       407
26.540       446
26.550       407
26.560       426
26.570       446
26.580       473
26.590       407
26.600       313
26.610       446
26.620       413
26.630       300
26.640       400
26.650       426
26.660       440
26.670       367
26.680       420
26.690       367
26.700       340
26.710       426
26.720       340
26.730       400
26.740       360
26.750       513
26.760       327
26.770       320
26.780       300
26.790       393
26.800       353
26.810       433
26.820       327
26.830       373
26.840       327
26.850       300
26.860       387
26.870       307
26.880       333
26.890       373
26.900       313
26.910       380
26.920       440
26.930       353
26.940       400
26.950       460
26.960       400
26.970       293
26.980       313
26.990       360
27.000       393
27.010       407
27.020       347
27.030       347
27.040       293
27.050       360
27.060       320
27.070       373
27.080       387
27.090       373
27.100       340
27.110       353
27.120       360
27.130       373
27.140       300
27.150       353
27.160       313
27.170       273
27.180       320
27.190       253
27.200       420
27.210       347
27.220       407
27.230       347
27.240       307
27.250       240
27.260       426
27.270       313
27.280       407
27.290       320
27.300       280
27.310       333
27.320       367
27.330       347
27.340       347
27.350       233
27.360       353
27.370       313
27.380       353
27.390       340
27.400       320
27.410       380
27.420       380
27.430       333
27.440       327
27.450       460
27.460       267
27.470       327
27.480       307
27.490       347
27.500       307
27.510       313
27.520       273
27.530       333
27.540       373
27.550       247
27.560       253
27.570       293
27.580       280
27.590       267
27.600       333
27.610       307
27.620       253
27.630       300
27.640       367
27.650       353
27.660       340
27.670       340
27.680       300
27.690       340
27.700       353
27.710       327
27.720       333
27.730       333
27.740       327
27.750       287
27.760       287
27.770       280
27.780       280
27.790       280
27.800       207
27.810       240
27.820       340
27.830       233
27.840       287
27.850       333
27.860       360
27.870       320
27.880       280
27.890       233
27.900       233
27.910       340
27.920       367
27.930       367
27.940       293
27.950       240
27.960       340
27.970       313
27.980       213
27.990       333
28.000       173
28.010       260
28.020       300
28.030       227
28.040       260
28.050       253
28.060       247
28.070       333
28.080       340
28.090       207
28.100       247
28.110       420
28.120       280
28.130       293
28.140       287
28.150       327
28.160       273
28.170       307
28.180       333
28.190       333
28.200       333
28.210       273
28.220       300
28.230       267
28.240       307
28.250       327
28.260       347
28.270       267
28.280       267
28.290       293
28.300       300
28.310       267
28.320       307
28.330       287
28.340       233
28.350       273
28.360       253
28.370       280
28.380       293
28.390       333
28.400       273
28.410       327
28.420       280
28.430       367
28.440       260
28.450       367
28.460       233
28.470       320
28.480       273
28.490       213
28.500       273
28.510       353
28.520       280
28.530       247
28.540       253
28.550       267
28.560       293
28.570       273
28.580       240
28.590       247
28.600       273
28.610       233
28.620       173
28.630       293
28.640       227
28.650       267
28.660       280
28.670       207
28.680       260
28.690       253
28.700       253
28.710       307
28.720       320
28.730       220
28.740       247
28.750       253
28.760       240
28.770       280
28.780       153
28.790       213
28.800       300
28.810       300
28.820       240
28.830       313
28.840       300
28.850       260
28.860       260
28.870       200
28.880       267
28.890       213
28.900       260
28.910       187
28.920       280
28.930       267
28.940       233
28.950       273
28.960       187
28.970       240
28.980       213
28.990       253
29.000       307
29.010       213
29.020       253
29.030       207
29.040       193
29.050       213
29.060       227
29.070       253
29.080       280
29.090       307
29.100       253
29.110       267
29.120       267
29.130       267
29.140       240
29.150       213
29.160       233
29.170       293
29.180       367
29.190       287
29.200       207
29.210       253
29.220       207
29.230       293
29.240       327
29.250       327
29.260       253
29.270       293
29.280       320
29.290       200
29.300       213
29.310       147
29.320       253
29.330       207
29.340       273
29.350       300
29.360       240
29.370       233
29.380       233
29.390       280
29.400       220
29.410       260
29.420       233
29.430       220
29.440       207
29.450       207
29.460       233
29.470       240
29.480       267
29.490       167
29.500       207
29.510       227
29.520       287
29.530       273
29.540       233
29.550       260
29.560       193
29.570       187
29.580       167
29.590       247
29.600       287
29.610       213
29.620       233
29.630       287
29.640       233
29.650       260
29.660       167
29.670       213
29.680       207
29.690       313
29.700       127
29.710       240
29.720       213
29.730       207
29.740       267
29.750       253
29.760       247
29.770       260
29.780       247
29.790       173
29.800       267
29.810       193
29.820       233
29.830       273
29.840       200
29.850       233
29.860       273
29.870       180
29.880       227
29.890       213
29.900       167
29.910       233
29.920       293
29.930       167
29.940       193
29.950       240
29.960       247
29.970       207
29.980       187
29.990       173
30.000       240
30.010       187
30.020       233
30.030       207
30.040       127
30.050       173
30.060       313
30.070       247
30.080       187
30.090       227
30.100       247
30.110       207
30.120       247
30.130       173
30.140       227
30.150       247
30.160       200
30.170       273
30.180       220
30.190       153
30.200       213
30.210       220
30.220       240
30.230       247
30.240       227
30.250       260
30.260       227
30.270       173
30.280       287
30.290       180
30.300       220
30.310       220
30.320       180
30.330       167
30.340       220
30.350       213
30.360       187
30.370       227
30.380       240
30.390       200
30.400       253
30.410       247
30.420       173
30.430       133
30.440       160
30.450       233
30.460       207
30.470       227
30.480       180
30.490       160
30.500       167
30.510       233
30.520       227
30.530       160
30.540       193
30.550       193
30.560       227
30.570       240
30.580       193
30.590       160
30.600       253
30.610       167
30.620       160
30.630       193
30.640       167
30.650       167
30.660       233
30.670       120
30.680       147
30.690       207
30.700       200
30.710       200
30.720       200
30.730       187
30.740       147
30.750       167
30.760       173
30.770       173
30.780       193
30.790       173
30.800       187
30.810       153
30.820       213
30.830       193
30.840       233
30.850       187
30.860       167
30.870       180
30.880       153
30.890       140
30.900       173
30.910       160
30.920       187
30.930       227
30.940       187
30.950       127
30.960       207
30.970       120
30.980       180
30.990       153
31.000       127
31.010       147
31.020       153
31.030       173
31.040       193
31.050       167
31.060       187
31.070       160
31.080       160
31.090       200
31.100       173
31.110       240
31.120       140
31.130       240
31.140       133
31.150       133
31.160       187
31.170       160
31.180       173
31.190       220
31.200       160
31.210       167
31.220       160
31.230       213
31.240       153
31.250       160
31.260       167
31.270       180
31.280       100
31.290       160
31.300       193
31.310       160
31.320       160
31.330       120
31.340       127
31.350       207
31.360       167
31.370       160
31.380       213
31.390       227
31.400       187
31.410       180
31.420       140
31.430       167
31.440       147
31.450       140
31.460       213
31.470       153
31.480       160
31.490       200
31.500       153
31.510       173
31.520       133
31.530       180
31.540       140
31.550       167
31.560       253
31.570       147
31.580       293
31.590       187
31.600       193
31.610       107
31.620       173
31.630       113
31.640       140
31.650       120
31.660       140
31.670       187
31.680       133
31.690       133
31.700       140
31.710       247
31.720       153
31.730       107
31.740       147
31.750       147
31.760       133
31.770       267
31.780       147
31.790       167
31.800       153
31.810       153
31.820       153
31.830       153
31.840       153
31.850       140
31.860       167
31.870       133
31.880       133
31.890       120
31.900       133
31.910       200
31.920       100
31.930       153
31.940       133
31.950       153
31.960       127
31.970       173
31.980       153
31.990       173
32.000       180
32.010       193
32.020       127
32.030       120
32.040       213
32.050       107
32.060       133
32.070       120
32.080       213
32.090       200
32.100       180
32.110       220
32.120       167
32.130       200
32.140       247
32.150       200
32.160       167
32.170       200
32.180       153
32.190       173
32.200       147
32.210       160
32.220       200
32.230       220
32.240       240
32.250       160
32.260       267
32.270       340
32.280       280
32.290       233
32.300       340
32.310       233
32.320       267
32.330       273
32.340       313
32.350       260
32.360       333
32.370       307
32.380       400
32.390       233
32.400       367
32.410       380
32.420       400
32.430       340
32.440       307
32.450       273
32.460       267
32.470       273
32.480       373
32.490       333
32.500       213
32.510       293
32.520       300
32.530       333
32.540       347
32.550       300
32.560       253
32.570       307
32.580       240
32.590       180
32.600       167
32.610       180
32.620       220
32.630       127
32.640       167
32.650       227
32.660       280
32.670       220
32.680       240
32.690       207
32.700       207
32.710       160
32.720       173
32.730       167
32.740       127
32.750       100
32.760       160
32.770       187
32.780       173
32.790       187
32.800       153
32.810       147
32.820        53
32.830       147
32.840       140
32.850       127
32.860       140
32.870       173
32.880       140
32.890       107
32.900       180
32.910       133
32.920       127
32.930       140
32.940       120
32.950       153
32.960       133
32.970        87
32.980       120
32.990       107
33.000       153
33.010        53
33.020       140
33.030       140
33.040       140
33.050       107
33.060       147
33.070       133
33.080       140
33.090       113
33.100       140
33.110       160
33.120        80
33.130       153
33.140       133
33.150       140
33.160       153
33.170       133
33.180        93
33.190       127
33.200       133
33.210        73
33.220       113
33.230       127
33.240       180
33.250       133
33.260       127
33.270        87
33.280        73
33.290        80
33.300        87
33.310       147
33.320       120
33.330       107
33.340        67
33.350       127
33.360       100
33.370        73
33.380       107
33.390       113
33.400       147
33.410       113
33.420       160
33.430       127
33.440       133
33.450       113
33.460        73
33.470       100
33.480        93
33.490       107
33.500       127
33.510       120
33.520       113
33.530       167
33.540       107
33.550        80
33.560        87
33.570        93
33.580        93
33.590       127
33.600       100
33.610       113
33.620       100
33.630       153
33.640        53
33.650       100
33.660       120
33.670        87
33.680        80
33.690        93
33.700       107
33.710       107
33.720        87
33.730       140
33.740       113
33.750        67
33.760       140
33.770        80
33.780        67
33.790       127
33.800        67
33.810       153
33.820       100
33.830       140
33.840       127
33.850        93
33.860       107
33.870        67
33.880        93
33.890        73
33.900        87
33.910       127
33.920        93
33.930       153
33.940       120
33.950       107
33.960       133
33.970       107
33.980       147
33.990       127
34.000        87
34.010       100
34.020        73
34.030       107
34.040       100
34.050       127
34.060       127
34.070        67
34.080        73
34.090        87
34.100        93
34.110        60
34.120        80
34.130       107
34.140        67
34.150       113
34.160       113
34.170        93
34.180        67
34.190       107
34.200       133
34.210        73
34.220       120
34.230        87
34.240        47
34.250       133
34.260       107
34.270       113
34.280       127
34.290        87
34.300       100
34.310        80
34.320       140
34.330        73
34.340        93
34.350        93
34.360       120
34.370       107
34.380       153
34.390        67
34.400        87
34.410        67
34.420       120
34.430       127
34.440       113
34.450        67
34.460        87
34.470       120
34.480        67
34.490       173
34.500       120
34.510        67
34.520       107
34.530       120
34.540       113
34.550       113
34.560       113
34.570        87
34.580       113
34.590        87
34.600       153
34.610        53
34.620       100
34.630       120
34.640       140
34.650       147
34.660       100
34.670        93
34.680        73
34.690       107
34.700       160
34.710        93
34.720       133
34.730        87
34.740       120
34.750        73
34.760        73
34.770        60
34.780       153
34.790        93
34.800        33
34.810       100
34.820       120
34.830       127
34.840       127
34.850       127
34.860       133
34.870        73
34.880        67
34.890        87
34.900       127
34.910        87
34.920       127
34.930       107
34.940        60
34.950       107
34.960       133
34.970        93
34.980       120
34.990        73
35.000        80
35.010        87
35.020        67
35.030        80
35.040        80
35.050       120
35.060       100
35.070       100
35.080       127
35.090       107
35.100        87
35.110       107
35.120        80
35.130        93
35.140       100
35.150        67
35.160        80
35.170        67
35.180       100
35.190        93
35.200        60
35.210       133
35.220       100
35.230        87
35.240        73
35.250       100
35.260        93
35.270        87
35.280        80
35.290        47
35.300       127
35.310        80
35.320       100
35.330       100
35.340       107
35.350        73
35.360        47
35.370        73
35.380        53
35.390       113
35.400        67
35.410        80
35.420        80
35.430        67
35.440       100
35.450       113
35.460        53
35.470        73
35.480       113
35.490        40
35.500        80
35.510       120
35.520        87
35.530       113
35.540       107
35.550        80
35.560        53
35.570        87
35.580        60
35.590        67
35.600        73
35.610        40
35.620        40
35.630        53
35.640       120
35.650        73
35.660        80
35.670       100
35.680        93
35.690        73
35.700        73
35.710        80
35.720        53
35.730        53
35.740        80
35.750        60
35.760        80
35.770        67
35.780       127
35.790        53
35.800       113
35.810        73
35.820        87
35.830       113
35.840        60
35.850        87
35.860        53
35.870        73
35.880        67
35.890       107
35.900        60
35.910       113
35.920        73
35.930        47
35.940        60
35.950        67
35.960        87
35.970       113
35.980        93
35.990        67
36.000        73
36.010        67
36.020        60
36.030        73
36.040        93
36.050        87
36.060        60
36.070       107
36.080        47
36.090       113
36.100        80
36.110        93
36.120        87
36.130        47
36.140        47
36.150       140
36.160        80
36.170        80
36.180       100
36.190        67
36.200        80
36.210        80
36.220        80
36.230        67
36.240        53
36.250        73
36.260        40
36.270       113
36.280        53
36.290        33
36.300        53
36.310       100
36.320        53
36.330        67
36.340        40
36.350        40
36.360        53
36.370        40
36.380        60
36.390        80
36.400        87
36.410        73
36.420        80
36.430        60
36.440        53
36.450        93
36.460        53
36.470        47
36.480        87
36.490        73
36.500        87
36.510        67
36.520        67
36.530        87
36.540        47
36.550        67
36.560        47
36.570        60
36.580        87
36.590        60
36.600        40
36.610        87
36.620        60
36.630        87
36.640        67
36.650        67
36.660        67
36.670        53
36.680        80
36.690        87
36.700        47
36.710       120
36.720        60
36.730        53
36.740        67
36.750        87
36.760        53
36.770        93
36.780        47
36.790        53
36.800        93
36.810        93
36.820        87
36.830        60
36.840        73
36.850        40
36.860        67
36.870        53
36.880        47
36.890        40
36.900       107
36.910        73
36.920        87
36.930        67
36.940        73
36.950        40
36.960        73
36.970        80
36.980        47
36.990        87
37.000        47
37.010       100
37.020       100
37.030        47
37.040        73
37.050        40
37.060        33
37.070        87
37.080        13
37.090        47
37.100        47
37.110        47
37.120        67
37.130        40
37.140        60
37.150        67
37.160        60
37.170        73
37.180        60
37.190        20
37.200        53
37.210        73
37.220        60
37.230        40
37.240       100
37.250        73
37.260        73
37.270        53
37.280        67
37.290        60
37.300        87
37.310        73
37.320        53
37.330        93
37.340        60
37.350        67
37.360        73
37.370        60
37.380        67
37.390        47
37.400        67
37.410        60
37.420        73
37.430        40
37.440        73
37.450        93
37.460        80
37.470        80
37.480        60
37.490        73
37.500        53
37.510        33
37.520        53
37.530        40
37.540        67
37.550        67
37.560        47
37.570        73
37.580        53
37.590        53
37.600        47
37.610        47
37.620        53
37.630        40
37.640        53
37.650        40
37.660        60
37.670        40
37.680        67
37.690        67
37.700        60
37.710        53
37.720        53
37.730        27
37.740        27
37.750        53
37.760        33
37.770        47
37.780        67
37.790       100
37.800        67
37.810        53
37.820        60
37.830        40
37.840        53
37.850        40
37.860         7
37.870        47
37.880        53
37.890        67
37.900        40
37.910        47
37.920        53
37.930        20
37.940        40
37.950        60
37.960        47
37.970        47
37.980        80
37.990        47
38.000        33
38.010        60
38.020         7
38.030        67
38.040        73
38.050        40
38.060        67
38.070        33
38.080        93
38.090        40
38.100        47
38.110        47
38.120        47
38.130        47
38.140        53
38.150        33
38.160        47
38.170        47
38.180        53
38.190        87
38.200        60
38.210        60
38.220        47
38.230        40
38.240        47
38.250        60
38.260        33
38.270        33
38.280        27
38.290        73
38.300        67
38.310        33
38.320        40
38.330        40
38.340        73
38.350        93
38.360        40
38.370        67
38.380        67
38.390        60
38.400        20
38.410        53
38.420        53
38.430        73
38.440        13
38.450        67
38.460        67
38.470        73
38.480        33
38.490        53
38.500        27
38.510        93
38.520        40
38.530        80
38.540        47
38.550        20
38.560        33
38.570        67
38.580        40
38.590        47
38.600        47
38.610        60
38.620        27
38.630        47
38.640        53
38.650        53
38.660        47
38.670        20
38.680        27
38.690        53
38.700        47
38.710        47
38.720        33
38.730        20
38.740        53
38.750        27
38.760        27
38.770        40
38.780        67
38.790        40
38.800        60
38.810        47
38.820        47
38.830        47
38.840        67
38.850        53
38.860        40
38.870        40
38.880        27
38.890        33
38.900        53
38.910        33
38.920        40
38.930        20
38.940        53
38.950        80
38.960        67
38.970        47
38.980        33
38.990        53
39.000        33
39.010        33
39.020        53
39.030        53
39.040        33
39.050        53
39.060        53
39.070        40
39.080        33
39.090        40
39.100        80
39.110        53
39.120        53
39.130        60
39.140        67
39.150        73
39.160        13
39.170        33
39.180        13
39.190        20
39.200        33
39.210        27
39.220        53
39.230        33
39.240        47
39.250        33
39.260        53
39.270        20
39.280        27
39.290        47
39.300        13
39.310        40
39.320        47
39.330        73
39.340        47
39.350        20
39.360        60
39.370        73
39.380        80
39.390        47
39.400        80
39.410        13
39.420        13
39.430        40
39.440        40
39.450        33
39.460        53
39.470        73
39.480        53
39.490        67
39.500        73
39.510        53
39.520        47
39.530        40
39.540        27
39.550        33
39.560        53
39.570        27
39.580        53
39.590        47
39.600        20
39.610        53
39.620        60
39.630        27
39.640        27
39.650        60
39.660        13
39.670        27
39.680        53
39.690        60
39.700        60
39.710        40
39.720        53
39.730        47
39.740        67
39.750        53
39.760        33
39.770        40
39.780        40
39.790        80
39.800        73
39.810        67
39.820        20
39.830        33
39.840        20
39.850        13
39.860        53
39.870        20
39.880        53
39.890        80
39.900        73
39.910        27
39.920        67
39.930        73
39.940        40
39.950        60
39.960        53
39.970        33
39.980        40
39.990        47
40.000        33
40.010        67
40.020        67
40.030        60
40.040        87
40.050        47
40.060        27
40.070        27
40.080        60
40.090        67
40.100        40
40.110        40
40.120        27
40.130         7
40.140        73
40.150        20
40.160        20
40.170        67
40.180        53
40.190        53
40.200        33
40.210        53
40.220        67
40.230        40
40.240        60
40.250        40
40.260        13
40.270        60
40.280        40
40.290        87
40.300        53
40.310        27
40.320        47
40.330        33
40.340        27
40.350        40
40.360        33
40.370        33
40.380        40
40.390        53
40.400        53
40.410        40
40.420        33
40.430        47
40.440        53
40.450        40
40.460        40
40.470        40
40.480        47
40.490        47
40.500        27
40.510        27
40.520        33
40.530        40
40.540        47
40.550        13
40.560        60
40.570        40
40.580        40
40.590        60
40.600        73
40.610        33
40.620        60
40.630        33
40.640        40
40.650        27
40.660        80
40.670        47
40.680        27
40.690        40
40.700        33
40.710        53
40.720        47
40.730        20
40.740        40
40.750        33
40.760        67
40.770        27
40.780        33
40.790        20
40.800        27
40.810        27
40.820        53
40.830        33
40.840        20
40.850        40
40.860        27
40.870        47
40.880        40
40.890        47
40.900        13
40.910        33
40.920        20
40.930        53
40.940        33
40.950        47
40.960        47
40.970        20
40.980        40
40.990        53
41.000        53
41.010        53
41.020        20
41.030        40
41.040        27
41.050        33
41.060        40
41.070        40
41.080        40
41.090        73
41.100        40
41.110        40
41.120        40
41.130        33
41.140        67
41.150        13
41.160        40
41.170        27
41.180        27
41.190        80
41.200        53
41.210        33
41.220        27
41.230        13
41.240        27
41.250        33
41.260        20
41.270        53
41.280        33
41.290        20
41.300        53
41.310        33
41.320        40
41.330        40
41.340        33
41.350        33
41.360        67
41.370        60
41.380        67
41.390        13
41.400        27
41.410        47
41.420        27
41.430        27
41.440        40
41.450        40
41.460        47
41.470        27
41.480        13
41.490        67
41.500        40
41.510        20
41.520        47
41.530        40
41.540        33
41.550        53
41.560        53
41.570        53
41.580        47
41.590        20
41.600        27
41.610        47
41.620        40
41.630         7
41.640        60
41.650        33
41.660        53
41.670        40
41.680        40
41.690        33
41.700        33
41.710         7
41.720        40
41.730        60
41.740        53
41.750        20
41.760        20
41.770        33
41.780        27
41.790        20
41.800        47
41.810        40
41.820        27
41.830        40
41.840        47
41.850        40
41.860        47
41.870        40
41.880        40
41.890        20
41.900        33
41.910        27
41.920        13
41.930        60
41.940        27
41.950        33
41.960        53
41.970        20
41.980         7
41.990        60
42.000        60
42.010        20
42.020        33
42.030        33
42.040        40
42.050        20
42.060        33
42.070        40
42.080        40
42.090        20
42.100        33
42.110        27
42.120        93
42.130        40
42.140        33
42.150        13
42.160        47
42.170        33
42.180         7
42.190        40
42.200        27
42.210        53
42.220        40
42.230        67
42.240        47
42.250        60
42.260        20
42.270        47
42.280        33
42.290        47
42.300        40
42.310        20
42.320        47
42.330        27
42.340        47
42.350        27
42.360        40
42.370        20
42.380        47
42.390        27
42.400        47
42.410        27
42.420        13
42.430        33
42.440        67
42.450        13
42.460        20
42.470        27
42.480        13
42.490        27
42.500        27
42.510        20
42.520        27
42.530        47
42.540        53
42.550        27
42.560        20
42.570        27
42.580        27
42.590        47
42.600        27
42.610        20
42.620        27
42.630        27
42.640        20
42.650        27
42.660        20
42.670        13
42.680        60
42.690        53
42.700        27
42.710        67
42.720        33
42.730        27
42.740        13
42.750        27
42.760        60
42.770        47
42.780        27
42.790        27
42.800        13
42.810        20
42.820        27
42.830        33
42.840        33
42.850        47
42.860        20
42.870        40
42.880        47
42.890        40
42.900        33
42.910        40
42.920        33
42.930        33
42.940        13
42.950        27
42.960        60
42.970        47
42.980         7
42.990        33
43.000        27
43.010        20
43.020        27
43.030        20
43.040        60
43.050        53
43.060        40
43.070        67
43.080        20
43.090        33
43.100        40
43.110        40
43.120        47
43.130        33
43.140        27
43.150        33
43.160        20
43.170        27
43.180        27
43.190        27
43.200        27
43.210        27
43.220        33
43.230        53
43.240        27
43.250        13
43.260         7
43.270        27
43.280         7
43.290        20
43.300        40
43.310        33
43.320        33
43.330        27
43.340        67
43.350        27
43.360        13
43.370        20
43.380        20
43.390        40
43.400        33
43.410        27
43.420        27
43.430        40
43.440        53
43.450        47
43.460        33
43.470        27
43.480        40
43.490        33
43.500        33
43.510        53
43.520        40
43.530        40
43.540        13
43.550        20
43.560        60
43.570        27
43.580        40
43.590        60
43.600        13
43.610        40
43.620        53
43.630        47
43.640        20
43.650        27
43.660        33
43.670        27
43.680        47
43.690        27
43.700        20
43.710        47
43.720        20
43.730         7
43.740        33
43.750        40
43.760        27
43.770        27
43.780        40
43.790        27
43.800        47
43.810        47
43.820        47
43.830         0
43.840        47
43.850        27
43.860        13
43.870        20
43.880        53
43.890        47
43.900        27
43.910        40
43.920        20
43.930        33
43.940        53
43.950        40
43.960        13
43.970        47
43.980        13
43.990        20
44.000        60
44.010        33
44.020        40
44.030        47
44.040        33
44.050        40
44.060        47
44.070        53
44.080        47
44.090         7
44.100        60
44.110        40
44.120        60
44.130        27
44.140        20
44.150        13
44.160        53
44.170        40
44.180        20
44.190        40
44.200         7
44.210        33
44.220        47
44.230        47
44.240        33
44.250        33
44.260        60
44.270        40
44.280        53
44.290        13
44.300        27
44.310        27
44.320        40
44.330        13
44.340        47
44.350        67
44.360        53
44.370        33
44.380        67
44.390        53
44.400        40
44.410        60
44.420        13
44.430        13
44.440        73
44.450        73
44.460        67
44.470        33
44.480        27
44.490        13
44.500        60
44.510        73
44.520        60
44.530        47
44.540        73
44.550        27
44.560       100
44.570        40
44.580        20
44.590        27
44.600        53
44.610        53
44.620        60
44.630        47
44.640        53
44.650        60
44.660        47
44.670        67
44.680        27
44.690        33
44.700        47
44.710        40
44.720        47
44.730        27
44.740        67
44.750        67
44.760        53
44.770        27
44.780        53
44.790        33
44.800        13
44.810        47
44.820        60
44.830        33
44.840        27
44.850        53
44.860        67
44.870        47
44.880        80
44.890        80
44.900        60
44.910        60
44.920        73
44.930        87
44.940       100
44.950        47
44.960        47
44.970        67
44.980        73
44.990        80
45.000        80
45.010        80
45.020        73
45.030        60
45.040        67
45.050        47
45.060        67
45.070        53
45.080       100
45.090        87
45.100        33
45.110        73
45.120        80
45.130        53
45.140        60
45.150        87
45.160        40
45.170       100
45.180        87
45.190       127
45.200       127
45.210        93
45.220       107
45.230       140
45.240        73
45.250       107
45.260        73
45.270        73
45.280        80
45.290        47
45.300        73
45.310        80
45.320       107
45.330       140
45.340       100
45.350       100
45.360       120
45.370        60
45.380       153
45.390       167
45.400       160
45.410       133
45.420        93
45.430       120
45.440       120
45.450       120
45.460       127
45.470       187
45.480       107
45.490       133
45.500       187
45.510       120
45.520       107
45.530       240
45.540       160
45.550       227
45.560       167
45.570       140
45.580       207
45.590       207
45.600       187
45.610       240
45.620       207
45.630       233
45.640       280
45.650       220
45.660       180
45.670       287
45.680       287
45.690       313
45.700       253
45.710       300
45.720       293
45.730       367
45.740       293
45.750       320
45.760       466
45.770       400
45.780       313
45.790       466
45.800       466
45.810       586
45.820       600
45.830       646
45.840       493
45.850       580
45.860       640
45.870       573
45.880       573
45.890       593
45.900       686
45.910       633
45.920       760
45.930       673
45.940       660
45.950       740
45.960       713
45.970       840
45.980       946
45.990       980
46.000       940
46.010       980
46.020      1066
46.030      1046
46.040      1086
46.050      1066
46.060      1153
46.070      1180
46.080      1206
46.090      1200
46.100      1233
46.110      1326
46.120      1386
46.130      1393
46.140      1379
46.150      1426
46.160      1413
46.170      1526
46.180      1659
46.190      1406
46.200      1559
46.210      1453
46.220      1713
46.230      1726
46.240      1659
46.250      1599
46.260      1686
46.270      1693
46.280      1646
46.290      1719
46.300      1766
46.310      1599
46.320      1606
46.330      1466
46.340      1606
46.350      1619
46.360      1553
46.370      1619
46.380      1526
46.390      1599
46.400      1513
46.410      1499
46.420      1453
46.430      1499
46.440      1473
46.450      1473
46.460      1293
46.470      1539
46.480      1193
46.490      1359
46.500      1299
46.510      1160
46.520      1140
46.530      1240
46.540      1113
46.550      1033
46.560      1066
46.570      1033
46.580       893
46.590      1046
46.600       773
46.610       840
46.620       920
46.630       873
46.640       880
46.650       786
46.660       720
46.670       673
46.680       706
46.690       693
46.700       520
46.710       593
46.720       593
46.730       553
46.740       493
46.750       486
46.760       486
46.770       480
46.780       413
46.790       313
46.800       426
46.810       367
46.820       453
46.830       340
46.840       480
46.850       280
46.860       413
46.870       393
46.880       333
46.890       333
46.900       387
46.910       313
46.920       227
46.930       293
46.940       287
46.950       260
46.960       220
46.970       240
46.980       267
46.990       253
47.000       240
47.010       233
47.020       253
47.030       260
47.040       300
47.050       267
47.060       167
47.070       247
47.080       213
47.090       240
47.100       267
47.110       213
47.120       240
47.130       267
47.140       273
47.150       293
47.160       353
47.170       520
47.180       613
47.190       673
47.200       986
47.210      1140
47.220      1080
47.230       986
47.240      1173
47.250      1140
47.260       833
47.270       593
47.280       653
47.290       333
47.300       227
47.310       200
47.320       233
47.330       180
47.340       167
47.350       133
47.360       180
47.370       213
47.380       193
47.390       193
47.400       107
47.410        87
47.420       133
47.430       173
47.440       107
47.450       107
47.460       127
47.470       140
47.480       140
47.490       127
47.500        80
47.510       140
47.520       120
47.530        80
47.540        93
47.550        87
47.560        93
47.570        87
47.580        80
47.590        53
47.600        67
47.610       113
47.620       133
47.630        93
47.640       120
47.650        93
47.660        93
47.670        67
47.680        33
47.690        60
47.700        87
47.710        80
47.720        47
47.730        67
47.740        67
47.750        73
47.760        20
47.770        67
47.780        73
47.790        67
47.800       107
47.810        67
47.820        73
47.830        67
47.840        53
47.850        67
47.860       100
47.870        40
47.880        53
47.890        60
47.900        53
47.910        53
47.920        53
47.930        67
47.940        60
47.950        60
47.960        80
47.970        73
47.980        67
47.990        93
48.000        53
48.010        40
48.020        80
48.030        27
48.040        67
48.050       113
48.060        80
48.070        80
48.080       100
48.090        93
48.100        53
48.110        33
48.120        60
48.130        53
48.140        73
48.150        73
48.160        67
48.170        67
48.180        93
48.190        40
48.200        60
48.210        80
48.220        93
48.230        60
48.240        73
48.250        73
48.260        53
48.270        47
48.280        60
48.290        33
48.300        13
48.310        53
48.320        47
48.330        53
48.340        60
48.350        40
48.360        53
48.370        80
48.380        60
48.390        53
48.400        60
48.410        67
48.420        40
48.430        47
48.440        33
48.450        73
48.460        47
48.470        27
48.480        33
48.490        27
48.500        47
48.510        47
48.520        33
48.530        33
48.540        33
48.550        47
48.560        53
48.570        33
48.580        60
48.590        27
48.600        27
48.610        53
48.620        47
48.630        20
48.640        60
48.650        47
48.660        47
48.670        67
48.680        27
48.690        53
48.700         7
48.710        47
48.720        40
48.730        40
48.740        47
48.750        33
48.760        13
48.770        20
48.780        53
48.790        47
48.800        53
48.810        40
48.820        27
48.830        47
48.840        93
48.850        33
48.860        47
48.870        73
48.880        33
48.890        27
48.900        40
48.910        27
48.920        27
48.930        67
48.940        53
48.950        53
48.960        40
48.970        47
48.980        47
48.990         7
49.000        33
49.010        20
49.020        33
49.030        40
49.040        47
49.050        60
49.060        27
49.070        60
49.080        73
49.090        20
49.100        27
49.110        47
49.120        27
49.130        47
49.140        33
49.150        67
49.160        27
49.170        60
49.180        33
49.190        33
49.200        53
49.210        60
49.220        60
49.230        53
49.240        60
49.250        93
49.260        53
49.270        67
49.280        33
49.290        40
49.300        67
49.310        33
49.320        53
49.330        20
49.340        53
49.350        47
49.360        20
49.370        13
49.380        53
49.390        33
49.400        40
49.410        47
49.420        33
49.430        53
49.440        33
49.450        47
49.460        47
49.470        27
49.480        40
49.490        33
49.500        40
49.510        47
49.520        20
49.530        27
49.540        27
49.550        27
49.560        53
49.570        60
49.580        40
49.590        27
49.600        40
49.610        47
49.620        53
49.630        33
49.640        60
49.650        40
49.660        33
49.670        27
49.680        40
49.690        33
49.700        40
49.710        27
49.720        33
49.730        33
49.740        47
49.750        27
49.760        27
49.770        73
49.780        47
49.790        27
49.800        27
49.810        33
49.820        47
49.830        60
49.840        33
49.850        47
49.860        60
49.870        20
49.880        67
49.890        13
49.900        33
49.910        60
49.920        40
49.930        13
49.940        60
49.950        60
49.960        33
49.970        40
49.980        13
49.990        33
50.000        60
50.010        40
50.020        47
50.030        47
50.040        47
50.050        47
50.060        60
50.070        13
50.080        20
50.090        60
50.100        53
50.110        40
50.120        27
50.130        40
50.140        47
50.150        53
50.160         7
50.170        40
50.180        20
50.190        47
50.200        67
50.210        40
50.220        40
50.230        33
50.240        47
50.250        53
50.260        40
50.270        20
50.280        67
50.290        27
50.300        67
50.310        53
50.320        13
50.330        60
50.340        53
50.350        53
50.360        40
50.370        40
50.380        27
50.390        20
50.400        33
50.410        40
50.420        40
50.430        27
50.440        47
50.450        40
50.460        40
50.470        27
50.480        40
50.490        47
50.500        60
50.510        60
50.520        27
50.530        20
50.540        60
50.550        40
50.560        40
50.570        53
50.580        80
50.590        47
50.600        47
50.610        33
50.620        53
50.630        80
50.640        60
50.650        53
50.660       147
50.670       147
50.680        93
50.690       180
50.700       200
50.710       127
50.720       187
50.730       287
50.740       247
50.750       273
50.760       313
50.770       220
50.780       320
50.790       287
50.800       327
50.810       280
50.820       307
50.830       227
50.840       253
50.850       360
50.860       347
50.870       227
50.880       300
50.890       260
50.900       240
50.910       280
50.920       313
50.930       293
50.940       367
50.950       327
50.960       307
50.970       333
50.980       253
50.990       307
51.000       293
51.010       273
51.020       320
51.030       233
51.040       273
51.050       333
51.060       280
51.070       347
51.080       273
51.090       333
51.100       287
51.110       293
51.120       307
51.130       293
51.140       267
51.150       307
51.160       193
51.170       380
51.180       207
51.190       273
51.200       273
51.210       320
51.220       320
51.230       273
51.240       280
51.250       300
51.260       240
51.270       227
51.280       273
51.290       267
51.300       267
51.310       293
51.320       267
51.330       320
51.340       333
51.350       213
51.360       220
51.370       380
51.380       260
51.390       273
51.400       327
51.410       260
51.420       273
51.430       347
51.440       387
51.450       307
51.460       287
51.470       287
51.480       247
51.490       353
51.500       327
51.510       327
51.520       333
51.530       347
51.540       300
51.550       413
51.560       313
51.570       327
51.580       247
51.590       220
51.600       347
51.610       320
51.620       320
51.630       267
51.640       273
51.650       293
51.660       347
51.670       320
51.680       220
51.690       380
51.700       327
51.710       387
51.720       200
51.730       307
51.740       287
51.750       327
51.760       293
51.770       400
51.780       360
51.790       420
51.800       273
51.810       400
51.820       393
51.830       460
51.840       280
51.850       347
51.860       373
51.870       360
51.880       380
51.890       367
51.900       320
51.910       333
51.920       293
51.930       466
51.940       387
51.950       320
51.960       420
51.970       327
51.980       426
51.990       373
52.000       380
52.010       367
52.020       500
52.030       413
52.040       420
52.050       473
52.060       473
52.070       400
52.080       480
52.090       493
52.100       460
52.110       453
52.120       380
52.130       520
52.140       566
52.150       633
52.160       606
52.170       566
52.180       540
52.190       693
52.200       693
52.210       693
52.220       640
52.230       646
52.240       760
52.250       800
52.260       853
52.270       813
52.280       953
52.290       986
52.300      1193
52.310      1220
52.320      1566
52.330      1599
52.340      1939
52.350      2346
52.360      2892
52.370      2992
52.380      3559
52.390      3945
52.400      4472
52.410      4838
52.420      5325
52.430      5844
52.440      6324
52.450      7037
52.460      6991
52.470      7664
52.480      7764
52.490      8317
52.500      9223
52.510     10336
52.520     11749
52.530     12935
52.540     16433
52.550     21491
52.560     31281
52.570     49867
52.580     73804
52.590     98047
52.600    117573
52.610    131267
52.620    134326
52.630    134286
52.640    125843
52.650    104158
52.660     79175
52.670     53579
52.680     36279
52.690     28562
52.700     28835
52.710     35059
52.720     44922
52.730     56757
52.740     67260
52.750     73904
52.760     77236
52.770     74437
52.780     68039
52.790     56711
52.800     40490
52.810     27769
52.820     17813
52.830     11229
52.840      8497
52.850      6517
52.860      5718
52.870      4998
52.880      3985
52.890      3492
52.900      2879
52.910      2519
52.920      2119
52.930      1773
52.940      1893
52.950      1646
52.960      1526
52.970      1366
52.980      1013
52.990      1206
53.000      1113
53.010      1000
53.020       893
53.030      1026
53.040       833
53.050       993
53.060       993
53.070       793
53.080       773
53.090       846
53.100       740
53.110       713
53.120       706
53.130       753
53.140       560
53.150       646
53.160       560
53.170       626
53.180       520
53.190       520
53.200       486
53.210       540
53.220       520
53.230       533
53.240       533
53.250       593
53.260       540
53.270       426
53.280       566
53.290       453
53.300       420
53.310       593
53.320       426
53.330       473
53.340       466
53.350       486
53.360       353
53.370       473
53.380       387
53.390       373
53.400       506
53.410       453
53.420       413
53.430       446
53.440       340
53.450       367
53.460       393
53.470       393
53.480       400
53.490       380
53.500       367
53.510       353
53.520       340
53.530       273
53.540       333
53.550       320
53.560       340
53.570       373
53.580       360
53.590       380
53.600       260
53.610       273
53.620       333
53.630       340
53.640       287
53.650       340
53.660       280
53.670       260
53.680       267
53.690       287
53.700       247
53.710       347
53.720       220
53.730       273
53.740       353
53.750       293
53.760       340
53.770       380
53.780       300
53.790       313
53.800       253
53.810       327
53.820       373
53.830       240
53.840       267
53.850       180
53.860       293
53.870       267
53.880       320
53.890       220
53.900       267
53.910       273
53.920       307
53.930       240
53.940       253
53.950       287
53.960       253
53.970       247
53.980       267
53.990       287
54.000       340
54.010       267
54.020       193
54.030       260
54.040       253
54.050       260
54.060       247
54.070       307
54.080       287
54.090       300
54.100       253
54.110       180
54.120       300
54.130       267
54.140       200
54.150       233
54.160       240
54.170       200
54.180       293
54.190       220
54.200       213
54.210       260
54.220       173
54.230       173
54.240       273
54.250       220
54.260       200
54.270       187
54.280       233
54.290       220
54.300       227
54.310       220
54.320       167
54.330       213
54.340       227
54.350       200
54.360       193
54.370       293
54.380       260
54.390       247
54.400       207
54.410       193
54.420       273
54.430       213
54.440       273
54.450       147
54.460       187
54.470       240
54.480       213
54.490       193
54.500       227
54.510       167
54.520       187
54.530       167
54.540       187
54.550       173
54.560       220
54.570       200
54.580       187
54.590       287
54.600       207
54.610       220
54.620       160
54.630       267
54.640       240
54.650       213
54.660       173
54.670       207
54.680       240
54.690       260
54.700       247
54.710       193
54.720       293
54.730       193
54.740       167
54.750       240
54.760       147
54.770       293
54.780       193
54.790       227
54.800       247
54.810       213
54.820       173
54.830       213
54.840       167
54.850       193
54.860       253
54.870       120
54.880       213
54.890       147
54.900       173
54.910       227
54.920       233
54.930       200
54.940       173
54.950       167
54.960       207
54.970       120
54.980       180
54.990       193
55.000       233
55.010       193
55.020       167
55.030       140
55.040       147
55.050       213
55.060       160
55.070       167
55.080       187
55.090       173
55.100       207
55.110       247
55.120       240
55.130       233
55.140       193
55.150       187
55.160       147
55.170       147
55.180       207
55.190       247
55.200       220
55.210       233
55.220       160
55.230       133
55.240       193
55.250       213
55.260       173
55.270       167
55.280       180
55.290       267
55.300       180
55.310       187
55.320       180
55.330       193
55.340       160
55.350       147
55.360       187
55.370       133
55.380       200
55.390       180
55.400       173
55.410       173
55.420       200
55.430       187
55.440       113
55.450       127
55.460       213
55.470       220
55.480       147
55.490       113
55.500       227
55.510       153
55.520       153
55.530       220
55.540       207
55.550       113
55.560       193
55.570       187
55.580       200
55.590       187
55.600       187
55.610       240
55.620       160
55.630       153
55.640       113
55.650       213
55.660       127
55.670       193
55.680       147
55.690       207
55.700       147
55.710       193
55.720       160
55.730       113
55.740       213
55.750       167
55.760       140
55.770       133
55.780       160
55.790       120
55.800       113
55.810       147
55.820       173
55.830       120
55.840       147
55.850       147
55.860       180
55.870       160
55.880       127
55.890       180
55.900       200
55.910       220
55.920       133
55.930       133
55.940       147
55.950       187
55.960       147
55.970       227
55.980       253
55.990       107
56.000       180
56.010       147
56.020       100
56.030       160
56.040       173
56.050       113
56.060       140
56.070       133
56.080       180
56.090       187
56.100       147
56.110       193
56.120       147
56.130       147
56.140       100
56.150       173
56.160       160
56.170       140
56.180       160
56.190       127
56.200       213
56.210       140
56.220       180
56.230       153
56.240       107
56.250       167
56.260       153
56.270       193
56.280       113
56.290       187
56.300       233
56.310       167
56.320       187
56.330       120
56.340       120
56.350       180
56.360       153
56.370       127
56.380       240
56.390       213
56.400       113
56.410       173
56.420       147
56.430       120
56.440       173
56.450       147
56.460       160
56.470       187
56.480       140
56.490       107
56.500       120
56.510       167
56.520       213
56.530       207
56.540       153
56.550       160
56.560       140
56.570       140
56.580       133
56.590       153
56.600       167
56.610       173
56.620       120
56.630       160
56.640       113
56.650       133
56.660       113
56.670       100
56.680       133
56.690       167
56.700       147
56.710       153
56.720       133
56.730       140
56.740       127
56.750       133
56.760       147
56.770       113
56.780       133
56.790       113
56.800       147
56.810       100
56.820       167
56.830       140
56.840       113
56.850       147
56.860       147
56.870       127
56.880       113
56.890       140
56.900       140
56.910       147
56.920       147
56.930       127
56.940       200
56.950       127
56.960       160
56.970       153
56.980       167
56.990       113
57.000       133
57.010        87
57.020       200
57.030       147
57.040       100
57.050       127
57.060       167
57.070       127
57.080        87
57.090       133
57.100        53
57.110       153
57.120       153
57.130       113
57.140       113
57.150       120
57.160       140
57.170       187
57.180       167
57.190       127
57.200       173
57.210       100
57.220        93
57.230       100
57.240       140
57.250       107
57.260       120
57.270       120
57.280       120
57.290       147
57.300       153
57.310       100
57.320       153
57.330       153
57.340       120
57.350       107
57.360       133
57.370       133
57.380        80
57.390       133
57.400        60
57.410       120
57.420       140
57.430       127
57.440       133
57.450       133
57.460       187
57.470       127
57.480       100
57.490       140
57.500       160
57.510       193
57.520        93
57.530       127
57.540       173
57.550       133
57.560       107
57.570       147
57.580       113
57.590       120
57.600       100
57.610       127
57.620       113
57.630        93
57.640       167
57.650       100
57.660       160
57.670       173
57.680       153
57.690        73
57.700       173
57.710       133
57.720       160
57.730       153
57.740       133
57.750       167
57.760       107
57.770       160
57.780       147
57.790       140
57.800       107
57.810        87
57.820       187
57.830       200
57.840       140
57.850       147
57.860       133
57.870        67
57.880       127
57.890       107
57.900       127
57.910       153
57.920       140
57.930       147
57.940       153
57.950       153
57.960        73
57.970       120
57.980       107
57.990       147
58.000       127
58.010       147
58.020       173
58.030       140
58.040       107
58.050       147
58.060       167
58.070       147
58.080       133
58.090       173
58.100       140
58.110       107
58.120       120
58.130       127
58.140       113
58.150       167
58.160       133
58.170       113
58.180       140
58.190        80
58.200       153
58.210       153
58.220        73
58.230        67
58.240        60
58.250       133
58.260       100
58.270       153
58.280       133
58.290       113
58.300       100
58.310        73
58.320       100
58.330       147
58.340        93
58.350       153
58.360       107
58.370       100
58.380       133
58.390        60
58.400       107
58.410       167
58.420        73
58.430       193
58.440       107
58.450       140
58.460       100
58.470       160
58.480       120
58.490       140
58.500       113
58.510        93
58.520       100
58.530       160
58.540        87
58.550       147
58.560        87
58.570        80
58.580       107
58.590       120
58.600       127
58.610       140
58.620       120
58.630       153
58.640       147
58.650        93
58.660        67
58.670       127
58.680       127
58.690       127
58.700       133
58.710       147
58.720       200
58.730        87
58.740        93
58.750        87
58.760       113
58.770       160
58.780       113
58.790        93
58.800       107
58.810        87
58.820        80
58.830        87
58.840        67
58.850        53
58.860       107
58.870       113
58.880       127
58.890       120
58.900       107
58.910       107
58.920       113
58.930        60
58.940       127
58.950       120
58.960        80
58.970        80
58.980       120
58.990       100
59.000       167
59.010       107
59.020        60
59.030       120
59.040       120
59.050       100
59.060       127
59.070       127
59.080       107
59.090       120
59.100       140
59.110        93
59.120       120
59.130        87
59.140        93
59.150       107
59.160        67
59.170       133
59.180       120
59.190       127
59.200        87
59.210       113
59.220        47
59.230       120
59.240        67
59.250       160
59.260       147
59.270        60
59.280       127
59.290       133
59.300       107
59.310        67
59.320        73
59.330       113
59.340        93
59.350       107
59.360       120
59.370       100
59.380        80
59.390        87
59.400        93
59.410        60
59.420        87
59.430       120
59.440        87
59.450       120
59.460        73
59.470        93
59.480        87
59.490        60
59.500        67
59.510       100
59.520       100
59.530       133
59.540        87
59.550        53
59.560        80
59.570       107
59.580        87
59.590        87
59.600        60
59.610       180
59.620       120
59.630        80
59.640       160
59.650        80
59.660       140
59.670       100
59.680        80
59.690       120
59.700       120
59.710        93
59.720       113
59.730        93
59.740        80
59.750        93
59.760       107
59.770       113
59.780        93
59.790       100
59.800       160
59.810        27
59.820       113
59.830       120
59.840       100
59.850        93
59.860        60
59.870        93
59.880       127
59.890       100
59.900       100
59.910        67
59.920       107
59.930       113
59.940       107
59.950       127
59.960        60
59.970        80
59.980       133
59.990        80
60.000       133
