20.000        33
20.010        33
20.020        67
20.030        33
20.040        60
20.050        40
20.060        60
20.070        60
20.080        40
20.090         7
20.100        53
20.110        60
20.120        80
20.130        33
20.140        20
20.150        60
20.160        33
20.170        33
20.180        27
20.190        40
20.200        33
20.210        80
20.220        20
20.230        33
20.240        27
20.250        40
20.260        27
20.270        53
20.280        20
20.290        53
20.300        27
20.310        80
20.320        47
20.330        40
20.340        40
20.350        13
20.360        40
20.370        67
20.380        73
20.390        40
20.400        13
20.410        40
20.420        33
20.430        47
20.440        60
20.450        33
20.460        33
20.470        47
20.480        40
20.490        13
20.500        47
20.510        47
20.520        53
20.530        40
20.540        20
20.550        27
20.560        47
20.570        27
20.580        40
20.590        33
20.600        27
20.610        33
20.620        60
20.630        40
20.640        40
20.650        40
20.660        53
20.670        33
20.680        40
20.690        60
20.700        40
20.710        13
20.720        47
20.730        47
20.740        40
20.750        20
20.760        67
20.770        33
20.780        53
20.790        40
20.800        27
20.810        27
20.820        53
20.830        20
20.840        20
20.850        40
20.860        33
20.870        40
20.880        40
20.890        33
20.900        60
20.910        27
20.920        53
20.930        13
20.940        40
20.950        53
20.960        73
20.970        53
20.980        33
20.990        47
21.000        40
21.010        47
21.020        13
21.030        20
21.040        60
21.050        67
21.060        20
21.070        47
21.080        40
21.090        47
21.100        33
21.110        47
21.120        27
21.130        40
21.140        67
21.150        40
21.160        53
21.170        27
21.180        20
21.190        33
21.200        40
21.210        20
21.220        47
21.230        20
21.240        47
21.250        20
21.260        53
21.270        27
21.280        40
21.290        53
21.300        47
21.310        40
21.320        53
21.330         7
21.340        47
21.350        33
21.360        80
21.370        20
21.380        33
21.390        47
21.400        33
21.410        27
21.420        33
21.430        53
21.440        40
21.450        27
21.460        47
21.470        33
21.480        33
21.490       100
21.500        27
21.510        20
21.520        33
21.530        20
21.540        20
21.550        40
21.560        53
21.570        33
21.580        20
21.590        33
21.600        20
21.610        47
21.620        27
21.630        73
21.640        27
21.650        53
21.660        27
21.670        40
21.680        13
21.690        13
21.700        67
21.710        20
21.720        53
21.730        60
21.740        33
21.750        40
21.760        53
21.770        40
21.780        60
21.790        20
21.800        47
21.810        40
21.820        47
21.830        27
21.840        33
21.850        53
21.860        13
21.870        67
21.880        67
21.890        27
21.900        60
21.910        67
21.920        13
21.930        80
21.940        20
21.950        47
21.960        20
21.970        47
21.980        40
21.990        33
22.000        53
22.010        33
22.020        33
22.030         7
22.040        27
22.050        33
22.060        47
22.070        33
22.080        60
22.090        60
22.100        47
22.110        33
22.120        40
22.130        33
22.140        33
22.150        33
22.160        47
22.170        60
22.180        53
22.190        13
22.200        53
22.210        33
22.220        47
22.230        20
22.240        67
22.250        40
22.260        20
22.270        33
22.280        40
22.290        40
22.300        53
22.310        60
22.320        40
22.330        27
22.340        33
22.350        47
22.360        33
22.370        40
22.380        53
22.390        20
22.400        20
22.410        33
22.420        33
22.430        20
22.440        27
22.450        33
22.460        27
22.470        40
22.480        27
22.490        20
22.500        73
22.510        53
22.520        27
22.530        33
22.540        20
22.550        13
22.560        33
22.570        33
22.580        40
22.590        40
22.600        73
22.610        27
22.620        87
22.630        67
22.640        20
22.650        33
22.660        27
22.670        33
22.680        27
22.690        47
22.700        27
22.710        20
22.720        20
22.730        20
22.740        13
22.750        13
22.760        40
22.770        13
22.780        27
22.790        40
22.800        40
22.810        20
22.820        33
22.830        20
22.840        67
22.850        27
22.860        20
22.870         7
22.880        20
22.890        27
22.900        13
22.910        27
22.920        20
22.930        40
22.940        67
22.950        47
22.960        33
22.970         7
22.980        40
22.990        27
23.000        13
23.010        13
23.020        40
23.030        27
23.040        33
23.050        60
23.060        40
23.070        27
23.080        53
23.090        27
23.100        27
23.110        20
23.120        20
23.130        27
23.140        33
23.150         7
23.160        27
23.170        33
23.180        27
23.190        27
23.200        20
23.210        20
23.220        27
23.230        47
23.240        53
23.250        40
23.260        33
23.270        20
23.280        27
23.290        33
23.300        40
23.310        40
23.320        13
23.330        53
23.340        67
23.350        20
23.360        87
23.370        40
23.380        67
23.390        27
23.400        20
23.410         7
23.420        20
23.430        40
23.440        20
23.450        27
23.460        20
23.470        27
23.480        27
23.490        20
23.500        13
23.510        20
23.520        27
23.530        20
23.540        40
23.550        27
23.560        27
23.570        40
23.580        27
23.590        27
23.600        47
23.610        13
23.620        60
23.630        33
23.640        20
23.650        40
23.660        33
23.670        53
23.680        13
23.690        20
23.700        20
23.710        53
23.720        40
23.730        27
23.740         7
23.750        47
23.760        13
23.770        67
23.780        47
23.790        67
23.800        13
23.810        13
23.820        27
23.830        20
23.840        27
23.850        13
23.860        13
23.870        40
23.880        13
23.890        27
23.900        33
23.910        33
23.920        33
23.930        20
23.940        40
23.950        13
23.960        27
23.970        53
23.980         7
23.990        27
24.000        13
24.010        27
24.020        67
24.030        40
24.040        40
24.050        53
24.060        33
24.070        20
24.080        33
24.090        53
24.100        20
24.110        13
24.120        20
24.130        13
24.140        27
24.150        47
24.160         7
24.170        33
24.180        40
24.190        20
24.200        33
24.210        27
24.220        40
24.230        40
24.240        20
24.250        20
24.260        33
24.270        13
24.280        47
24.290        27
24.300        20
24.310        20
24.320        20
24.330         7
24.340        27
24.350        20
24.360         7
24.370        27
24.380        27
24.390        27
24.400         7
24.410         7
24.420        27
24.430        47
24.440        47
24.450        33
24.460        20
24.470        40
24.480        13
24.490        47
24.500        40
24.510        33
24.520        13
24.530        20
24.540        27
24.550        47
24.560        40
24.570        20
24.580        33
24.590        20
24.600        27
24.610        33
24.620        20
24.630        33
24.640        20
24.650        27
24.660        33
24.670        13
24.680        53
24.690        27
24.700        33
24.710         0
24.720        40
24.730        20
24.740        20
24.750        40
24.760        27
24.770        33
24.780        40
24.790        60
24.800        60
24.810        33
24.820        33
24.830        20
24.840        13
24.850        33
24.860        40
24.870        13
24.880        80
24.890        47
24.900        20
24.910        13
24.920        20
24.930        13
24.940        20
24.950        27
24.960        27
24.970        20
24.980        40
24.990        27
25.000        33
25.010        40
25.020        20
25.030        20
25.040        27
25.050        40
25.060        27
25.070        20
25.080        27
25.090        13
25.100        13
25.110        73
25.120        33
25.130        27
25.140        27
25.150        33
25.160        33
25.170        33
25.180        33
25.190        20
25.200        13
25.210        27
25.220        40
25.230        47
25.240        80
25.250        47
25.260         7
25.270        47
25.280        20
25.290        20
25.300        20
25.310        20
25.320        40
25.330        20
25.340        40
25.350        27
25.360        20
25.370        33
25.380        53
25.390        40
25.400        20
25.410        13
25.420        40
25.430        27
25.440        60
25.450        33
25.460         7
25.470        27
25.480         7
25.490        13
25.500        33
25.510        27
25.520        47
25.530        53
25.540        27
25.550        27
25.560        33
25.570        27
25.580        33
25.590        13
25.600        47
25.610        40
25.620        40
25.630        33
25.640        27
25.650        33
25.660        20
25.670        20
25.680        20
25.690        67
25.700        20
25.710        33
25.720        27
25.730        13
25.740        27
25.750        47
25.760        27
25.770        40
25.780        27
25.790        20
25.800        13
25.810        27
25.820        33
25.830        13
25.840        13
25.850        27
25.860        40
25.870        27
25.880        47
25.890        20
25.900        13
25.910        33
25.920        13
25.930        20
25.940        13
25.950        27
25.960         7
25.970        60
25.980        33
25.990        20
26.000        20
26.010        20
26.020        20
26.030        33
26.040        33
26.050        13
26.060        40
26.070        47
26.080        20
26.090        33
26.100        27
26.110        13
26.120        33
26.130         7
26.140        13
26.150        40
26.160        20
26.170        27
26.180        33
26.190        27
26.200        40
26.210         7
26.220        33
26.230        47
26.240        33
26.250        40
26.260        20
26.270        47
26.280        13
26.290        27
26.300        53
26.310        27
26.320        27
26.330        27
26.340        33
26.350        33
26.360        40
26.370        27
26.380        47
26.390        27
26.400        20
26.410        47
26.420        40
26.430        53
26.440        20
26.450        53
26.460        13
26.470        33
26.480        13
26.490        27
26.500        33
26.510        20
26.520        13
26.530        20
26.540         7
26.550        40
26.560        53
26.570        27
26.580        27
26.590        40
26.600        67
26.610        40
26.620        33
26.630        27
26.640        40
26.650        27
26.660        27
26.670        73
26.680        20
26.690        27
26.700        13
26.710         7
26.720        40
26.730        27
26.740        40
26.750         7
26.760        13
26.770        47
26.780        53
26.790        33
26.800        27
26.810        27
26.820         7
26.830        27
26.840        33
26.850        20
26.860        13
26.870         0
26.880        27
26.890        13
26.900        60
26.910        20
26.920        47
26.930        20
26.940        33
26.950        27
26.960        33
26.970        40
26.980        13
26.990        20
27.000        27
27.010         7
27.020        40
27.030        20
27.040         0
27.050        27
27.060        27
27.070         7
27.080        27
27.090        33
27.100        27
27.110        13
27.120        27
27.130        27
27.140        20
27.150        47
27.160        33
27.170        20
27.180        13
27.190        33
27.200        13
27.210        47
27.220        67
27.230        20
27.240        33
27.250        27
27.260        27
27.270        27
27.280        13
27.290        27
27.300        13
27.310        13
27.320        13
27.330        20
27.340        13
27.350        20
27.360        20
27.370        13
27.380        33
27.390        20
27.400        33
27.410        20
27.420        27
27.430        13
27.440        27
27.450        40
27.460        33
27.470        20
27.480        27
27.490        20
27.500        27
27.510        33
27.520        20
27.530        33
27.540        13
27.550        33
27.560        33
27.570        20
27.580        13
27.590        13
27.600        33
27.610         7
27.620        13
27.630        27
27.640        20
27.650        13
27.660        13
27.670        27
27.680        20
27.690         7
27.700         7
27.710        20
27.720        20
27.730        33
27.740        47
27.750        20
27.760        20
27.770        27
27.780        20
27.790        27
27.800         7
27.810        13
27.820        20
27.830        20
27.840        20
27.850        13
27.860        40
27.870        33
27.880        13
27.890        33
27.900        40
27.910        27
27.920         7
27.930        20
27.940        47
27.950        20
27.960        13
27.970        20
27.980        27
27.990        20
28.000        47
28.010        13
28.020        27
28.030        47
28.040        40
28.050        40
28.060        47
28.070        47
28.080        27
28.090        33
28.100        33
28.110        40
28.120        33
28.130        53
28.140        53
28.150         7
28.160        53
28.170        40
28.180        80
28.190        47
28.200        27
28.210        53
28.220        33
28.230        40
28.240        53
28.250        47
28.260        53
28.270        60
28.280        27
28.290        33
28.300        60
28.310        33
28.320        47
28.330        27
28.340        13
28.350        20
28.360        20
28.370        33
28.380         7
28.390        20
28.400        27
28.410        13
28.420        40
28.430        27
28.440        20
28.450         7
28.460        27
28.470        47
28.480        27
28.490         7
28.500         7
28.510        27
28.520         7
28.530        20
28.540        40
28.550        47
28.560        13
28.570        33
28.580        20
28.590        27
28.600        27
28.610        13
28.620        27
28.630        20
28.640        33
28.650        33
28.660        33
28.670        13
28.680        20
28.690        60
28.700        13
28.710         7
28.720        60
28.730        20
28.740        13
28.750        33
28.760        20
28.770        13
28.780        20
28.790        33
28.800        13
28.810        27
28.820         7
28.830         0
28.840         0
28.850        33
28.860        33
28.870        20
28.880        13
28.890        20
28.900         7
28.910        40
28.920        27
28.930        20
28.940        27
28.950        20
28.960        20
28.970        13
28.980        27
28.990        27
29.000        13
29.010        33
29.020        20
29.030        20
29.040        27
29.050        20
29.060        13
29.070        47
29.080        20
29.090        13
29.100        13
29.110        20
29.120        13
29.130        40
29.140        20
29.150         7
29.160        40
29.170        13
29.180        27
29.190        13
29.200        20
29.210        27
29.220        27
29.230        13
29.240        13
29.250        13
29.260        33
29.270        13
29.280         7
29.290        27
29.300        40
29.310        40
29.320         7
29.330        13
29.340        27
29.350        20
29.360        47
29.370        27
29.380        27
29.390         7
29.400        20
29.410        20
29.420        40
29.430        33
29.440        40
29.450        20
29.460        67
29.470        53
29.480        13
29.490        13
29.500        33
29.510        40
29.520        47
29.530        47
29.540        13
29.550        13
29.560        20
29.570        27
29.580        20
29.590        20
29.600        33
29.610        13
29.620        13
29.630         7
29.640        40
29.650        13
29.660        33
29.670        60
29.680        20
29.690        47
29.700        33
29.710        27
29.720        33
29.730        53
29.740         7
29.750        13
29.760        13
29.770         7
29.780         0
29.790        27
29.800        13
29.810        40
29.820         7
29.830         7
29.840         0
29.850        33
29.860        27
29.870        27
29.880        33
29.890        27
29.900        47
29.910        27
29.920         0
29.930        40
29.940        20
29.950         7
29.960         0
29.970         7
29.980        20
29.990         7
30.000        20
30.010        13
30.020        27
30.030        27
30.040        40
30.050        13
30.060        67
30.070        33
30.080        33
30.090        40
30.100        33
30.110        33
30.120        33
30.130        13
30.140        47
30.150        33
30.160        33
30.170        27
30.180        53
30.190        40
30.200        13
30.210        13
30.220        40
30.230        20
30.240        27
30.250        13
30.260        60
30.270        27
30.280        33
30.290        47
30.300        40
30.310        20
30.320        53
30.330        33
30.340        13
30.350        27
30.360        33
30.370        53
30.380        27
30.390        40
30.400        33
30.410        60
30.420        40
30.430        33
30.440        33
30.450        33
30.460        80
30.470        27
30.480        67
30.490        40
30.500        67
30.510        47
30.520        53
30.530        40
30.540        33
30.550        33
30.560        53
30.570        40
30.580        47
30.590        60
30.600        80
30.610        40
30.620        27
30.630        73
30.640        33
30.650        53
30.660        40
30.670        73
30.680        60
30.690        33
30.700        40
30.710        60
30.720        40
30.730        33
30.740        27
30.750        73
30.760        40
30.770        93
30.780        40
30.790        40
30.800        67
30.810        73
30.820        80
30.830        53
30.840        60
30.850        67
30.860        53
30.870        67
30.880       100
30.890       140
30.900        93
30.910        93
30.920       100
30.930       127
30.940       133
30.950       153
30.960       153
30.970       240
30.980       267
30.990       240
31.000       287
31.010       287
31.020       320
31.030       373
31.040       526
31.050       553
31.060       513
31.070       780
31.080       713
31.090       853
31.100       800
31.110      1053
31.120      1133
31.130      1399
31.140      1499
31.150      1746
31.160      2039
31.170      2092
31.180      2306
31.190      2639
31.200      2899
31.210      2939
31.220      3179
31.230      3179
31.240      3079
31.250      3252
31.260      3279
31.270      3159
31.280      3212
31.290      2839
31.300      2819
31.310      2492
31.320      2526
31.330      2286
31.340      2112
31.350      1979
31.360      1559
31.370      1406
31.380      1459
31.390      1499
31.400      1180
31.410      1093
31.420      1006
31.430       880
31.440       920
31.450       760
31.460       713
31.470       513
31.480       620
31.490       453
31.500       360
31.510       360
31.520       260
31.530       280
31.540       207
31.550       220
31.560       147
31.570       167
31.580       180
31.590       100
31.600       133
31.610        93
31.620       127
31.630       113
31.640       127
31.650       107
31.660        93
31.670        20
31.680        87
31.690        87
31.700       100
31.710        93
31.720        73
31.730        53
31.740        53
31.750        40
31.760        53
31.770        47
31.780        60
31.790        47
31.800        73
31.810        27
31.820        47
31.830        73
31.840        53
31.850        40
31.860        87
31.870        73
31.880        27
31.890        53
31.900        67
31.910        73
31.920        53
31.930        40
31.940        40
31.950        80
31.960        53
31.970        53
31.980        53
31.990        40
32.000        33
32.010        47
32.020        47
32.030        27
32.040        33
32.050        33
32.060        33
32.070        73
32.080         7
32.090        33
32.100        40
32.110        33
32.120        40
32.130        33
32.140        33
32.150        33
32.160        47
32.170        47
32.180        33
32.190        47
32.200        27
32.210        60
32.220        47
32.230        40
32.240        20
32.250        60
32.260        40
32.270        33
32.280        47
32.290        47
32.300        13
32.310        33
32.320        33
32.330        47
32.340        33
32.350        53
32.360        47
32.370        27
32.380        33
32.390        47
32.400        40
32.410        40
32.420        60
32.430         7
32.440        67
32.450        33
32.460        20
32.470        27
32.480        60
32.490        40
32.500        27
32.510        27
32.520        27
32.530        27
32.540        47
32.550        20
32.560        20
32.570        20
32.580        47
32.590        33
32.600        27
32.610        33
32.620        27
32.630        40
32.640        67
32.650        13
32.660        40
32.670        13
32.680        27
32.690        40
32.700        27
32.710         7
32.720        53
32.730        27
32.740        13
32.750        20
32.760        27
32.770        27
32.780        40
32.790        27
32.800        27
32.810        33
32.820        40
32.830        20
32.840        40
32.850         0
32.860        40
32.870        20
32.880        53
32.890        20
32.900        20
32.910        27
32.920        20
32.930        67
32.940        33
32.950        20
32.960        13
32.970         7
32.980        27
32.990        33
33.000        27
33.010        13
33.020        33
33.030        20
33.040        53
33.050        47
33.060         7
33.070        33
33.080        20
33.090         7
33.100        13
33.110        20
33.120        40
33.130        40
33.140        33
33.150        33
33.160        13
33.170        33
33.180        40
33.190        40
33.200        13
33.210        13
33.220        20
33.230        33
33.240        33
33.250        27
33.260        33
33.270        33
33.280        20
33.290        27
33.300        60
33.310        27
33.320        27
33.330        20
33.340        33
33.350        60
33.360        27
33.370        20
33.380        53
33.390        33
33.400        33
33.410        13
33.420        13
33.430        27
33.440        27
33.450        20
33.460         7
33.470        47
33.480        27
33.490        27
33.500        33
33.510        20
33.520        20
33.530        40
33.540        33
33.550        53
33.560        20
33.570         7
33.580        20
33.590        13
33.600        13
33.610        40
33.620        27
33.630        27
33.640        33
33.650        13
33.660        27
33.670        27
33.680        20
33.690        13
33.700        47
33.710        13
33.720        40
33.730        20
33.740         7
33.750        20
33.760        13
33.770        40
33.780         7
33.790        40
33.800        20
33.810        27
33.820        27
33.830        27
33.840        27
33.850        33
33.860        13
33.870        33
33.880        27
33.890        40
33.900        13
33.910        27
33.920        13
33.930         7
33.940        33
33.950        20
33.960        20
33.970        27
33.980        33
33.990        33
34.000        40
34.010        27
34.020        33
34.030        47
34.040        27
34.050        33
34.060        47
34.070        20
34.080        20
34.090        27
34.100        27
34.110        13
34.120        13
34.130        20
34.140         7
34.150        33
34.160         7
34.170        33
34.180        20
34.190        13
34.200        27
34.210        27
34.220        33
34.230        27
34.240        27
34.250        47
34.260        40
34.270        20
34.280        20
34.290        20
34.300        13
34.310        20
34.320        20
34.330        33
34.340        20
34.350        13
34.360        20
34.370        20
34.380        47
34.390        40
34.400        27
34.410        20
34.420        13
34.430        27
34.440        27
34.450        20
34.460        20
34.470        27
34.480        40
34.490        27
34.500        53
34.510        40
34.520        20
34.530        53
34.540        13
34.550        27
34.560        20
34.570        13
34.580        27
34.590        33
34.600        13
34.610        27
34.620        33
34.630        40
34.640        53
34.650        13
34.660        40
34.670        20
34.680        20
34.690        33
34.700        20
34.710        13
34.720        40
34.730        27
34.740        33
34.750        40
34.760        33
34.770        40
34.780        27
34.790        13
34.800        27
34.810        40
34.820        13
34.830        47
34.840        27
34.850        13
34.860        20
34.870        33
34.880        13
34.890        20
34.900        60
34.910        27
34.920        40
34.930        13
34.940        40
34.950         0
34.960        53
34.970        20
34.980        40
34.990        40
35.000        13
35.010        40
35.020         7
35.030        27
35.040        20
35.050        33
35.060        20
35.070        20
35.080        20
35.090         0
35.100        40
35.110        40
35.120        53
35.130        40
35.140        60
35.150        47
35.160        67
35.170        73
35.180        93
35.190        80
35.200        60
35.210        53
35.220        53
35.230        67
35.240        40
35.250        40
35.260        47
35.270        67
35.280        33
35.290        13
35.300        47
35.310        53
35.320        33
35.330        27
35.340        20
35.350        33
35.360        27
35.370        60
35.380        13
35.390        20
35.400        27
35.410        47
35.420         7
35.430        27
35.440        13
35.450        13
35.460        33
35.470         7
35.480        33
35.490        27
35.500        20
35.510        20
35.520        20
35.530        33
35.540        20
35.550        53
35.560        13
35.570        20
35.580         0
35.590        20
35.600        33
35.610        40
35.620        13
35.630        13
35.640        13
35.650        20
35.660        20
35.670        13
35.680        13
35.690        20
35.700        13
35.710        40
35.720        47
35.730        13
35.740        47
35.750         0
35.760        33
35.770        33
35.780        13
35.790         7
35.800        27
35.810        27
35.820        27
35.830        33
35.840        33
35.850        40
35.860        20
35.870        20
35.880        13
35.890         7
35.900        20
35.910        13
35.920        47
35.930        20
35.940        13
35.950        13
35.960        47
35.970        27
35.980         7
35.990        20
36.000        13
36.010        13
36.020        33
36.030        20
36.040        27
36.050        47
36.060        33
36.070         0
36.080         7
36.090        13
36.100        20
36.110         7
36.120         0
36.130        47
36.140        27
36.150        13
36.160        20
36.170        13
36.180         7
36.190        27
36.200        33
36.210        33
36.220        27
36.230        13
36.240         7
36.250        47
36.260        20
36.270        33
36.280        27
36.290        27
36.300         7
36.310        40
36.320        27
36.330        53
36.340        20
36.350        33
36.360        13
36.370        33
36.380        13
36.390        40
36.400         7
36.410        20
36.420        13
36.430        33
36.440        27
36.450        20
36.460         0
36.470        20
36.480        27
36.490        13
36.500        13
36.510         0
36.520         7
36.530         7
36.540        27
36.550        20
36.560        13
36.570        13
36.580        40
36.590        20
36.600        27
36.610         7
36.620        53
36.630        47
36.640        20
36.650        27
36.660        13
36.670        27
36.680        27
36.690         7
36.700         7
36.710        20
36.720        20
36.730        47
36.740        13
36.750        13
36.760        33
36.770        20
36.780        20
36.790         7
36.800        20
36.810        20
36.820        20
36.830        33
36.840        53
36.850        27
36.860        13
36.870        27
36.880        33
36.890        13
36.900        13
36.910        20
36.920        27
36.930        33
36.940        33
36.950        33
36.960        27
36.970        13
36.980         0
36.990        27
37.000        13
37.010        33
37.020        13
37.030        20
37.040        27
37.050        20
37.060        53
37.070        13
37.080        20
37.090        27
37.100        27
37.110        33
37.120        27
37.130        27
37.140        13
37.150         7
37.160        40
37.170        67
37.180        40
37.190        27
37.200        47
37.210        33
37.220        13
37.230        40
37.240        33
37.250        13
37.260        67
37.270         7
37.280        33
37.290        13
37.300        40
37.310        13
37.320         0
37.330        33
37.340         7
37.350         0
37.360        13
37.370        40
37.380        13
37.390        53
37.400        13
37.410         7
37.420        27
37.430        27
37.440        20
37.450         7
37.460        40
37.470         0
37.480        27
37.490         7
37.500        33
37.510        20
37.520        13
37.530        20
37.540        33
37.550        13
37.560        13
37.570        27
37.580        40
37.590        27
37.600        20
37.610        13
37.620        33
37.630         7
37.640        33
37.650        27
37.660        27
37.670        20
37.680        20
37.690        27
37.700        47
37.710        20
37.720        20
37.730        20
37.740        27
37.750        13
37.760        27
37.770        20
37.780        40
37.790        13
37.800        27
37.810        27
37.820        27
37.830        27
37.840         7
37.850        60
37.860        13
37.870         7
37.880        47
37.890        27
37.900        27
37.910        20
37.920        33
37.930        27
37.940         7
37.950        20
37.960         7
37.970        20
37.980        47
37.990        20
38.000        33
38.010        40
38.020        20
38.030        13
38.040        53
38.050        20
38.060        27
38.070        27
38.080        53
38.090        27
38.100        27
38.110         7
38.120        33
38.130        20
38.140        20
38.150        33
38.160        20
38.170        33
38.180        33
38.190        27
38.200        40
38.210        27
38.220        27
38.230         7
38.240         7
38.250        47
38.260        20
38.270        60
38.280        33
38.290        33
38.300        33
38.310        13
38.320        27
38.330        27
38.340        33
38.350        20
38.360        60
38.370        40
38.380        33
38.390        47
38.400        67
38.410        33
38.420        33
38.430        47
38.440        40
38.450        73
38.460        40
38.470        60
38.480        47
38.490        47
38.500        47
38.510        67
38.520        53
38.530        67
38.540        60
38.550        67
38.560        60
38.570        60
38.580        40
38.590       100
38.600       107
38.610        80
38.620       100
38.630        47
38.640        73
38.650       100
38.660        73
38.670        53
38.680       113
38.690        80
38.700        80
38.710        60
38.720        67
38.730        80
38.740        87
38.750        33
38.760        73
38.770        73
38.780        80
38.790        53
38.800        60
38.810        33
38.820        87
38.830        20
38.840        47
38.850        53
38.860        67
38.870        20
38.880        13
38.890        47
38.900        33
38.910        13
38.920        13
38.930        27
38.940        33
38.950        13
38.960         7
38.970        13
38.980        40
38.990        27
39.000         7
39.010        27
39.020        40
39.030        13
39.040        33
39.050        20
39.060        27
39.070        13
39.080        33
39.090        33
39.100        13
39.110        47
39.120        40
39.130        13
39.140        40
39.150        33
39.160        47
39.170        60
39.180        27
39.190        27
39.200        13
39.210        27
39.220         0
39.230        20
39.240        20
39.250        27
39.260         7
39.270        27
39.280        27
39.290        13
39.300        13
39.310         0
39.320        13
39.330         0
39.340        27
39.350        40
39.360        33
39.370        27
39.380        20
39.390         0
39.400        33
39.410        27
39.420         0
39.430        20
39.440        13
39.450        40
39.460         0
39.470        47
39.480        20
39.490        13
39.500        13
39.510        20
39.520         7
39.530        20
39.540        27
39.550        20
39.560        27
39.570        13
39.580        40
39.590        33
39.600        27
39.610        20
39.620        27
39.630        33
39.640        27
39.650        20
39.660        33
39.670        27
39.680        27
39.690         0
39.700        33
39.710        40
39.720        20
39.730        27
39.740        27
39.750        13
39.760        27
39.770         7
39.780         0
39.790        20
39.800        13
39.810        27
39.820        33
39.830        27
39.840        33
39.850        20
39.860        33
39.870        47
39.880        40
39.890        40
39.900        13
39.910        33
39.920        13
39.930        20
39.940        27
39.950        27
39.960        20
39.970        13
39.980        27
39.990        13
40.000         7
40.010        20
40.020        27
40.030        20
40.040        20
40.050        20
40.060        20
40.070        40
40.080        20
40.090         0
40.100         7
40.110        27
40.120        20
40.130        13
40.140        53
40.150        27
40.160        47
40.170        20
40.180        27
40.190        33
40.200        20
40.210        27
40.220        13
40.230        33
40.240        13
40.250        27
40.260        53
40.270        20
40.280         7
40.290        33
40.300        20
40.310        27
40.320        53
40.330        33
40.340        27
40.350        13
40.360        27
40.370        13
40.380        13
40.390        20
40.400        20
40.410         7
40.420        27
40.430        13
40.440        20
40.450        27
40.460        13
40.470        20
40.480        33
40.490        20
40.500        20
40.510        27
40.520        47
40.530        60
40.540        20
40.550         0
40.560        13
40.570        13
40.580        27
40.590        27
40.600         7
40.610        27
40.620        13
40.630        13
40.640        27
40.650         0
40.660        27
40.670        33
40.680         7
40.690        33
40.700        33
40.710         7
40.720        13
40.730         7
40.740        40
40.750        13
40.760        20
40.770        33
40.780         7
40.790        27
40.800        20
40.810        13
40.820         7
40.830        20
40.840        27
40.850        27
40.860        27
40.870        20
40.880        13
40.890        33
40.900        27
40.910        20
40.920         7
40.930        27
40.940        33
40.950        27
40.960        20
40.970        13
40.980        40
40.990        13
41.000        40
41.010        20
41.020         7
41.030        20
41.040        33
41.050        27
41.060        20
41.070        40
41.080        27
41.090        13
41.100        20
41.110         7
41.120         7
41.130        13
41.140        33
41.150        27
41.160        40
41.170         7
41.180        20
41.190        20
41.200        47
41.210        13
41.220        20
41.230         7
41.240        13
41.250        33
41.260         7
41.270        27
41.280        20
41.290        13
41.300        13
41.310        20
41.320        27
41.330         0
41.340        33
41.350         7
41.360        20
41.370        40
41.380        13
41.390        27
41.400        27
41.410        33
41.420        20
41.430        20
41.440        40
41.450        33
41.460        33
41.470        73
41.480        47
41.490        13
41.500        13
41.510        40
41.520        40
41.530        33
41.540        27
41.550        27
41.560        13
41.570        13
41.580        27
41.590        33
41.600        20
41.610        47
41.620        53
41.630        27
41.640        27
41.650        87
41.660        73
41.670        73
41.680        47
41.690        80
41.700        73
41.710        93
41.720        53
41.730       100
41.740        80
41.750        33
41.760        60
41.770        40
41.780        40
41.790        53
41.800        33
41.810        53
41.820        40
41.830        60
41.840        73
41.850        67
41.860        27
41.870        33
41.880        53
41.890        20
41.900         7
41.910        20
41.920        20
41.930        33
41.940        20
41.950        20
41.960        33
41.970        13
41.980        13
41.990        33
42.000        20
42.010        27
42.020        20
42.030        33
42.040        27
42.050         7
42.060         7
42.070         7
42.080        13
42.090        20
42.100        20
42.110        33
42.120        60
42.130        27
42.140         7
42.150        13
42.160        20
42.170         0
42.180        13
42.190        33
42.200        20
42.210        13
42.220         0
42.230        20
42.240        47
42.250        27
42.260         7
42.270        27
42.280        27
42.290        27
42.300        13
42.310         7
42.320        27
42.330        40
42.340        13
42.350        20
42.360         7
42.370         7
42.380        27
42.390        20
42.400        13
42.410        13
42.420        20
42.430        20
42.440        47
42.450        13
42.460         7
42.470        20
42.480         7
42.490        20
42.500        20
42.510        20
42.520        13
42.530        13
42.540        27
42.550        13
42.560        20
42.570        33
42.580        60
42.590        27
42.600        27
42.610         7
42.620        33
42.630        20
42.640        13
42.650        13
42.660        20
42.670        27
42.680         7
42.690        27
42.700        47
42.710         0
42.720        20
42.730         7
42.740        20
42.750        13
42.760        13
42.770        13
42.780        27
42.790         7
42.800        20
42.810        20
42.820        20
42.830        27
42.840        20
42.850         7
42.860        33
42.870        27
42.880        13
42.890        53
42.900        27
42.910        13
42.920         7
42.930        13
42.940        20
42.950        13
42.960         7
42.970         7
42.980        27
42.990        33
43.000        27
43.010        27
43.020        20
43.030        27
43.040        20
43.050        27
43.060         7
43.070        13
43.080        13
43.090        40
43.100        13
43.110        13
43.120        27
43.130        27
43.140        27
43.150        33
43.160        33
43.170         7
43.180        13
43.190        13
43.200        20
43.210        33
43.220        33
43.230         0
43.240        60
43.250        40
43.260        40
43.270        27
43.280        47
43.290        20
43.300        33
43.310        53
43.320        47
43.330        20
43.340        53
43.350        80
43.360        80
43.370       113
43.380       107
43.390       180
43.400       173
43.410       153
43.420        93
43.430       140
43.440       120
43.450        80
43.460       100
43.470        73
43.480        67
43.490        87
43.500        80
43.510        67
43.520       127
43.530       120
43.540        53
43.550        67
43.560        27
43.570        47
43.580        20
43.590        20
43.600        20
43.610        47
43.620        13
43.630        13
43.640        13
43.650        33
43.660        20
43.670        20
43.680         7
43.690        13
43.700        33
43.710        20
43.720        13
43.730        27
43.740        13
43.750        27
43.760        20
43.770         0
43.780         7
43.790        20
43.800        13
43.810        13
43.820        33
43.830        20
43.840         7
43.850        20
43.860        27
43.870        33
43.880        27
43.890         7
43.900        27
43.910        27
43.920        27
43.930        20
43.940        27
43.950        20
43.960         7
43.970        27
43.980        13
43.990         7
44.000        20
44.010        27
44.020        33
44.030        27
44.040        13
44.050        33
44.060        13
44.070        53
44.080         7
44.090        13
44.100        20
44.110        33
44.120        13
44.130        20
44.140        20
44.150         7
44.160         7
44.170         7
44.180        33
44.190        13
44.200        13
44.210        13
44.220        33
44.230         7
44.240        13
44.250        27
44.260         7
44.270        13
44.280        13
44.290        20
44.300        27
44.310        20
44.320        13
44.330        20
44.340        27
44.350        20
44.360        27
44.370        20
44.380        20
44.390        13
44.400        27
44.410        47
44.420         7
44.430        27
44.440         7
44.450        13
44.460        20
44.470        47
44.480        33
44.490        20
44.500        27
44.510        20
44.520        20
44.530        27
44.540        27
44.550        33
44.560        13
44.570        20
44.580        13
44.590        27
44.600        20
44.610        13
44.620        40
44.630        40
44.640        20
44.650        33
44.660         7
44.670        27
44.680        27
44.690        20
44.700        20
44.710         0
44.720         7
44.730        27
44.740        20
44.750        20
44.760        20
44.770        27
44.780        33
44.790        27
44.800        27
44.810         7
44.820         7
44.830        20
44.840        27
44.850         0
44.860         0
44.870        20
44.880        33
44.890        27
44.900        33
44.910        27
44.920        27
44.930        60
44.940        53
44.950        27
44.960         0
44.970        27
44.980         7
44.990        47
45.000        40
45.010        47
45.020        33
45.030        40
45.040        20
45.050        20
45.060        20
45.070        27
45.080        13
45.090         7
45.100         7
45.110         7
45.120        27
45.130        33
45.140        20
45.150        20
45.160        13
45.170        20
45.180        33
45.190        33
45.200         7
45.210        20
45.220        20
45.230        27
45.240        13
45.250        13
45.260        40
45.270        33
45.280        27
45.290        33
45.300         7
45.310         7
45.320        20
45.330        33
45.340        13
45.350        40
45.360        20
45.370        27
45.380        13
45.390        47
45.400         7
45.410         7
45.420        40
45.430        33
45.440         7
45.450        20
45.460         7
45.470         7
45.480         7
45.490        13
45.500         7
45.510        20
45.520        13
45.530        13
45.540         7
45.550         7
45.560        13
45.570        20
45.580         0
45.590        13
45.600        20
45.610        27
45.620        33
45.630         0
45.640        27
45.650        20
45.660        20
45.670        20
45.680        13
45.690         7
45.700        27
45.710        27
45.720         7
45.730        27
45.740        13
45.750        20
45.760         7
45.770        20
45.780        27
45.790        20
45.800         7
45.810        47
45.820        20
45.830        27
45.840        13
45.850        20
45.860         7
45.870        20
45.880        20
45.890        13
45.900        20
45.910        47
45.920        20
45.930        33
45.940        33
45.950        13
45.960        40
45.970         0
45.980        20
45.990        13
46.000        20
46.010         7
46.020        20
46.030        20
46.040         7
46.050        27
46.060         7
46.070        13
46.080        20
46.090        20
46.100        27
46.110        27
46.120        20
46.130        20
46.140        20
46.150        20
46.160        47
46.170        33
46.180        33
46.190        27
46.200        13
46.210        27
46.220         7
46.230        47
46.240        13
46.250         7
46.260        40
46.270        13
46.280         7
46.290         7
46.300        20
46.310        33
46.320         0
46.330        20
46.340        20
46.350        27
46.360        20
46.370        13
46.380        40
46.390        27
46.400         0
46.410        33
46.420        27
46.430        20
46.440         7
46.450         7
46.460        20
46.470        13
46.480        13
46.490        20
46.500        13
46.510        13
46.520         7
46.530        20
46.540        13
46.550        13
46.560        27
46.570         7
46.580         7
46.590        47
46.600         7
46.610         7
46.620        20
46.630         7
46.640        27
46.650        13
46.660        20
46.670        13
46.680        20
46.690        27
46.700        33
46.710        13
46.720        53
46.730         7
46.740        27
46.750         7
46.760        13
46.770        13
46.780         7
46.790        33
46.800        13
46.810        27
46.820         7
46.830         0
46.840        27
46.850        13
46.860        13
46.870        27
46.880        27
46.890        13
46.900         7
46.910        13
46.920        20
46.930        13
46.940        27
46.950        13
46.960        27
46.970        20
46.980        20
46.990        40
47.000        20
47.010        20
47.020        13
47.030        40
47.040        40
47.050        20
47.060         7
47.070         7
47.080        27
47.090        33
47.100        27
47.110         7
47.120        13
47.130         7
47.140        20
47.150        27
47.160        40
47.170        27
47.180        20
47.190        20
47.200        27
47.210        27
47.220        20
47.230        33
47.240        20
47.250        13
47.260        20
47.270        20
47.280        20
47.290        20
47.300        13
47.310        20
47.320        47
47.330        13
47.340        20
47.350        27
47.360        40
47.370        20
47.380        13
47.390         7
47.400        20
47.410        20
47.420        27
47.430        20
47.440         7
47.450        20
47.460        20
47.470        20
47.480        27
47.490         0
47.500        47
47.510        13
47.520        20
47.530        27
47.540        13
47.550        20
47.560        20
47.570        20
47.580        20
47.590        27
47.600        27
47.610        13
47.620         7
47.630        20
47.640         0
47.650         7
47.660        13
47.670         7
47.680         7
47.690        27
47.700        13
47.710        20
47.720        13
47.730         7
47.740         7
47.750        27
47.760        13
47.770        20
47.780        33
47.790        27
47.800        13
47.810        20
47.820        33
47.830         7
47.840        20
47.850        13
47.860        13
47.870        27
47.880        13
47.890        13
47.900        20
47.910        40
47.920        13
47.930        20
47.940        20
47.950         7
47.960        27
47.970        13
47.980        13
47.990         0
48.000        13
48.010        53
48.020        20
48.030        27
48.040         7
48.050         7
48.060         7
48.070         7
48.080        13
48.090        13
48.100        27
48.110         0
48.120         7
48.130        33
48.140        27
48.150        27
48.160         7
48.170        20
48.180        13
48.190        13
48.200         7
48.210         7
48.220        27
48.230        13
48.240        20
48.250         7
48.260        13
48.270         7
48.280        20
48.290         7
48.300        33
48.310        27
48.320         7
48.330         0
48.340        20
48.350        13
48.360        13
48.370        13
48.380        27
48.390        13
48.400        20
48.410        13
48.420        13
48.430        20
48.440        13
48.450        27
48.460         7
48.470         7
48.480        20
48.490        27
48.500         0
48.510        20
48.520        20
48.530        13
48.540        53
48.550        13
48.560        27
48.570        40
48.580        33
48.590         0
48.600        53
48.610         7
48.620        27
48.630         0
48.640        13
48.650        33
48.660        13
48.670        13
48.680        20
48.690        27
48.700        13
48.710        20
48.720        13
48.730         0
48.740         7
48.750        27
48.760        47
48.770        20
48.780         0
48.790        13
48.800        13
48.810         7
48.820        20
48.830        27
48.840        13
48.850        13
48.860         7
48.870        27
48.880        20
48.890        40
48.900        13
48.910         7
48.920        20
48.930        13
48.940        33
48.950         0
48.960         7
48.970        27
48.980        33
48.990        20
49.000        20
49.010        13
49.020         0
49.030        20
49.040        27
49.050         7
49.060        13
49.070        20
49.080        20
49.090        13
49.100        33
49.110         7
49.120        40
49.130        40
49.140        27
49.150        33
49.160         0
49.170        13
49.180        27
49.190        67
49.200        27
49.210        20
49.220        33
49.230        27
49.240         7
49.250         7
49.260        27
49.270        47
49.280        13
49.290        20
49.300        13
49.310        13
49.320        47
49.330        27
49.340        13
49.350        20
49.360        27
49.370         7
49.380        13
49.390        20
49.400        33
49.410        20
49.420        33
49.430        20
49.440         7
49.450        27
49.460         7
49.470        13
49.480        27
49.490        20
49.500        13
49.510        13
49.520        20
49.530         7
49.540        13
49.550        20
49.560         0
49.570        13
49.580        13
49.590         0
49.600        20
49.610         7
49.620         7
49.630        13
49.640        13
49.650         7
49.660        47
49.670        13
49.680        40
49.690        33
49.700        47
49.710        27
49.720         7
49.730        47
49.740         7
49.750        20
49.760         7
49.770         7
49.780        27
49.790        20
49.800         7
49.810         0
49.820        33
49.830        13
49.840        20
49.850        27
49.860         0
49.870        20
49.880        20
49.890        20
49.900        27
49.910        33
49.920         7
49.930        33
49.940         7
49.950        13
49.960        20
49.970         7
49.980        13
49.990        27
50.000        13
50.010        13
50.020        27
50.030        33
50.040         7
50.050        33
50.060         7
50.070        13
50.080        20
50.090         7
50.100        20
50.110        20
50.120        33
50.130        27
50.140         0
50.150         7
50.160        27
50.170        40
50.180         7
50.190         7
50.200        33
50.210        13
50.220        20
50.230        20
50.240         0
50.250        20
50.260        20
50.270        20
50.280        13
50.290        27
50.300         7
50.310        20
50.320        27
50.330        27
50.340        40
50.350        40
50.360        40
50.370        20
50.380        13
50.390        27
50.400         7
50.410        13
50.420        33
50.430        33
50.440        40
50.450        27
50.460         7
50.470        20
50.480        13
50.490        20
50.500        27
50.510         7
50.520         0
50.530        13
50.540         7
50.550        20
50.560        27
50.570        40
50.580        20
50.590        20
50.600        13
50.610        33
50.620         7
50.630        20
50.640        20
50.650        27
50.660        20
50.670        13
50.680        13
50.690         7
50.700        13
50.710        33
50.720        27
50.730        40
50.740        20
50.750         7
50.760        27
50.770        13
50.780        13
50.790        20
50.800        27
50.810        13
50.820         0
50.830         0
50.840        40
50.850        20
50.860        20
50.870         7
50.880        33
50.890        20
50.900         7
50.910        13
50.920         7
50.930        27
50.940        20
50.950         0
50.960        20
50.970        27
50.980        20
50.990        13
51.000         0
51.010         7
51.020        20
51.030        33
51.040        20
51.050        27
51.060        13
51.070        20
51.080        27
51.090        20
51.100        13
51.110        33
51.120         7
51.130         7
51.140        20
51.150        53
51.160        13
51.170        33
51.180        20
51.190        13
51.200        13
51.210        13
51.220         7
51.230        13
51.240        27
51.250         7
51.260         7
51.270        33
51.280        13
51.290        27
51.300        27
51.310        20
51.320         7
51.330        13
51.340        13
51.350         7
51.360        33
51.370        20
51.380        33
51.390        33
51.400         0
51.410        13
51.420        27
51.430         7
51.440        13
51.450        27
51.460        13
51.470         7
51.480        13
51.490         7
51.500        13
51.510        13
51.520        20
51.530        40
51.540         7
51.550        13
51.560         0
51.570        20
51.580        20
51.590        27
51.600        13
51.610        27
51.620        13
51.630        20
51.640        27
51.650        13
51.660        20
51.670        13
51.680        13
51.690        27
51.700        27
51.710        20
51.720        20
51.730        33
51.740         7
51.750        13
51.760         7
51.770         7
51.780         7
51.790        13
51.800        27
51.810         7
51.820        27
51.830        27
51.840        27
51.850         0
51.860         0
51.870        40
51.880        13
51.890        13
51.900         0
51.910         0
51.920        40
51.930         7
51.940         7
51.950        20
51.960        13
51.970        33
51.980         7
51.990        27
52.000        47
52.010        20
52.020        13
52.030         7
52.040         7
52.050        27
52.060        27
52.070         7
52.080         0
52.090        13
52.100        20
52.110        13
52.120        20
52.130        20
52.140        40
52.150        13
52.160         7
52.170        33
52.180        20
52.190        13
52.200        20
52.210        20
52.220         7
52.230        20
52.240        20
52.250         7
52.260         7
52.270         7
52.280         0
52.290        20
52.300        13
52.310         0
52.320        13
52.330         0
52.340         0
52.350        13
52.360        13
52.370        20
52.380         7
52.390        27
52.400        20
52.410        13
52.420         7
52.430        67
52.440        13
52.450        13
52.460         7
52.470        13
52.480        13
52.490        13
52.500        33
52.510        20
52.520        20
52.530         7
52.540        13
52.550        33
52.560        33
52.570        13
52.580         7
52.590        13
52.600        40
52.610        13
52.620        13
52.630        20
52.640        53
52.650        13
52.660        27
52.670        13
52.680        47
52.690        13
52.700        13
52.710        13
52.720        13
52.730         7
52.740        13
52.750        27
52.760        13
52.770        27
52.780        27
52.790        20
52.800        13
52.810        20
52.820        20
52.830        20
52.840        20
52.850        33
52.860         7
52.870        27
52.880        20
52.890         0
52.900         7
52.910         7
52.920         7
52.930        13
52.940        13
52.950        20
52.960         7
52.970         7
52.980        13
52.990        33
53.000         7
53.010        13
53.020        20
53.030        13
53.040        20
53.050        13
53.060        27
53.070         0
53.080         7
53.090        40
53.100        27
53.110        27
53.120        40
53.130        13
53.140        13
53.150        27
53.160        33
53.170        33
53.180        13
53.190        13
53.200         7
53.210        27
53.220         7
53.230        20
53.240        13
53.250        13
53.260        27
53.270         7
53.280         7
53.290         0
53.300        13
53.310        20
53.320        20
53.330         7
53.340         7
53.350        13
53.360        27
53.370         7
53.380        20
53.390        20
53.400        33
53.410        13
53.420        20
53.430        13
53.440        13
53.450        13
53.460        13
53.470        33
53.480        13
53.490         0
53.500        33
53.510        13
53.520        20
53.530        13
53.540        13
53.550        47
53.560         7
53.570        13
53.580        27
53.590        13
53.600         7
53.610        33
53.620        13
53.630        20
53.640         0
53.650         0
53.660        40
53.670         7
53.680        27
53.690         0
53.700         7
53.710        13
53.720        20
53.730        13
53.740         7
53.750        40
53.760        13
53.770        20
53.780        27
53.790         7
53.800        13
53.810        20
53.820         0
53.830        27
53.840         7
53.850        20
53.860         7
53.870         7
53.880        20
53.890        13
53.900        53
53.910        13
53.920        20
53.930        13
53.940        27
53.950        20
53.960        20
53.970         7
53.980        20
53.990         7
54.000         7
54.010        13
54.020        13
54.030        13
54.040        20
54.050        20
54.060        13
54.070        13
54.080        13
54.090         7
54.100        27
54.110        13
54.120        20
54.130         0
54.140        20
54.150        27
54.160         0
54.170        33
54.180        27
54.190         7
54.200        20
54.210        27
54.220         7
54.230        20
54.240        27
54.250        33
54.260        33
54.270        20
54.280         7
54.290        13
54.300        27
54.310        13
54.320        33
54.330        27
54.340        33
54.350        13
54.360        20
54.370        27
54.380        13
54.390        40
54.400        20
54.410        13
54.420         7
54.430         7
54.440         7
54.450        27
54.460         7
54.470        47
54.480        13
54.490        13
54.500         7
54.510         0
54.520         7
54.530        20
54.540        13
54.550        20
54.560        13
54.570        33
54.580        13
54.590        20
54.600        13
54.610        13
54.620        13
54.630        20
54.640        27
54.650        20
54.660        20
54.670        13
54.680        13
54.690        27
54.700        20
54.710        27
54.720        13
54.730        13
54.740        20
54.750        13
54.760         7
54.770        33
54.780         7
54.790        20
54.800         7
54.810         7
54.820        20
54.830        27
54.840        20
54.850        13
54.860         7
54.870         0
54.880        27
54.890         7
54.900        20
54.910         7
54.920        27
54.930        13
54.940        40
54.950         7
54.960        13
54.970        20
54.980         7
54.990        20
55.000        20
55.010         7
55.020        13
55.030         0
55.040         0
55.050         0
55.060         0
55.070        47
55.080        27
55.090        40
55.100         7
55.110         7
55.120         7
55.130        13
55.140        33
55.150        33
55.160        13
55.170        13
55.180        20
55.190        20
55.200        20
55.210         7
55.220        27
55.230        27
55.240        33
55.250        40
55.260        20
55.270        27
55.280         7
55.290        20
55.300        27
55.310        13
55.320        27
55.330        13
55.340        20
55.350        53
55.360        13
55.370        13
55.380         7
55.390        20
55.400        60
55.410        33
55.420        33
55.430        33
55.440        33
55.450        47
55.460        73
55.470        33
55.480        33
55.490        27
55.500        67
55.510        67
55.520        60
55.530        47
55.540        33
55.550        53
55.560        80
55.570        40
55.580        53
55.590        87
55.600        73
55.610        80
55.620       100
55.630        40
55.640       127
55.650        80
55.660        67
55.670        53
55.680        73
55.690       100
55.700       113
55.710        87
55.720        80
55.730        67
55.740        93
55.750       113
55.760        40
55.770        73
55.780        60
55.790        80
55.800        60
55.810       120
55.820        93
55.830        67
55.840        87
55.850        87
55.860        80
55.870        53
55.880        40
55.890        53
55.900        33
55.910        60
55.920        67
55.930        67
55.940        33
55.950        40
55.960        47
55.970        53
55.980        67
55.990        33
56.000        47
56.010        40
56.020        60
56.030        27
56.040        47
56.050        60
56.060        40
56.070        47
56.080        33
56.090        27
56.100        33
56.110         7
56.120        27
56.130        53
56.140        13
56.150        33
56.160        20
56.170        33
56.180         7
56.190        20
56.200        13
56.210         0
56.220        20
56.230        40
56.240        27
56.250        13
56.260        20
56.270        27
56.280        40
56.290        20
56.300        27
56.310        27
56.320         7
56.330        33
56.340         7
56.350        27
56.360         7
56.370        13
56.380         7
56.390        20
56.400        27
56.410         0
56.420         7
56.430         0
56.440         7
56.450        20
56.460        13
56.470        40
56.480         7
56.490        13
56.500        33
56.510        33
56.520         7
56.530        20
56.540         0
56.550        33
56.560        13
56.570        20
56.580        13
56.590        20
56.600        27
56.610        13
56.620        13
56.630        27
56.640         0
56.650        13
56.660         7
56.670        20
56.680         0
56.690        33
56.700         0
56.710        13
56.720        20
56.730         0
56.740        20
56.750        20
56.760        27
56.770        20
56.780        20
56.790         7
56.800         7
56.810        33
56.820         7
56.830        20
56.840        13
56.850         7
56.860         0
56.870        13
56.880        13
56.890        27
56.900        27
56.910        13
56.920        13
56.930        13
56.940         7
56.950        20
56.960        13
56.970        13
56.980        13
56.990        20
57.000        27
57.010        13
57.020         0
57.030        40
57.040        27
57.050         7
57.060        20
57.070        13
57.080        13
57.090        20
57.100        33
57.110         7
57.120         7
57.130         0
57.140         7
57.150         0
57.160        20
57.170         0
57.180        13
57.190        20
57.200        13
57.210        13
57.220        13
57.230        13
57.240        13
57.250        20
57.260         0
57.270         7
57.280        33
57.290         7
57.300        27
57.310        20
57.320        20
57.330        33
57.340        13
57.350        13
57.360        13
57.370        27
57.380        20
57.390        20
57.400        20
57.410        13
57.420        13
57.430        40
57.440        47
57.450        27
57.460         7
57.470         7
57.480        33
57.490        73
57.500        40
57.510        60
57.520        60
57.530        60
57.540        33
57.550        67
57.560        53
57.570        33
57.580        60
57.590        53
57.600        40
57.610        20
57.620        33
57.630        27
57.640        53
57.650        53
57.660        33
57.670        33
57.680        20
57.690        47
57.700        13
57.710        33
57.720        27
57.730        33
57.740         0
57.750         7
57.760        33
57.770        33
57.780        20
57.790        33
57.800         7
57.810        13
57.820         7
57.830        27
57.840        27
57.850         7
57.860        40
57.870        13
57.880        20
57.890         0
57.900        13
57.910        13
57.920        20
57.930        20
57.940         7
57.950         0
57.960        13
57.970        13
57.980        20
57.990        20
58.000         7
58.010        27
58.020        20
58.030        13
58.040         7
58.050        47
58.060        33
58.070         0
58.080         7
58.090         7
58.100         0
58.110        20
58.120        27
58.130        20
58.140         7
58.150        40
58.160        20
58.170        27
58.180         0
58.190        20
58.200        20
58.210        13
58.220        27
58.230        20
58.240        40
58.250        13
58.260         7
58.270         7
58.280        33
58.290        27
58.300        33
58.310        20
58.320        40
58.330         0
58.340        13
58.350        13
58.360        33
58.370         7
58.380        13
58.390        40
58.400        20
58.410        33
58.420        20
58.430         0
58.440         7
58.450        13
58.460         7
58.470        20
58.480         7
58.490        27
58.500        20
58.510         7
58.520         0
58.530         0
58.540        13
58.550        27
58.560         0
58.570         7
58.580         0
58.590         7
58.600         0
58.610         7
58.620         7
58.630        13
58.640        33
58.650        20
58.660         7
58.670        20
58.680        20
58.690         7
58.700         0
58.710         7
58.720        13
58.730         0
58.740        13
58.750        13
58.760         0
58.770        13
58.780        13
58.790        20
58.800         0
58.810        13
58.820        13
58.830        20
58.840         7
58.850        27
58.860        20
58.870        20
58.880        20
58.890         7
58.900        33
58.910        27
58.920        20
58.930        13
58.940        20
58.950        27
58.960         0
58.970         7
58.980         7
58.990        27
59.000         7
59.010         7
59.020         7
59.030         7
59.040        13
59.050        20
59.060         7
59.070        13
59.080         7
59.090        27
59.100        13
59.110        13
59.120        40
59.130        20
59.140         0
59.150         7
59.160         7
59.170         0
59.180         0
59.190        20
59.200        27
59.210        13
59.220         7
59.230         7
59.240         7
59.250         7
59.260        27
59.270        13
59.280        13
59.290        33
59.300        20
59.310        13
59.320         7
59.330        13
59.340        13
59.350        13
59.360         7
59.370        13
59.380        27
59.390         0
59.400         7
59.410        13
59.420         7
59.430        27
59.440         7
59.450        20
59.460        20
59.470        13
59.480        20
59.490         7
59.500        13
59.510         7
59.520        13
59.530        27
59.540        13
59.550        13
59.560        13
59.570        20
59.580        27
59.590        13
59.600         7
59.610        13
59.620        13
59.630        27
59.640        33
59.650        27
59.660        13
59.670        13
59.680         0
59.690         7
59.700        13
59.710         7
59.720        27
59.730        13
59.740        13
59.750         7
59.760        13
59.770        27
59.780        13
59.790         7
59.800        20
59.810         7
59.820         7
59.830        13
59.840        13
59.850        20
59.860         7
59.870        13
59.880        13
59.890        27
59.900        13
59.910         7
59.920         7
59.930        33
59.940         7
59.950        27
59.960        13
59.970         7
59.980        27
59.990        20
60.000        20
