20.000        67
20.010        67
20.020        93
20.030        60
20.040        73
20.050        73
20.060        60
20.070        40
20.080        80
20.090        87
20.100        60
20.110        67
20.120        53
20.130        67
20.140        40
20.150        73
20.160       113
20.170        93
20.180        60
20.190        67
20.200       100
20.210        67
20.220       107
20.230        87
20.240        80
20.250        73
20.260        80
20.270        67
20.280        73
20.290       113
20.300        33
20.310        33
20.320        93
20.330       113
20.340        80
20.350        67
20.360        87
20.370        80
20.380        73
20.390        33
20.400        47
20.410        60
20.420        80
20.430       100
20.440        53
20.450        87
20.460        87
20.470        47
20.480        87
20.490        87
20.500        60
20.510       100
20.520       127
20.530        87
20.540        93
20.550        53
20.560        60
20.570       107
20.580        53
20.590        67
20.600        47
20.610        73
20.620       100
20.630        60
20.640       100
20.650        87
20.660        93
20.670       113
20.680       120
20.690        80
20.700        67
20.710        87
20.720        53
20.730        40
20.740        67
20.750        53
20.760       120
20.770        53
20.780        47
20.790        53
20.800        67
20.810        40
20.820        53
20.830        33
20.840        80
20.850        87
20.860        40
20.870        47
20.880        40
20.890        80
20.900        53
20.910        47
20.920       100
20.930        67
20.940       133
20.950        53
20.960        80
20.970        47
20.980       107
20.990        67
21.000        47
21.010        47
21.020        93
21.030        67
21.040        73
21.050        40
21.060       100
21.070        87
21.080        53
21.090        67
21.100        73
21.110        60
21.120        67
21.130       127
21.140        87
21.150        40
21.160        87
21.170        87
21.180       107
21.190        80
21.200        93
21.210        87
21.220        53
21.230        73
21.240        47
21.250        60
21.260        67
21.270        73
21.280        73
21.290        73
21.300        60
21.310        73
21.320        40
21.330       107
21.340        60
21.350        80
21.360        60
21.370        47
21.380        80
21.390        80
21.400        47
21.410        67
21.420        53
21.430       113
21.440       107
21.450        40
21.460        60
21.470        53
21.480        67
21.490       113
21.500        67
21.510        87
21.520        80
21.530        67
21.540        60
21.550        93
21.560        60
21.570        53
21.580        60
21.590        87
21.600        87
21.610        33
21.620        73
21.630       120
21.640        80
21.650        73
21.660        40
21.670        73
21.680        60
21.690        73
21.700       107
21.710        73
21.720       107
21.730        93
21.740        80
21.750        60
21.760        53
21.770       100
21.780        73
21.790       100
21.800        53
21.810        53
21.820        60
21.830        73
21.840        53
21.850        87
21.860        87
21.870        67
21.880        87
21.890        80
21.900        80
21.910       107
21.920       100
21.930       113
21.940        73
21.950        73
21.960       133
21.970        73
21.980       100
21.990       100
22.000        53
22.010        80
22.020        80
22.030        73
22.040        67
22.050       127
22.060        80
22.070       100
22.080        73
22.090       100
22.100        40
22.110        87
22.120       107
22.130        80
22.140        80
22.150        87
22.160        93
22.170       100
22.180       100
22.190        40
22.200        93
22.210        87
22.220       120
22.230       120
22.240        93
22.250       107
22.260        60
22.270       113
22.280        87
22.290        60
22.300        73
22.310       107
22.320        40
22.330        80
22.340        93
22.350       107
22.360       173
22.370       133
22.380       107
22.390        87
22.400       120
22.410       113
22.420       120
22.430        93
22.440       120
22.450       100
22.460       147
22.470       140
22.480        93
22.490       187
22.500       167
22.510       187
22.520       180
22.530       227
22.540       193
22.550       247
22.560       220
22.570       287
22.580       340
22.590       347
22.600       407
22.610       313
22.620       407
22.630       340
22.640       413
22.650       347
22.660       387
22.670       380
22.680       360
22.690       407
22.700       426
22.710       373
22.720       380
22.730       293
22.740       253
22.750       293
22.760       300
22.770       367
22.780       287
22.790       233
22.800       307
22.810       300
22.820       220
22.830       240
22.840       147
22.850       247
22.860       220
22.870       200
22.880       227
22.890       167
22.900       187
22.910       233
22.920       180
22.930       187
22.940       207
22.950       180
22.960       140
22.970       260
22.980       240
22.990       187
23.000       207
23.010       160
23.020       167
23.030       167
23.040       240
23.050       167
23.060       227
23.070       333
23.080       493
23.090       700
23.100       933
23.110      1020
23.120      1026
23.130      1013
23.140      1000
23.150       900
23.160       640
23.170       493
23.180       313
23.190       287
23.200       293
23.210       160
23.220       167
23.230       220
23.240       207
23.250       153
23.260       207
23.270       153
23.280       127
23.290        60
23.300       153
23.310       133
23.320       100
23.330       153
23.340       187
23.350       147
23.360       127
23.370       100
23.380       147
23.390       160
23.400       107
23.410        80
23.420       147
23.430       100
23.440       127
23.450       153
23.460       107
23.470       120
23.480       127
23.490       120
23.500       127
23.510       140
23.520       147
23.530        73
23.540       133
23.550        93
23.560       167
23.570       180
23.580       153
23.590       120
23.600       120
23.610        67
23.620       133
23.630       113
23.640       120
23.650        93
23.660        93
23.670       127
23.680       193
23.690       153
23.700       147
23.710       147
23.720        80
23.730       107
23.740        73
23.750       100
23.760       127
23.770       113
23.780       127
23.790       127
23.800        73
23.810       153
23.820       127
23.830       127
23.840       127
23.850        93
23.860       100
23.870       113
23.880        80
23.890        73
23.900       107
23.910       120
23.920        60
23.930       140
23.940       193
23.950       133
23.960        73
23.970       133
23.980       113
23.990        73
24.000       107
24.010        87
24.020       113
24.030        87
24.040       120
24.050        53
24.060        87
24.070       140
24.080       120
24.090       113
24.100       120
24.110       120
24.120       107
24.130       133
24.140       147
24.150       120
24.160       147
24.170       107
24.180        87
24.190       133
24.200       113
24.210       120
24.220       160
24.230       140
24.240        93
24.250       133
24.260       107
24.270       107
24.280        87
24.290       120
24.300       127
24.310       147
24.320       100
24.330        87
24.340       107
24.350       167
24.360       100
24.370       133
24.380        67
24.390       100
24.400       113
24.410       153
24.420       113
24.430       107
24.440        80
24.450       133
24.460       100
24.470       120
24.480       133
24.490        87
24.500        73
24.510        87
24.520       147
24.530       133
24.540       173
24.550       140
24.560        87
24.570       120
24.580       120
24.590       100
24.600       133
24.610       120
24.620       107
24.630       113
24.640       147
24.650       127
24.660       153
24.670       193
24.680        67
24.690       147
24.700       127
24.710       180
24.720       220
24.730       260
24.740       193
24.750       373
24.760       433
24.770       520
24.780       466
24.790       493
24.800       520
24.810       520
24.820       566
24.830       486
24.840       546
24.850       420
24.860       513
24.870       473
24.880       533
24.890       446
24.900       407
24.910       533
24.920       493
24.930       426
24.940       533
24.950       460
24.960       533
24.970       480
24.980       473
24.990       580
25.000       440
25.010       640
25.020       680
25.030       526
25.040       506
25.050       540
25.060       513
25.070       520
25.080       533
25.090       493
25.100       566
25.110       460
25.120       466
25.130       493
25.140       446
25.150       440
25.160       480
25.170       633
25.180       513
25.190       493
25.200       566
25.210       600
25.220       653
25.230       553
25.240       593
25.250       506
25.260       533
25.270       573
25.280       633
25.290       553
25.300       640
25.310       573
25.320       713
25.330       773
25.340       713
25.350       740
25.360       900
25.370       846
25.380       926
25.390      1060
25.400      1333
25.410      1653
25.420      2086
25.430      2579
25.440      3319
25.450      3605
25.460      4138
25.470      5118
25.480      5858
25.490      6844
25.500      6711
25.510      7717
25.520      7637
25.530      7990
25.540      8956
25.550     10369
25.560     13028
25.570     19919
25.580     38665
25.590     65654
25.600     92856
25.610    107844
25.620    112602
25.630    119186
25.640    122937
25.650    121645
25.660    111216
25.670     91004
25.680     77322
25.690     70472
25.700     68339
25.710     63901
25.720     53325
25.730     37805
25.740     21898
25.750     12515
25.760      8657
25.770      7324
25.780      6391
25.790      5658
25.800      5325
25.810      3892
25.820      3239
25.830      2925
25.840      2572
25.850      2306
25.860      1859
25.870      1719
25.880      1473
25.890      1040
25.900       940
25.910       946
25.920      1020
25.930       933
25.940       840
25.950       720
25.960       813
25.970       733
25.980       780
25.990       693
26.000       620
26.010       873
26.020       760
26.030       620
26.040       680
26.050       680
26.060       660
26.070       566
26.080       633
26.090       480
26.100       566
26.110       653
26.120       526
26.130       506
26.140       546
26.150       593
26.160       646
26.170       560
26.180       560
26.190       473
26.200       480
26.210       446
26.220       553
26.230       460
26.240       526
26.250       580
26.260       473
26.270       513
26.280       486
26.290       500
26.300       440
26.310       446
26.320       533
26.330       473
26.340       473
26.350       440
26.360       526
26.370       440
26.380       387
26.390       460
26.400       393
26.410       440
26.420       393
26.430       473
26.440       513
26.450       407
26.460       426
26.470       426
26.480       440
26.490       400
26.500       506
26.510       360
26.520       426
26.530       307
26.540       327
26.550       453
26.560       473
26.570       453
26.580       446
26.590       367
26.600       327
26.610       300
26.620       453
26.630       327
26.640       473
26.650       360
26.660       393
26.670       347
26.680       413
26.690       453
26.700       333
26.710       420
26.720       313
26.730       380
26.740       387
26.750       267
26.760       333
26.770       280
26.780       340
26.790       367
26.800       353
26.810       360
26.820       500
26.830       380
26.840       340
26.850       380
26.860       380
26.870       340
26.880       340
26.890       307
26.900       393
26.910       373
26.920       426
26.930       393
26.940       373
26.950       393
26.960       353
26.970       353
26.980       287
26.990       360
27.000       280
27.010       293
27.020       260
27.030       333
27.040       367
27.050       353
27.060       393
27.070       393
27.080       320
27.090       407
27.100       347
27.110       340
27.120       393
27.130       320
27.140       420
27.150       320
27.160       466
27.170       313
27.180       327
27.190       327
27.200       287
27.210       293
27.220       327
27.230       513
27.240       313
27.250       227
27.260       247
27.270       240
27.280       280
27.290       280
27.300       360
27.310       253
27.320       327
27.330       300
27.340       373
27.350       293
27.360       327
27.370       340
27.380       400
27.390       300
27.400       353
27.410       347
27.420       373
27.430       340
27.440       273
27.450       293
27.460       333
27.470       360
27.480       260
27.490       307
27.500       320
27.510       247
27.520       287
27.530       307
27.540       253
27.550       247
27.560       320
27.570       267
27.580       240
27.590       267
27.600       227
27.610       320
27.620       373
27.630       320
27.640       373
27.650       353
27.660       360
27.670       267
27.680       260
27.690       293
27.700       267
27.710       240
27.720       320
27.730       293
27.740       433
27.750       320
27.760       273
27.770       320
27.780       300
27.790       293
27.800       293
27.810       253
27.820       367
27.830       227
27.840       347
27.850       320
27.860       360
27.870       233
27.880       253
27.890       267
27.900       227
27.910       227
27.920       307
27.930       320
27.940       253
27.950       307
27.960       240
27.970       293
27.980       287
27.990       260
28.000       273
28.010       260
28.020       273
28.030       280
28.040       253
28.050       253
28.060       213
28.070       300
28.080       227
28.090       287
28.100       180
28.110       280
28.120       247
28.130       300
28.140       300
28.150       233
28.160       253
28.170       300
28.180       293
28.190       280
28.200       200
28.210       273
28.220       200
28.230       300
28.240       280
28.250       140
28.260       253
28.270       407
28.280       280
28.290       260
28.300       300
28.310       193
28.320       260
28.330       293
28.340       313
28.350       227
28.360       233
28.370       273
28.380       247
28.390       347
28.400       300
28.410       313
28.420       220
28.430       260
28.440       247
28.450       240
28.460       267
28.470       267
28.480       267
28.490       260
28.500       340
28.510       233
28.520       280
28.530       233
28.540       227
28.550       213
28.560       207
28.570       213
28.580       340
28.590       360
28.600       260
28.610       180
28.620       313
28.630       267
28.640       227
28.650       247
28.660       233
28.670       347
28.680       233
28.690       293
28.700       253
28.710       287
28.720       300
28.730       233
28.740       260
28.750       207
28.760       213
28.770       300
28.780       280
28.790       227
28.800       287
28.810       200
28.820       233
28.830       207
28.840       293
28.850       220
28.860       213
28.870       213
28.880       260
28.890       253
28.900       227
28.910       227
28.920       187
28.930       273
28.940       200
28.950       247
28.960       233
28.970       127
28.980       233
28.990       287
29.000       340
29.010       267
29.020       247
29.030       240
29.040       307
29.050       267
29.060       193
29.070       180
29.080       253
29.090       220
29.100       327
29.110       247
29.120       253
29.130       253
29.140       180
29.150       260
29.160       247
29.170       253
29.180       220
29.190       227
29.200       247
29.210       247
29.220       247
29.230       233
29.240       173
29.250       187
29.260       240
29.270       273
29.280       187
29.290       213
29.300       240
29.310       247
29.320       240
29.330       253
29.340       233
29.350       173
29.360       213
29.370       180
29.380       167
29.390       180
29.400       147
29.410       300
29.420       327
29.430       167
29.440       240
29.450       207
29.460       227
29.470       187
29.480       167
29.490       253
29.500       180
29.510       240
29.520       233
29.530       193
29.540       193
29.550       287
29.560       200
29.570       187
29.580       213
29.590       213
29.600       173
29.610       253
29.620       280
29.630       280
29.640       167
29.650       227
29.660       220
29.670       153
29.680       213
29.690       273
29.700       267
29.710       173
29.720       160
29.730       200
29.740       167
29.750       187
29.760       253
29.770       240
29.780       193
29.790       147
29.800       167
29.810       227
29.820       187
29.830       180
29.840       153
29.850       220
29.860       233
29.870       167
29.880       247
29.890       240
29.900       240
29.910       173
29.920       187
29.930       193
29.940       160
29.950       153
29.960       193
29.970       180
29.980       200
29.990       220
30.000       213
30.010       227
30.020       200
30.030       207
30.040       193
30.050       180
30.060       227
30.070       240
30.080       227
30.090       233
30.100       233
30.110       200
30.120       220
30.130       187
30.140       173
30.150       207
30.160       207
30.170       173
30.180       267
30.190       267
30.200       173
30.210       220
30.220       140
30.230       140
30.240       200
30.250       213
30.260       167
30.270       187
30.280       167
30.290       207
30.300       187
30.310       133
30.320       213
30.330       147
30.340       260
30.350       153
30.360       200
30.370       167
30.380       193
30.390       280
30.400       187
30.410       187
30.420       193
30.430       167
30.440       167
30.450       227
30.460       153
30.470       187
30.480       167
30.490       180
30.500       193
30.510       213
30.520       193
30.530       193
30.540       153
30.550       160
30.560       160
30.570       227
30.580       280
30.590       233
30.600       200
30.610       300
30.620       160
30.630       167
30.640       193
30.650       127
30.660       173
30.670       173
30.680       153
30.690       173
30.700       147
30.710       167
30.720       213
30.730       180
30.740       193
30.750       173
30.760       133
30.770       127
30.780       140
30.790       160
30.800       280
30.810       147
30.820       160
30.830       207
30.840       187
30.850       173
30.860       160
30.870       133
30.880       207
30.890       200
30.900       127
30.910       253
30.920       153
30.930       207
30.940       213
30.950       107
30.960        80
30.970       200
30.980       200
30.990       193
31.000       100
31.010       147
31.020       153
31.030       167
31.040       207
31.050       113
31.060       160
31.070       240
31.080       133
31.090       213
31.100       173
31.110       180
31.120       207
31.130       180
31.140       187
31.150       107
31.160       207
31.170       193
31.180       140
31.190       160
31.200       200
31.210       133
31.220       173
31.230       147
31.240       120
31.250       207
31.260       180
31.270       113
31.280       167
31.290       167
31.300       167
31.310        73
31.320       193
31.330       193
31.340       127
31.350       193
31.360       147
31.370       227
31.380       133
31.390       200
31.400       173
31.410       180
31.420       153
31.430       140
31.440       127
31.450       153
31.460       180
31.470       173
31.480       153
31.490       180
31.500       113
31.510       160
31.520       113
31.530       120
31.540       213
31.550       207
31.560       173
31.570       167
31.580       133
31.590       167
31.600       173
31.610       160
31.620       173
31.630       173
31.640       187
31.650       147
31.660       120
31.670       120
31.680       140
31.690       220
31.700       207
31.710       160
31.720       147
31.730       160
31.740       140
31.750       153
31.760       180
31.770        93
31.780       167
31.790       120
31.800       140
31.810       187
31.820       207
31.830       153
31.840       213
31.850       147
31.860       153
31.870       153
31.880       160
31.890       173
31.900       107
31.910       153
31.920       193
31.930       147
31.940       160
31.950       167
31.960       140
31.970       140
31.980       140
31.990       167
32.000       173
32.010       167
32.020       200
32.030       240
32.040       187
32.050       153
32.060       180
32.070       207
32.080       147
32.090       273
32.100       227
32.110       167
32.120       287
32.130       287
32.140       247
32.150       207
32.160       280
32.170       333
32.180       167
32.190       273
32.200       247
32.210       367
32.220       313
32.230       353
32.240       400
32.250       413
32.260       340
32.270       380
32.280       460
32.290       513
32.300       440
32.310       513
32.320       613
32.330       480
32.340       480
32.350       540
32.360       513
32.370       460
32.380       606
32.390       680
32.400       440
32.410       526
32.420       666
32.430       493
32.440       640
32.450       613
32.460       506
32.470       566
32.480       633
32.490       526
32.500       506
32.510       473
32.520       540
32.530       446
32.540       466
32.550       440
32.560       373
32.570       313
32.580       280
32.590       280
32.600       273
32.610       380
32.620       333
32.630       287
32.640       260
32.650       187
32.660       253
32.670       240
32.680       180
32.690       193
32.700       167
32.710       140
32.720       173
32.730       193
32.740       127
32.750       233
32.760       180
32.770       180
32.780       187
32.790       173
32.800       153
32.810       167
32.820       173
32.830       173
32.840       107
32.850       180
32.860       167
32.870       127
32.880       207
32.890       160
32.900       120
32.910       187
32.920       160
32.930       107
32.940       147
32.950       140
32.960        73
32.970       127
32.980       180
32.990       147
33.000       120
33.010       113
33.020       147
33.030       113
33.040       100
33.050       107
33.060       107
33.070       120
33.080       140
33.090       107
33.100        93
33.110       147
33.120       120
33.130       107
33.140       127
33.150       133
33.160       120
33.170       113
33.180       133
33.190        93
33.200       153
33.210       160
33.220       107
33.230       180
33.240       133
33.250       133
33.260       107
33.270       133
33.280       133
33.290        73
33.300       113
33.310        47
33.320        73
33.330       113
33.340        67
33.350       153
33.360       180
33.370       120
33.380       127
33.390        73
33.400       120
33.410       107
33.420       127
33.430       160
33.440       127
33.450       100
33.460       100
33.470       120
33.480       100
33.490       107
33.500        93
33.510       100
33.520        53
33.530       133
33.540       127
33.550        87
33.560       160
33.570       133
33.580        93
33.590        93
33.600       107
33.610       120
33.620        67
33.630       100
33.640       113
33.650        80
33.660       113
33.670       127
33.680       107
33.690        80
33.700       133
33.710        93
33.720        87
33.730       113
33.740       120
33.750       100
33.760       100
33.770       107
33.780       113
33.790       133
33.800       107
33.810        73
33.820        87
33.830        67
33.840       107
33.850        60
33.860        73
33.870       140
33.880       133
33.890       107
33.900        47
33.910        60
33.920       107
33.930        40
33.940       107
33.950       153
33.960       113
33.970       113
33.980        73
33.990       107
34.000       133
34.010       100
34.020        93
34.030       127
34.040       100
34.050        67
34.060        80
34.070        80
34.080        60
34.090       113
34.100       113
34.110       107
34.120       107
34.130       100
34.140       127
34.150        87
34.160       107
34.170        67
34.180       100
34.190       120
34.200       140
34.210        73
34.220        73
34.230       107
34.240        73
34.250        53
34.260       120
34.270        80
34.280       107
34.290        40
34.300       133
34.310        80
34.320        87
34.330       133
34.340        80
34.350        80
34.360       100
34.370        80
34.380       127
34.390       113
34.400       107
34.410       127
34.420       127
34.430        67
34.440        87
34.450       127
34.460       113
34.470       133
34.480       127
34.490       100
34.500       107
34.510        80
34.520       107
34.530       120
34.540       113
34.550        93
34.560       133
34.570        60
34.580        73
34.590       107
34.600       113
34.610        80
34.620       120
34.630       127
34.640       100
34.650        67
34.660        93
34.670       133
34.680        73
34.690       100
34.700       113
34.710        60
34.720        73
34.730        80
34.740        80
34.750        80
34.760        67
34.770        67
34.780        73
34.790        80
34.800       100
34.810        67
34.820       107
34.830        93
34.840       113
34.850       100
34.860        93
34.870        87
34.880        93
34.890        80
34.900        60
34.910       120
34.920       100
34.930        80
34.940       100
34.950        73
34.960       107
34.970       107
34.980       113
34.990        40
35.000       100
35.010        87
35.020        73
35.030        60
35.040       120
35.050        60
35.060        93
35.070        80
35.080       120
35.090        67
35.100        27
35.110        73
35.120        80
35.130        80
35.140        93
35.150        53
35.160        60
35.170       113
35.180        80
35.190        67
35.200        33
35.210       127
35.220        80
35.230        60
35.240       100
35.250        80
35.260       100
35.270        80
35.280        67
35.290        67
35.300       100
35.310       107
35.320        73
35.330        73
35.340       133
35.350       107
35.360       107
35.370        60
35.380        47
35.390       107
35.400        67
35.410        60
35.420        60
35.430        93
35.440        60
35.450        73
35.460        33
35.470        40
35.480        93
35.490        67
35.500        40
35.510        73
35.520        80
35.530        73
35.540        93
35.550        67
35.560        73
35.570        53
35.580        73
35.590       113
35.600        67
35.610        60
35.620        53
35.630       133
35.640        47
35.650        93
35.660        73
35.670       113
35.680       113
35.690        67
35.700       100
35.710        47
35.720        73
35.730       113
35.740        73
35.750       133
35.760       140
35.770        73
35.780        87
35.790        40
35.800        80
35.810        20
35.820        67
35.830       107
35.840        53
35.850        67
35.860        73
35.870        80
35.880        60
35.890        73
35.900        87
35.910        67
35.920        87
35.930        87
35.940        93
35.950        93
35.960        53
35.970        47
35.980        73
35.990        80
36.000        60
36.010        53
36.020        73
36.030        67
36.040        80
36.050       107
36.060        87
36.070        33
36.080        53
36.090        60
36.100        67
36.110        80
36.120        40
36.130        47
36.140        60
36.150        87
36.160        87
36.170        47
36.180        40
36.190        93
36.200        47
36.210        60
36.220        60
36.230        73
36.240        60
36.250        53
36.260        73
36.270        67
36.280        40
36.290        80
36.300        80
36.310        53
36.320        67
36.330        27
36.340        53
36.350        60
36.360        53
36.370        87
36.380        40
36.390        53
36.400        73
36.410        73
36.420        47
36.430        80
36.440        33
36.450        67
36.460        67
36.470        73
36.480        53
36.490        67
36.500        67
36.510        40
36.520       100
36.530        53
36.540        47
36.550        47
36.560        60
36.570        53
36.580        60
36.590        87
36.600        40
36.610       113
36.620        40
36.630        80
36.640        67
36.650        80
36.660        67
36.670        27
36.680        47
36.690        53
36.700        53
36.710        80
36.720        60
36.730        47
36.740        80
36.750        73
36.760       100
36.770        40
36.780        67
36.790        87
36.800        33
36.810       113
36.820        60
36.830        73
36.840        60
36.850        47
36.860        53
36.870        33
36.880        67
36.890        73
36.900        73
36.910        53
36.920        67
36.930        47
36.940        67
36.950        80
36.960        53
36.970        33
36.980       100
36.990        53
37.000        53
37.010        67
37.020        60
37.030        47
37.040        87
37.050        93
37.060        80
37.070        40
37.080        53
37.090        27
37.100        80
37.110        80
37.120        40
37.130        40
37.140        80
37.150        40
37.160        40
37.170        33
37.180        60
37.190        67
37.200        87
37.210        80
37.220        47
37.230        87
37.240        53
37.250        73
37.260        40
37.270        53
37.280        47
37.290        47
37.300        87
37.310        73
37.320        47
37.330        33
37.340       100
37.350        20
37.360        73
37.370        60
37.380        53
37.390        33
37.400        80
37.410        33
37.420        73
37.430       107
37.440        47
37.450        80
37.460        60
37.470        47
37.480        53
37.490        53
37.500        47
37.510        60
37.520        60
37.530        13
37.540        40
37.550        53
37.560        53
37.570        53
37.580        67
37.590        33
37.600        53
37.610        73
37.620        47
37.630        73
37.640        67
37.650        80
37.660        47
37.670        53
37.680        40
37.690        67
37.700        80
37.710        53
37.720        53
37.730        47
37.740        40
37.750        60
37.760        33
37.770        27
37.780        60
37.790        60
37.800        80
37.810        60
37.820        67
37.830        13
37.840        33
37.850        53
37.860        53
37.870        87
37.880        60
37.890        40
37.900        60
37.910        73
37.920        47
37.930        53
37.940        53
37.950        33
37.960        53
37.970        47
37.980        40
37.990        67
38.000        47
38.010        47
38.020        40
38.030        53
38.040        47
38.050        33
38.060        53
38.070        33
38.080        40
38.090        60
38.100        33
38.110        47
38.120        53
38.130        53
38.140        27
38.150        40
38.160        87
38.170        27
38.180        40
38.190        20
38.200        67
38.210        47
38.220        27
38.230        40
38.240        47
38.250        60
38.260        53
38.270        60
38.280        60
38.290        27
38.300        20
38.310        60
38.320        47
38.330        60
38.340        60
38.350        60
38.360        53
38.370        87
38.380        33
38.390        60
38.400        20
38.410        47
38.420        33
38.430        40
38.440        53
38.450        40
38.460        33
38.470        33
38.480        53
38.490        53
38.500        40
38.510        53
38.520        27
38.530        33
38.540        33
38.550        60
38.560        47
38.570        40
38.580        33
38.590        33
38.600        13
38.610        47
38.620        33
38.630        93
38.640        33
38.650        27
38.660        33
38.670        60
38.680        53
38.690        33
38.700        40
38.710        80
38.720        33
38.730        40
38.740        60
38.750        60
38.760        53
38.770        13
38.780        33
38.790        27
38.800        27
38.810        33
38.820        67
38.830        47
38.840        33
38.850        73
38.860        47
38.870        20
38.880        67
38.890        27
38.900        40
38.910        47
38.920        47
38.930        33
38.940        40
38.950        27
38.960        67
38.970         7
38.980        60
38.990        53
39.000        47
39.010        73
39.020        40
39.030        33
39.040        20
39.050        20
39.060        80
39.070        60
39.080        40
39.090        47
39.100        40
39.110        33
39.120        33
39.130        13
39.140        33
39.150        60
39.160        47
39.170        53
39.180        67
39.190        13
39.200        60
39.210        67
39.220        87
39.230        60
39.240        33
39.250        33
39.260        53
39.270        40
39.280        27
39.290        47
39.300        40
39.310        47
39.320        47
39.330        40
39.340        40
39.350        67
39.360        27
39.370        20
39.380        47
39.390        27
39.400        27
39.410        27
39.420        60
39.430        40
39.440        60
39.450        47
39.460        40
39.470        73
39.480        33
39.490        53
39.500        47
39.510        73
39.520        13
39.530         7
39.540        40
39.550        40
39.560        67
39.570        20
39.580        53
39.590        33
39.600        40
39.610        67
39.620        33
39.630        13
39.640        20
39.650        20
39.660        33
39.670        33
39.680        27
39.690        87
39.700        60
39.710        13
39.720        27
39.730        47
39.740        20
39.750        53
39.760        20
39.770        73
39.780        60
39.790        67
39.800        67
39.810        47
39.820        53
39.830        33
39.840        33
39.850        80
39.860        67
39.870        53
39.880        33
39.890        33
39.900        40
39.910        93
39.920        13
39.930        47
39.940        47
39.950        67
39.960        13
39.970        33
39.980        53
39.990        53
40.000        67
40.010        67
40.020       113
40.030        67
40.040        33
40.050        47
40.060        47
40.070        33
40.080        80
40.090        67
40.100        47
40.110        40
40.120        20
40.130        67
40.140        60
40.150        53
40.160        40
40.170         7
40.180        60
40.190        40
40.200        13
40.210        40
40.220        53
40.230        47
40.240        73
40.250       107
40.260        40
40.270        40
40.280        33
40.290        33
40.300        47
40.310        73
40.320        60
40.330        33
40.340        60
40.350        47
40.360        40
40.370        20
40.380        27
40.390        40
40.400        67
40.410        33
40.420        33
40.430        67
40.440         7
40.450         0
40.460        33
40.470        20
40.480         7
40.490        60
40.500        33
40.510        27
40.520        33
40.530        60
40.540        47
40.550        33
40.560        60
40.570        47
40.580        53
40.590        40
40.600        47
40.610        33
40.620        40
40.630        40
40.640        27
40.650        13
40.660        60
40.670        40
40.680        40
40.690        53
40.700        73
40.710        33
40.720        33
40.730        27
40.740        20
40.750        47
40.760        20
40.770        40
40.780        33
40.790        27
40.800        27
40.810        33
40.820        33
40.830        27
40.840        33
40.850        40
40.860        27
40.870        53
40.880        33
40.890        33
40.900        33
40.910        53
40.920        60
40.930        27
40.940        40
40.950        47
40.960        20
40.970        47
40.980        73
40.990        53
41.000        13
41.010        33
41.020        20
41.030        40
41.040        73
41.050        40
41.060        47
41.070         7
41.080        13
41.090       100
41.100        47
41.110        47
41.120        53
41.130        33
41.140        47
41.150        53
41.160       100
41.170        67
41.180        67
41.190        33
41.200        40
41.210        27
41.220        20
41.230        33
41.240        53
41.250        53
41.260        27
41.270        47
41.280        60
41.290        27
41.300        20
41.310        53
41.320        47
41.330        27
41.340        33
41.350        67
41.360        73
41.370        13
41.380        47
41.390        60
41.400        73
41.410        47
41.420        33
41.430        47
41.440        73
41.450        33
41.460        53
41.470        33
41.480        47
41.490        33
41.500        27
41.510        47
41.520        27
41.530        53
41.540        60
41.550        60
41.560        67
41.570        47
41.580        53
41.590        20
41.600        40
41.610        27
41.620        33
41.630        53
41.640        40
41.650        53
41.660        13
41.670        47
41.680        33
41.690        67
41.700        40
41.710        33
41.720        80
41.730        60
41.740        47
41.750        93
41.760        20
41.770        53
41.780        13
41.790        47
41.800        60
41.810        27
41.820        53
41.830        40
41.840        60
41.850        60
41.860        60
41.870        33
41.880        40
41.890         7
41.900        60
41.910        47
41.920        33
41.930        40
41.940        40
41.950        33
41.960        47
41.970        20
41.980        47
41.990        33
42.000        33
42.010        27
42.020        33
42.030        47
42.040        33
42.050        33
42.060        33
42.070        73
42.080        53
42.090        47
42.100        67
42.110        40
42.120        20
42.130        67
42.140        27
42.150        27
42.160        20
42.170        20
42.180        20
42.190        27
42.200        33
42.210        33
42.220        20
42.230        40
42.240        40
42.250        27
42.260        40
42.270        40
42.280        13
42.290        27
42.300        27
42.310         7
42.320        20
42.330        13
42.340        27
42.350        13
42.360        73
42.370        33
42.380        73
42.390        40
42.400        47
42.410        20
42.420        33
42.430        27
42.440        33
42.450         7
42.460        33
42.470        27
42.480        40
42.490        33
42.500        33
42.510        20
42.520        53
42.530        20
42.540       107
42.550        40
42.560        27
42.570        27
42.580        53
42.590        20
42.600        13
42.610        33
42.620        33
42.630        33
42.640        47
42.650        40
42.660        33
42.670        53
42.680        27
42.690        27
42.700        20
42.710        13
42.720        20
42.730        40
42.740        33
42.750        40
42.760        27
42.770        27
42.780        60
42.790        27
42.800        27
42.810        53
42.820        47
42.830        27
42.840        13
42.850        27
42.860        27
42.870        40
42.880        33
42.890        40
42.900        27
42.910        47
42.920        33
42.930        33
42.940        40
42.950        27
42.960        47
42.970        53
42.980        47
42.990        33
43.000        13
43.010        47
43.020        13
43.030        13
43.040        13
43.050        40
43.060        40
43.070        60
43.080        20
43.090        60
43.100        13
43.110        47
43.120        33
43.130        13
43.140        60
43.150        40
43.160        27
43.170        13
43.180        33
43.190        27
43.200        40
43.210        20
43.220        40
43.230        27
43.240        27
43.250        40
43.260        47
43.270        67
43.280        47
43.290        13
43.300        47
43.310        27
43.320        27
43.330        47
43.340        53
43.350        27
43.360        27
43.370        33
43.380        27
43.390         7
43.400        20
43.410        27
43.420        33
43.430        53
43.440        40
43.450        40
43.460        33
43.470        33
43.480        27
43.490        20
43.500        33
43.510        47
43.520        47
43.530        53
43.540        13
43.550        20
43.560        20
43.570        60
43.580        13
43.590        60
43.600        53
43.610        13
43.620        40
43.630        47
43.640        20
43.650         7
43.660        27
43.670        27
43.680        27
43.690        47
43.700        27
43.710        13
43.720        27
43.730        20
43.740        20
43.750        40
43.760        27
43.770        60
43.780        73
43.790        27
43.800        27
43.810        27
43.820        33
43.830        47
43.840        13
43.850        13
43.860        73
43.870        47
43.880        20
43.890        73
43.900        13
43.910        20
43.920        33
43.930        27
43.940        47
43.950        47
43.960        33
43.970        20
43.980        13
43.990        33
44.000        27
44.010        33
44.020        27
44.030        27
44.040        40
44.050        33
44.060        53
44.070        27
44.080        53
44.090        33
44.100        40
44.110        33
44.120        47
44.130        60
44.140        53
44.150        47
44.160        20
44.170        27
44.180        20
44.190        20
44.200        67
44.210        40
44.220        47
44.230        27
44.240        47
44.250        40
44.260        33
44.270        80
44.280        40
44.290        13
44.300        27
44.310        47
44.320        73
44.330        47
44.340        47
44.350        60
44.360        40
44.370        33
44.380        53
44.390        27
44.400        40
44.410        33
44.420        47
44.430        33
44.440        33
44.450        47
44.460        33
44.470        53
44.480        33
44.490         7
44.500        27
44.510        40
44.520        60
44.530        73
44.540        33
44.550        47
44.560        73
44.570        60
44.580        60
44.590        47
44.600        27
44.610        40
44.620        53
44.630        60
44.640        53
44.650        33
44.660        27
44.670        47
44.680        47
44.690       113
44.700        20
44.710        47
44.720        87
44.730        60
44.740        53
44.750        60
44.760       107
44.770        33
44.780        33
44.790        73
44.800        47
44.810        93
44.820        67
44.830       107
44.840       113
44.850        53
44.860        67
44.870        73
44.880       120
44.890        73
44.900        80
44.910        60
44.920        47
44.930       100
44.940       100
44.950        87
44.960        80
44.970        80
44.980        73
44.990       100
45.000        87
45.010        60
45.020        73
45.030        80
45.040        93
45.050        40
45.060        87
45.070        47
45.080        53
45.090        53
45.100        87
45.110        93
45.120        87
45.130       113
45.140       127
45.150       100
45.160        47
45.170        53
45.180        93
45.190        67
45.200       113
45.210       107
45.220        87
45.230        67
45.240        73
45.250       140
45.260       147
45.270       127
45.280       107
45.290       133
45.300       160
45.310        80
45.320        73
45.330       173
45.340       113
45.350       127
45.360       100
45.370       147
45.380        87
45.390       127
45.400       140
45.410        87
45.420       167
45.430       120
45.440       133
45.450       127
45.460       147
45.470       160
45.480       187
45.490       253
45.500       207
45.510       193
45.520       240
45.530       220
45.540       213
45.550       220
45.560       193
45.570       273
45.580       140
45.590       187
45.600       247
45.610       207
45.620       253
45.630       267
45.640       293
45.650       320
45.660       293
45.670       293
45.680       293
45.690       287
45.700       393
45.710       333
45.720       360
45.730       413
45.740       460
45.750       500
45.760       473
45.770       500
45.780       433
45.790       520
45.800       533
45.810       500
45.820       520
45.830       633
45.840       733
45.850       673
45.860       680
45.870       673
45.880       840
45.890       773
45.900       933
45.910       893
45.920      1000
45.930       940
45.940      1106
45.950      1066
45.960      1033
45.970      1226
45.980      1246
45.990      1333
46.000      1293
46.010      1426
46.020      1313
46.030      1699
46.040      1799
46.050      1919
46.060      1966
46.070      1759
46.080      2119
46.090      1926
46.100      2272
46.110      2172
46.120      2366
46.130      2366
46.140      2459
46.150      2386
46.160      2606
46.170      2879
46.180      2886
46.190      3045
46.200      2892
46.210      2939
46.220      2972
46.230      3139
46.240      3245
46.250      3299
46.260      2892
46.270      3099
46.280      3225
46.290      3179
46.300      3239
46.310      3012
46.320      3232
46.330      3065
46.340      3185
46.350      3499
46.360      3019
46.370      3245
46.380      3092
46.390      3219
46.400      3099
46.410      3192
46.420      2959
46.430      2906
46.440      2832
46.450      2552
46.460      2799
46.470      2519
46.480      2666
46.490      2439
46.500      2232
46.510      1919
46.520      2092
46.530      2332
46.540      2059
46.550      1899
46.560      1859
46.570      1746
46.580      1593
46.590      1873
46.600      1679
46.610      1513
46.620      1559
46.630      1306
46.640      1180
46.650      1253
46.660      1160
46.670      1233
46.680      1246
46.690       980
46.700      1086
46.710       913
46.720      1000
46.730       960
46.740       840
46.750       666
46.760       773
46.770       780
46.780       773
46.790       653
46.800       760
46.810       653
46.820       640
46.830       680
46.840       586
46.850       746
46.860       513
46.870       486
46.880       606
46.890       513
46.900       440
46.910       506
46.920       520
46.930       373
46.940       393
46.950       380
46.960       313
46.970       380
46.980       347
46.990       373
47.000       400
47.010       373
47.020       333
47.030       380
47.040       407
47.050       300
47.060       340
47.070       287
47.080       313
47.090       273
47.100       373
47.110       320
47.120       380
47.130       293
47.140       187
47.150       380
47.160       493
47.170       606
47.180       780
47.190       853
47.200      1080
47.210      1279
47.220      1180
47.230      1266
47.240       953
47.250       793
47.260       813
47.270       533
47.280       426
47.290       280
47.300       293
47.310       300
47.320       187
47.330       260
47.340       233
47.350       187
47.360       180
47.370       220
47.380       233
47.390       187
47.400       200
47.410       153
47.420       213
47.430       193
47.440       133
47.450       113
47.460       173
47.470       140
47.480       147
47.490        80
47.500       167
47.510       127
47.520        87
47.530       100
47.540       127
47.550        80
47.560        73
47.570       107
47.580       100
47.590       133
47.600       127
47.610       153
47.620        93
47.630       140
47.640       133
47.650       133
47.660       107
47.670       127
47.680       107
47.690       107
47.700       147
47.710       100
47.720       100
47.730        53
47.740       113
47.750       107
47.760        53
47.770        67
47.780       133
47.790       113
47.800        67
47.810       120
47.820        87
47.830       113
47.840       113
47.850       107
47.860        80
47.870        80
47.880        67
47.890        73
47.900        73
47.910        60
47.920        47
47.930        73
47.940        73
47.950        60
47.960        47
47.970        80
47.980        87
47.990        73
48.000        73
48.010        47
48.020        27
48.030        80
48.040       127
48.050       120
48.060        87
48.070        67
48.080        87
48.090        33
48.100        87
48.110        40
48.120        53
48.130        67
48.140        67
48.150        47
48.160        73
48.170        33
48.180        80
48.190        60
48.200        33
48.210        27
48.220        93
48.230        80
48.240        53
48.250        53
48.260        93
48.270        73
48.280        40
48.290        40
48.300        53
48.310        87
48.320        93
48.330        87
48.340        80
48.350       100
48.360        80
48.370        67
48.380        60
48.390        73
48.400        47
48.410        33
48.420        47
48.430        53
48.440       107
48.450        60
48.460        60
48.470        73
48.480        40
48.490        20
48.500        87
48.510        47
48.520        60
48.530        80
48.540        60
48.550        60
48.560        80
48.570        27
48.580        53
48.590        73
48.600        93
48.610       100
48.620        67
48.630        80
48.640        47
48.650        60
48.660        73
48.670        60
48.680        40
48.690        67
48.700        60
48.710        33
48.720       100
48.730        27
48.740        60
48.750        67
48.760        53
48.770        73
48.780        40
48.790        53
48.800        53
48.810        73
48.820        73
48.830        47
48.840        13
48.850        33
48.860        27
48.870        47
48.880        53
48.890        53
48.900        13
48.910        47
48.920        47
48.930       113
48.940        73
48.950        33
48.960        73
48.970        20
48.980        87
48.990        53
49.000        67
49.010       100
49.020        47
49.030        53
49.040        33
49.050        47
49.060        73
49.070        60
49.080        67
49.090        60
49.100        40
49.110        40
49.120        67
49.130        40
49.140        67
49.150        47
49.160        73
49.170        60
49.180        27
49.190        47
49.200        33
49.210        53
49.220        53
49.230        33
49.240        27
49.250        20
49.260        47
49.270        33
49.280        40
49.290        93
49.300        33
49.310        33
49.320        47
49.330        67
49.340        40
49.350        47
49.360        60
49.370        33
49.380        60
49.390        40
49.400        60
49.410        60
49.420        67
49.430        40
49.440        53
49.450        53
49.460        47
49.470        47
49.480        47
49.490        20
49.500        53
49.510        40
49.520        40
49.530        47
49.540        60
49.550        27
49.560        67
49.570        27
49.580        73
49.590        53
49.600        40
49.610        53
49.620        47
49.630        20
49.640        27
49.650        33
49.660        40
49.670        53
49.680       100
49.690        67
49.700        33
49.710        47
49.720        53
49.730        53
49.740        53
49.750        27
49.760        20
49.770        40
49.780        53
49.790        60
49.800        47
49.810        67
49.820        33
49.830        40
49.840        20
49.850        67
49.860        53
49.870        60
49.880        27
49.890        33
49.900        47
49.910        53
49.920        33
49.930        40
49.940        27
49.950        27
49.960        47
49.970        27
49.980        53
49.990        20
50.000        60
50.010        47
50.020        33
50.030        20
50.040        40
50.050       107
50.060        33
50.070        33
50.080        53
50.090        33
50.100        53
50.110        47
50.120        27
50.130        27
50.140        33
50.150        40
50.160        67
50.170        47
50.180        27
50.190        40
50.200        47
50.210        33
50.220        53
50.230        47
50.240        47
50.250        60
50.260        47
50.270        67
50.280        67
50.290        60
50.300        47
50.310        40
50.320        27
50.330        27
50.340        20
50.350        33
50.360        47
50.370        40
50.380        40
50.390        60
50.400        53
50.410       100
50.420        93
50.430        53
50.440        33
50.450        47
50.460        53
50.470        40
50.480        27
50.490        33
50.500        53
50.510        40
50.520        33
50.530        40
50.540        47
50.550        47
50.560        60
50.570        67
50.580        47
50.590        80
50.600        93
50.610        80
50.620       107
50.630        67
50.640        27
50.650        93
50.660       120
50.670       127
50.680       133
50.690       260
50.700       147
50.710       240
50.720       193
50.730       233
50.740       320
50.750       247
50.760       280
50.770       213
50.780       360
50.790       233
50.800       293
50.810       247
50.820       287
50.830       227
50.840       233
50.850       373
50.860       267
50.870       287
50.880       313
50.890       247
50.900       293
50.910       293
50.920       333
50.930       347
50.940       247
50.950       280
50.960       313
50.970       253
50.980       333
50.990       347
51.000       307
51.010       207
51.020       353
51.030       307
51.040       320
51.050       287
51.060       247
51.070       320
51.080       340
51.090       320
51.100       340
51.110       300
51.120       260
51.130       260
51.140       353
51.150       273
51.160       287
51.170       333
51.180       347
51.190       260
51.200       340
51.210       267
51.220       227
51.230       313
51.240       260
51.250       313
51.260       213
51.270       253
51.280       240
51.290       307
51.300       240
51.310       327
51.320       300
51.330       200
51.340       313
51.350       213
51.360       287
51.370       293
51.380       307
51.390       240
51.400       273
51.410       360
51.420       233
51.430       360
51.440       313
51.450       267
51.460       260
51.470       307
51.480       293
51.490       380
51.500       360
51.510       273
51.520       280
51.530       340
51.540       267
51.550       313
51.560       287
51.570       340
51.580       380
51.590       267
51.600       253
51.610       413
51.620       327
51.630       333
51.640       260
51.650       213
51.660       333
51.670       353
51.680       320
51.690       333
51.700       387
51.710       260
51.720       273
51.730       333
51.740       327
51.750       320
51.760       313
51.770       260
51.780       273
51.790       313
51.800       380
51.810       360
51.820       327
51.830       253
51.840       380
51.850       267
51.860       260
51.870       307
51.880       313
51.890       453
51.900       353
51.910       367
51.920       300
51.930       267
51.940       340
51.950       387
51.960       287
51.970       387
51.980       360
51.990       347
52.000       426
52.010       453
52.020       380
52.030       353
52.040       387
52.050       420
52.060       420
52.070       446
52.080       440
52.090       446
52.100       446
52.110       387
52.120       506
52.130       500
52.140       593
52.150       580
52.160       460
52.170       586
52.180       620
52.190       573
52.200       566
52.210       580
52.220       513
52.230       713
52.240       660
52.250       766
52.260       800
52.270      1000
52.280       893
52.290       993
52.300      1000
52.310      1339
52.320      1526
52.330      1859
52.340      2099
52.350      1973
52.360      2326
52.370      2312
52.380      2686
52.390      3025
52.400      3525
52.410      3898
52.420      4292
52.430      4978
52.440      5884
52.450      6484
52.460      6444
52.470      7084
52.480      7544
52.490      8083
52.500      8916
52.510      9896
52.520     11409
52.530     13508
52.540     18693
52.550     26603
52.560     43982
52.570     67573
52.580     93809
52.590    112402
52.600    124564
52.610    129928
52.620    130448
52.630    122578
52.640    102259
52.650     77562
52.660     51673
52.670     34926
52.680     27229
52.690     26603
52.700     31447
52.710     41897
52.720     54658
52.730     65014
52.740     70285
52.750     74690
52.760     72724
52.770     67466
52.780     56324
52.790     41937
52.800     27749
52.810     18379
52.820     12042
52.830      8930
52.840      7024
52.850      6284
52.860      5371
52.870      4758
52.880      4405
52.890      3832
52.900      3732
52.910      3052
52.920      2599
52.930      2332
52.940      1826
52.950      1459
52.960      1433
52.970      1379
52.980      1106
52.990      1126
53.000      1133
53.010       946
53.020       993
53.030      1006
53.040       806
53.050       946
53.060       806
53.070       706
53.080       693
53.090       840
53.100       606
53.110       653
53.120       540
53.130       600
53.140       626
53.150       540
53.160       626
53.170       553
53.180       620
53.190       540
53.200       553
53.210       566
53.220       520
53.230       600
53.240       493
53.250       473
53.260       486
53.270       546
53.280       460
53.290       426
53.300       407
53.310       353
53.320       433
53.330       413
53.340       400
53.350       360
53.360       486
53.370       353
53.380       340
53.390       500
53.400       267
53.410       327
53.420       320
53.430       347
53.440       367
53.450       353
53.460       313
53.470       300
53.480       340
53.490       287
53.500       433
53.510       267
53.520       340
53.530       367
53.540       273
53.550       333
53.560       367
53.570       253
53.580       280
53.590       367
53.600       273
53.610       300
53.620       240
53.630       353
53.640       313
53.650       327
53.660       413
53.670       227
53.680       280
53.690       240
53.700       320
53.710       340
53.720       340
53.730       340
53.740       253
53.750       287
53.760       267
53.770       213
53.780       387
53.790       233
53.800       247
53.810       247
53.820       253
53.830       253
53.840       227
53.850       247
53.860       260
53.870       280
53.880       220
53.890       233
53.900       247
53.910       240
53.920       240
53.930       240
53.940       287
53.950       267
53.960       273
53.970       180
53.980       200
53.990       307
54.000       253
54.010       240
54.020       267
54.030       247
54.040       233
54.050       347
54.060       233
54.070       193
54.080       207
54.090       227
54.100       153
54.110       227
54.120       180
54.130       213
54.140       200
54.150       213
54.160       247
54.170       327
54.180       160
54.190       227
54.200       187
54.210       240
54.220       200
54.230       220
54.240       200
54.250       273
54.260       207
54.270       160
54.280       287
54.290       180
54.300       213
54.310       200
54.320       200
54.330       260
54.340       280
54.350       233
54.360       320
54.370       233
54.380       220
54.390       307
54.400       180
54.410       160
54.420       200
54.430       207
54.440       327
54.450       213
54.460       233
54.470       193
54.480       193
54.490       160
54.500       213
54.510       200
54.520       207
54.530       213
54.540       227
54.550       167
54.560       200
54.570       267
54.580       200
54.590       240
54.600       213
54.610       173
54.620       153
54.630       220
54.640       160
54.650       207
54.660       227
54.670       233
54.680       193
54.690       167
54.700       227
54.710       287
54.720       113
54.730       280
54.740       173
54.750       187
54.760       140
54.770       200
54.780       153
54.790       147
54.800       153
54.810       187
54.820       187
54.830       173
54.840       180
54.850       173
54.860       147
54.870       193
54.880       167
54.890       200
54.900       160
54.910       160
54.920       200
54.930       147
54.940       147
54.950       273
54.960       200
54.970       200
54.980       187
54.990       153
55.000       187
55.010       187
55.020       247
55.030       180
55.040       187
55.050       160
55.060       207
55.070       213
55.080       167
55.090       200
55.100       260
55.110       193
55.120       240
55.130       180
55.140       140
55.150       173
55.160       147
55.170       153
55.180       127
55.190       160
55.200       160
55.210       147
55.220       153
55.230       153
55.240       207
55.250       180
55.260       180
55.270       120
55.280       180
55.290       140
55.300       200
55.310       153
55.320       180
55.330       207
55.340       213
55.350       113
55.360       167
55.370       140
55.380       213
55.390       193
55.400       133
55.410       127
55.420       207
55.430       187
55.440       160
55.450       160
55.460       180
55.470       140
55.480       200
55.490       160
55.500       173
55.510       153
55.520       193
55.530       187
55.540       153
55.550       140
55.560       140
55.570       167
55.580       200
55.590       180
55.600       153
55.610       153
55.620       160
55.630       133
55.640       127
55.650       167
55.660       160
55.670       140
55.680       167
55.690       100
55.700       173
55.710       127
55.720       160
55.730       113
55.740       160
55.750       167
55.760       140
55.770       120
55.780       167
55.790       180
55.800       200
55.810        93
55.820       140
55.830       153
55.840       153
55.850       167
55.860       140
55.870       107
55.880       113
55.890       107
55.900       133
55.910       100
55.920       100
55.930       173
55.940       120
55.950       273
55.960       107
55.970       153
55.980       160
55.990        87
56.000       133
56.010       100
56.020       180
56.030       160
56.040       173
56.050       160
56.060       207
56.070       133
56.080       160
56.090       113
56.100       193
56.110       153
56.120       220
56.130       113
56.140       173
56.150       107
56.160       133
56.170       193
56.180       107
56.190       107
56.200       100
56.210       133
56.220        87
56.230       113
56.240        93
56.250       113
56.260       147
56.270       160
56.280       127
56.290       173
56.300       127
56.310       107
56.320       120
56.330       133
56.340       153
56.350        87
56.360       200
56.370       133
56.380       207
56.390       147
56.400       153
56.410       127
56.420       200
56.430       167
56.440       193
56.450       107
56.460       120
56.470       133
56.480       167
56.490       107
56.500       160
56.510       120
56.520       127
56.530       127
56.540       120
56.550       160
56.560       127
56.570       133
56.580       140
56.590       120
56.600       107
56.610       100
56.620       153
56.630       167
56.640       127
56.650       153
56.660       120
56.670       147
56.680       140
56.690       127
56.700       153
56.710        80
56.720       140
56.730        73
56.740        93
56.750       113
56.760       160
56.770       133
56.780       147
56.790       100
56.800       120
56.810       140
56.820       127
56.830       140
56.840       120
56.850       100
56.860       193
56.870       213
56.880       153
56.890       160
56.900       140
56.910       113
56.920       160
56.930       113
56.940       140
56.950       180
56.960       153
56.970       120
56.980       127
56.990        93
57.000        87
57.010       107
57.020       107
57.030       207
57.040       133
57.050       100
57.060       113
57.070        87
57.080       167
57.090       193
57.100       140
57.110       120
57.120       160
57.130       127
57.140       147
57.150       127
57.160       153
57.170       160
57.180       160
57.190       127
57.200        80
57.210       187
57.220       127
57.230       107
57.240        93
57.250       147
57.260       147
57.270       133
57.280       113
57.290       120
57.300        80
57.310       167
57.320       147
57.330       173
57.340       113
57.350        93
57.360       113
57.370       100
57.380       193
57.390       107
57.400       100
57.410        93
57.420       133
57.430       127
57.440        67
57.450       193
57.460       147
57.470       107
57.480       100
57.490       140
57.500       140
57.510       113
57.520       107
57.530       100
57.540       147
57.550       100
57.560        73
57.570       107
57.580       107
57.590       127
57.600        93
57.610       147
57.620       140
57.630       107
57.640       113
57.650        60
57.660        87
57.670       153
57.680       140
57.690       120
57.700       127
57.710       140
57.720       153
57.730        80
57.740       120
57.750       147
57.760        67
57.770        73
57.780       153
57.790        93
57.800       100
57.810       107
57.820        80
57.830       100
57.840       133
57.850       167
57.860       100
57.870       173
57.880        87
57.890       120
57.900       120
57.910        80
57.920       200
57.930       160
57.940       113
57.950       153
57.960       127
57.970        87
57.980       113
57.990        73
58.000       100
58.010       127
58.020        93
58.030       133
58.040       120
58.050       127
58.060       193
58.070       107
58.080       120
58.090       133
58.100       140
58.110       107
58.120       153
58.130        80
58.140       100
58.150       100
58.160       140
58.170        80
58.180        93
58.190       127
58.200        93
58.210       213
58.220       127
58.230       147
58.240        80
58.250        60
58.260       120
58.270       120
58.280        93
58.290       100
58.300        73
58.310       107
58.320       120
58.330       107
58.340       100
58.350       147
58.360       107
58.370       113
58.380       100
58.390       140
58.400       147
58.410       107
58.420       133
58.430       107
58.440       120
58.450       107
58.460        87
58.470       133
58.480        93
58.490       147
58.500       153
58.510       107
58.520       120
58.530       107
58.540       100
58.550        73
58.560        73
58.570        67
58.580        87
58.590       153
58.600       113
58.610       120
58.620        80
58.630       113
58.640        60
58.650        80
58.660       100
58.670       133
58.680       120
58.690       167
58.700        80
58.710        73
58.720        93
58.730        67
58.740       113
58.750        87
58.760        73
58.770        93
58.780       100
58.790        80
58.800       107
58.810       133
58.820       100
58.830       147
58.840       120
58.850        67
58.860       140
58.870       107
58.880       167
58.890       127
58.900        87
58.910        93
58.920       100
58.930        87
58.940        80
58.950       127
58.960       113
58.970        80
58.980       107
58.990        80
59.000       133
59.010       113
59.020       107
59.030       120
59.040       113
59.050       120
59.060       133
59.070        73
59.080       107
59.090        53
59.100        80
59.110       100
59.120        80
59.130       140
59.140       127
59.150       100
59.160        80
59.170       100
59.180       100
59.190       133
59.200        80
59.210       107
59.220        53
59.230       113
59.240       127
59.250       153
59.260       113
59.270        80
59.280       113
59.290        67
59.300       107
59.310       107
59.320        67
59.330       100
59.340        40
59.350       107
59.360       127
59.370       100
59.380        93
59.390       127
59.400        80
59.410        67
59.420        93
59.430       120
59.440       120
59.450        73
59.460       120
59.470       120
59.480       127
59.490       120
59.500       113
59.510       133
59.520        53
59.530        87
59.540        60
59.550        80
59.560        80
59.570        60
59.580        87
59.590        73
59.600        67
59.610       113
59.620       113
59.630        87
59.640       133
59.650        87
59.660        87
59.670        93
59.680       133
59.690       113
59.700        73
59.710        87
59.720       120
59.730        67
59.740       140
59.750       100
59.760       127
59.770        80
59.780        67
59.790       127
59.800        73
59.810        93
59.820        80
59.830       107
59.840        47
59.850        47
59.860       127
59.870       120
59.880       113
59.890        27
59.900       107
59.910        67
59.920        87
59.930        80
59.940        80
59.950       113
59.960       120
59.970       100
59.980       100
59.990        80
60.000        60
