20.000        47
20.010        53
20.020        47
20.030        40
20.040        13
20.050        40
20.060        33
20.070        33
20.080        20
20.090        40
20.100        13
20.110         0
20.120        47
20.130        53
20.140        20
20.150        20
20.160        47
20.170        20
20.180        47
20.190        53
20.200        33
20.210        33
20.220        53
20.230        67
20.240        13
20.250        60
20.260        73
20.270        40
20.280        60
20.290        60
20.300        33
20.310        33
20.320        73
20.330        20
20.340        27
20.350        47
20.360        47
20.370        33
20.380        53
20.390        60
20.400        87
20.410        40
20.420        47
20.430        33
20.440        60
20.450        27
20.460        40
20.470        73
20.480        27
20.490        27
20.500        47
20.510        67
20.520        27
20.530        60
20.540        47
20.550        20
20.560        67
20.570        20
20.580        27
20.590        33
20.600        67
20.610        93
20.620        67
20.630        40
20.640        47
20.650        33
20.660        33
20.670        73
20.680        27
20.690        20
20.700        40
20.710        40
20.720        27
20.730        33
20.740        40
20.750        13
20.760        27
20.770        27
20.780        73
20.790        33
20.800        47
20.810        33
20.820        20
20.830        33
20.840        33
20.850        67
20.860        47
20.870        40
20.880        40
20.890        27
20.900        47
20.910        33
20.920        13
20.930        47
20.940        20
20.950        27
20.960        53
20.970        67
20.980         7
20.990        20
21.000        47
21.010        33
21.020        13
21.030        27
21.040        60
21.050        40
21.060        67
21.070        67
21.080        27
21.090        27
21.100        53
21.110        40
21.120         7
21.130        27
21.140        53
21.150        27
21.160        47
21.170        40
21.180        67
21.190        20
21.200        60
21.210        13
21.220        27
21.230        13
21.240        27
21.250        47
21.260        67
21.270        53
21.280        27
21.290        13
21.300        53
21.310        47
21.320        47
21.330        47
21.340        73
21.350        33
21.360        60
21.370        87
21.380        20
21.390        40
21.400        40
21.410        60
21.420        27
21.430        40
21.440        13
21.450        40
21.460        33
21.470        53
21.480        60
21.490        13
21.500        33
21.510        20
21.520        47
21.530        53
21.540        40
21.550        40
21.560        20
21.570        40
21.580        20
21.590        27
21.600        67
21.610        47
21.620        67
21.630        60
21.640        27
21.650        53
21.660        53
21.670        47
21.680        53
21.690        40
21.700        40
21.710        47
21.720        53
21.730        53
21.740        53
21.750        40
21.760        20
21.770        40
21.780        40
21.790        53
21.800        47
21.810        13
21.820        33
21.830        27
21.840        33
21.850        40
21.860        73
21.870        73
21.880        53
21.890        53
21.900        40
21.910        27
21.920        40
21.930        47
21.940        47
21.950        60
21.960        47
21.970        60
21.980        53
21.990        53
22.000        47
22.010        40
22.020        47
22.030        27
22.040        33
22.050        27
22.060        80
22.070        33
22.080        73
22.090        53
22.100        33
22.110        47
22.120        40
22.130        13
22.140        20
22.150        60
22.160        33
22.170        33
22.180        40
22.190        47
22.200        33
22.210        27
22.220        40
22.230        60
22.240        27
22.250        60
22.260        73
22.270        40
22.280        60
22.290        53
22.300        33
22.310        67
22.320        60
22.330        67
22.340        47
22.350        40
22.360        60
22.370        60
22.380        47
22.390        53
22.400        93
22.410        67
22.420        93
22.430        60
22.440        87
22.450        93
22.460        40
22.470        87
22.480       113
22.490       100
22.500        87
22.510       127
22.520       133
22.530       113
22.540       100
22.550       253
22.560       187
22.570       187
22.580       207
22.590       213
22.600       187
22.610       233
22.620       213
22.630       320
22.640       267
22.650       213
22.660       333
22.670       333
22.680       240
22.690       253
22.700       340
22.710       233
22.720       287
22.730       273
22.740       220
22.750       300
22.760       293
22.770       247
22.780       233
22.790       193
22.800       160
22.810       220
22.820       127
22.830       160
22.840       153
22.850       107
22.860       193
22.870       160
22.880       127
22.890        87
22.900        93
22.910       107
22.920       113
22.930       127
22.940        67
22.950        67
22.960       113
22.970        60
22.980        60
22.990        73
23.000        67
23.010        73
23.020        80
23.030        47
23.040        80
23.050        53
23.060        67
23.070        53
23.080        40
23.090        60
23.100        87
23.110        60
23.120        47
23.130        67
23.140        40
23.150        47
23.160        27
23.170        40
23.180        67
23.190        60
23.200        47
23.210        80
23.220        53
23.230        47
23.240        53
23.250        53
23.260        33
23.270        53
23.280        27
23.290        13
23.300        87
23.310        47
23.320        40
23.330        47
23.340        40
23.350        67
23.360        27
23.370        53
23.380        27
23.390        40
23.400        87
23.410        40
23.420        20
23.430        20
23.440        27
23.450        53
23.460         7
23.470        60
23.480        33
23.490        60
23.500        33
23.510        53
23.520        27
23.530        33
23.540        13
23.550        33
23.560        60
23.570        40
23.580        53
23.590        53
23.600        47
23.610        33
23.620        27
23.630        27
23.640        53
23.650        60
23.660        20
23.670        53
23.680        80
23.690        53
23.700        47
23.710        47
23.720        13
23.730        67
23.740        47
23.750        33
23.760        40
23.770        33
23.780        27
23.790        40
23.800        20
23.810        40
23.820        53
23.830        47
23.840        67
23.850        73
23.860        53
23.870        53
23.880        27
23.890        40
23.900        40
23.910        47
23.920        13
23.930        33
23.940        27
23.950        20
23.960        80
23.970        67
23.980        33
23.990        27
24.000        47
24.010        33
24.020        27
24.030        40
24.040        33
24.050        53
24.060        13
24.070        27
24.080        33
24.090        27
24.100        27
24.110        40
24.120        20
24.130        40
24.140        20
24.150        33
24.160        53
24.170        47
24.180        40
24.190        47
24.200        40
24.210        27
24.220        33
24.230        20
24.240        20
24.250        60
24.260        47
24.270        27
24.280        60
24.290        27
24.300        47
24.310        33
24.320        40
24.330        27
24.340        20
24.350        40
24.360        40
24.370        33
24.380        47
24.390        33
24.400        40
24.410        33
24.420        27
24.430        47
24.440        27
24.450        47
24.460        40
24.470         0
24.480        47
24.490        13
24.500        47
24.510        47
24.520        13
24.530        47
24.540        40
24.550        20
24.560        40
24.570         7
24.580        47
24.590        33
24.600        40
24.610        33
24.620        47
24.630        13
24.640        87
24.650        47
24.660        40
24.670        53
24.680        80
24.690        33
24.700        47
24.710        40
24.720        47
24.730        40
24.740        20
24.750        33
24.760        20
24.770        40
24.780         7
24.790        20
24.800        27
24.810        47
24.820        47
24.830        20
24.840        20
24.850        47
24.860        47
24.870        40
24.880        33
24.890        53
24.900        53
24.910        40
24.920        40
24.930        53
24.940        40
24.950         7
24.960        40
24.970        47
24.980         0
24.990        60
25.000        33
25.010        27
25.020        20
25.030        40
25.040        27
25.050        40
25.060        73
25.070        53
25.080        20
25.090        20
25.100        27
25.110        47
25.120        33
25.130        20
25.140        27
25.150        33
25.160        67
25.170        53
25.180        33
25.190        40
25.200        27
25.210        33
25.220        20
25.230        47
25.240        40
25.250        53
25.260        33
25.270        33
25.280        33
25.290        40
25.300        27
25.310        60
25.320        40
25.330        47
25.340        40
25.350        27
25.360        53
25.370        20
25.380        33
25.390        47
25.400        67
25.410        27
25.420        60
25.430        13
25.440        53
25.450        40
25.460        60
25.470        13
25.480        60
25.490        47
25.500        53
25.510        60
25.520        93
25.530        73
25.540       120
25.550       100
25.560       133
25.570        47
25.580       107
25.590       160
25.600       167
25.610        60
25.620       127
25.630       173
25.640       127
25.650       140
25.660       120
25.670        73
25.680        73
25.690       107
25.700        53
25.710        60
25.720        67
25.730        60
25.740        67
25.750        40
25.760        27
25.770        40
25.780        47
25.790        27
25.800        40
25.810        40
25.820        33
25.830        13
25.840        47
25.850        33
25.860         7
25.870        40
25.880        47
25.890        20
25.900        53
25.910        60
25.920        27
25.930        20
25.940        33
25.950        20
25.960        60
25.970        53
25.980        33
25.990        33
26.000        53
26.010        40
26.020        40
26.030        13
26.040        33
26.050        60
26.060        27
26.070        27
26.080        67
26.090        27
26.100        60
26.110        53
26.120        60
26.130        33
26.140        33
26.150        33
26.160        40
26.170        27
26.180        47
26.190        13
26.200        33
26.210        53
26.220        20
26.230        33
26.240        20
26.250        53
26.260        20
26.270        33
26.280        53
26.290        53
26.300        27
26.310        67
26.320        33
26.330        27
26.340        40
26.350        33
26.360        53
26.370        13
26.380         7
26.390        53
26.400        47
26.410        47
26.420        47
26.430        33
26.440        20
26.450        27
26.460        33
26.470        27
26.480        20
26.490        40
26.500        33
26.510        53
26.520        13
26.530        47
26.540        20
26.550        53
26.560        27
26.570        40
26.580        53
26.590        27
26.600         0
26.610        60
26.620        33
26.630        60
26.640        33
26.650        27
26.660        27
26.670        27
26.680        40
26.690        20
26.700        40
26.710        20
26.720        13
26.730        47
26.740        20
26.750        40
26.760        33
26.770        40
26.780        33
26.790        13
26.800        33
26.810        27
26.820        20
26.830        27
26.840        20
26.850        20
26.860        33
26.870        73
26.880        27
26.890        27
26.900        13
26.910        33
26.920        27
26.930        33
26.940        27
26.950        33
26.960        27
26.970         0
26.980         7
26.990        53
27.000        47
27.010        27
27.020        33
27.030        27
27.040        27
27.050        33
27.060         7
27.070        33
27.080        47
27.090        33
27.100        33
27.110        33
27.120        33
27.130        20
27.140        40
27.150        40
27.160        53
27.170         0
27.180        33
27.190        60
27.200        47
27.210        47
27.220        27
27.230        33
27.240        60
27.250        20
27.260        27
27.270        67
27.280        20
27.290        20
27.300        20
27.310        20
27.320        33
27.330        13
27.340        40
27.350        27
27.360        20
27.370        27
27.380        40
27.390        20
27.400        27
27.410        47
27.420        20
27.430        53
27.440        13
27.450        33
27.460         7
27.470        27
27.480         7
27.490        27
27.500        33
27.510        13
27.520        47
27.530        27
27.540        33
27.550        33
27.560        20
27.570        33
27.580        27
27.590        33
27.600        33
27.610        53
27.620        33
27.630        27
27.640        33
27.650        20
27.660        13
27.670        47
27.680         7
27.690        67
27.700        20
27.710        40
27.720        13
27.730        20
27.740        33
27.750         0
27.760        33
27.770        53
27.780        13
27.790         7
27.800        20
27.810        20
27.820        20
27.830        47
27.840        33
27.850        13
27.860        33
27.870        47
27.880        20
27.890        20
27.900        20
27.910        33
27.920        33
27.930        20
27.940        47
27.950        60
27.960        60
27.970        40
27.980        33
27.990        40
28.000        33
28.010        20
28.020        27
28.030        20
28.040        27
28.050        13
28.060        27
28.070        40
28.080        27
28.090        33
28.100        33
28.110        20
28.120        27
28.130        40
28.140        47
28.150        20
28.160        47
28.170        27
28.180        27
28.190        40
28.200        13
28.210        33
28.220        40
28.230        47
28.240        53
28.250        13
28.260        40
28.270        40
28.280        13
28.290        13
28.300        27
28.310        33
28.320        33
28.330        40
28.340        20
28.350        27
28.360        60
28.370        27
28.380        27
28.390        20
28.400        40
28.410        13
28.420         0
28.430        27
28.440        67
28.450        20
28.460         7
28.470         7
28.480        33
28.490        60
28.500        33
28.510        47
28.520        20
28.530        47
28.540        20
28.550        47
28.560         7
28.570        33
28.580         7
28.590        27
28.600        33
28.610        33
28.620        40
28.630        33
28.640        13
28.650        40
28.660        27
28.670        20
28.680        47
28.690        33
28.700        27
28.710        40
28.720        47
28.730        33
28.740        47
28.750        47
28.760        33
28.770        33
28.780        27
28.790        27
28.800        27
28.810        33
28.820         7
28.830        40
28.840        27
28.850        33
28.860        47
28.870        47
28.880        27
28.890        27
28.900        33
28.910         0
28.920        40
28.930        13
28.940        20
28.950        33
28.960        27
28.970        27
28.980        33
28.990        33
29.000        33
29.010        13
29.020        20
29.030        20
29.040        40
29.050        20
29.060        60
29.070        40
29.080        20
29.090        20
29.100        13
29.110        20
29.120        20
29.130        47
29.140        40
29.150        13
29.160        33
29.170        20
29.180        33
29.190        13
29.200         7
29.210        13
29.220         0
29.230        13
29.240        47
29.250        13
29.260        20
29.270        40
29.280        27
29.290        47
29.300        33
29.310        13
29.320        53
29.330        33
29.340        33
29.350        13
29.360        13
29.370        13
29.380        27
29.390        27
29.400         7
29.410         0
29.420        53
29.430        33
29.440        33
29.450        27
29.460        27
29.470        33
29.480         7
29.490        47
29.500        33
29.510        33
29.520        20
29.530        60
29.540        33
29.550        53
29.560        20
29.570        33
29.580         7
29.590        27
29.600        33
29.610        20
29.620        20
29.630        47
29.640        13
29.650        20
29.660        33
29.670        13
29.680        67
29.690         0
29.700        27
29.710        40
29.720        27
29.730        13
29.740        33
29.750        47
29.760        27
29.770        20
29.780        40
29.790        13
29.800         7
29.810        47
29.820         7
29.830         7
29.840        27
29.850        27
29.860        27
29.870        53
29.880        13
29.890        20
29.900        13
29.910        33
29.920        20
29.930        27
29.940        33
29.950        27
29.960        13
29.970        20
29.980        13
29.990        20
30.000        33
30.010        47
30.020        40
30.030        47
30.040        27
30.050        40
30.060        20
30.070        20
30.080        33
30.090        40
30.100        27
30.110        27
30.120         7
30.130        47
30.140         0
30.150        47
30.160        27
30.170        27
30.180        33
30.190        53
30.200        27
30.210        20
30.220        33
30.230        27
30.240        13
30.250        13
30.260        20
30.270        33
30.280        27
30.290        47
30.300        13
30.310        20
30.320        27
30.330        33
30.340         7
30.350        20
30.360        20
30.370        13
30.380        20
30.390        40
30.400        40
30.410        13
30.420        33
30.430        20
30.440        40
30.450        20
30.460        27
30.470         0
30.480         0
30.490        27
30.500        27
30.510        47
30.520         7
30.530        20
30.540        33
30.550        13
30.560        33
30.570        40
30.580        20
30.590        20
30.600        20
30.610        33
30.620        53
30.630        27
30.640        27
30.650        47
30.660        13
30.670        13
30.680        33
30.690        27
30.700        33
30.710        33
30.720        33
30.730        33
30.740        27
30.750        13
30.760        40
30.770        33
30.780        33
30.790        13
30.800        60
30.810        40
30.820        33
30.830        33
30.840        33
30.850        13
30.860        27
30.870        20
30.880        33
30.890        13
30.900        20
30.910        13
30.920        47
30.930        20
30.940        20
30.950        40
30.960        27
30.970        13
30.980        13
30.990        47
31.000        33
31.010         7
31.020        20
31.030        33
31.040        20
31.050        27
31.060        20
31.070        33
31.080        20
31.090        33
31.100        67
31.110        13
31.120        40
31.130        33
31.140        20
31.150         0
31.160        27
31.170         7
31.180        33
31.190        33
31.200        27
31.210        27
31.220        27
31.230        60
31.240        20
31.250         7
31.260        33
31.270        20
31.280        13
31.290        53
31.300         7
31.310        20
31.320        27
31.330        20
31.340        20
31.350        27
31.360        40
31.370        47
31.380        27
31.390        47
31.400        27
31.410        53
31.420        33
31.430        20
31.440        27
31.450        47
31.460        13
31.470        47
31.480        20
31.490        20
31.500        20
31.510        33
31.520        27
31.530         0
31.540        33
31.550         0
31.560        20
31.570        27
31.580        87
31.590        27
31.600        27
31.610        13
31.620        27
31.630        33
31.640        33
31.650        20
31.660        33
31.670        27
31.680        13
31.690         7
31.700        13
31.710        40
31.720        27
31.730        40
31.740        20
31.750        27
31.760        33
31.770        27
31.780        27
31.790        27
31.800        13
31.810        20
31.820        20
31.830        20
31.840         7
31.850        27
31.860        40
31.870        27
31.880        33
31.890        13
31.900        20
31.910        20
31.920        13
31.930        33
31.940        47
31.950        27
31.960        20
31.970        27
31.980        67
31.990        47
32.000        47
32.010        27
32.020        33
32.030        47
32.040        27
32.050        47
32.060        40
32.070        47
32.080        33
32.090        40
32.100        87
32.110        47
32.120        73
32.130        20
32.140        40
32.150        47
32.160        60
32.170        80
32.180        60
32.190        60
32.200        73
32.210        80
32.220        93
32.230       133
32.240        80
32.250       160
32.260       153
32.270       113
32.280       107
32.290       167
32.300       140
32.310       167
32.320       180
32.330       140
32.340       200
32.350       107
32.360       173
32.370       240
32.380       187
32.390       233
32.400       193
32.410       200
32.420       200
32.430       220
32.440       153
32.450       260
32.460       207
32.470       233
32.480       267
32.490       173
32.500       140
32.510       140
32.520       133
32.530       133
32.540        73
32.550       107
32.560       100
32.570       133
32.580        67
32.590       113
32.600        87
32.610        93
32.620        73
32.630       127
32.640        40
32.650        60
32.660        53
32.670        53
32.680        53
32.690        53
32.700        67
32.710        40
32.720        47
32.730        27
32.740        47
32.750        33
32.760        53
32.770        13
32.780        33
32.790        20
32.800        20
32.810        40
32.820        27
32.830        33
32.840        33
32.850        27
32.860        33
32.870        47
32.880        33
32.890        27
32.900         7
32.910        13
32.920        13
32.930        33
32.940        20
32.950        20
32.960        27
32.970        13
32.980        33
32.990        27
33.000        40
33.010        27
33.020        27
33.030        27
33.040        27
33.050        27
33.060        13
33.070        27
33.080        33
33.090        20
33.100        13
33.110        47
33.120        20
33.130        20
33.140        20
33.150        20
33.160        40
33.170        20
33.180         7
33.190        20
33.200        27
33.210        53
33.220         7
33.230        27
33.240        33
33.250        27
33.260        20
33.270        27
33.280        27
33.290        20
33.300        27
33.310         7
33.320        27
33.330        33
33.340        13
33.350        13
33.360        33
33.370        53
33.380        33
33.390        20
33.400         7
33.410        40
33.420        27
33.430        20
33.440        13
33.450        27
33.460        13
33.470        53
33.480        27
33.490        20
33.500        40
33.510        13
33.520        20
33.530        33
33.540        13
33.550        47
33.560        13
33.570        13
33.580        27
33.590         7
33.600        20
33.610        40
33.620        60
33.630        27
33.640        13
33.650        20
33.660        20
33.670        13
33.680        27
33.690         7
33.700        33
33.710        20
33.720        27
33.730        20
33.740        27
33.750        33
33.760        13
33.770        40
33.780        27
33.790        40
33.800         7
33.810        40
33.820        20
33.830        13
33.840         7
33.850        33
33.860         7
33.870        27
33.880        33
33.890        27
33.900        13
33.910        53
33.920        13
33.930        47
33.940        20
33.950         0
33.960        20
33.970        13
33.980         0
33.990        27
34.000        40
34.010         0
34.020        27
34.030        33
34.040        33
34.050        27
34.060        27
34.070        27
34.080        13
34.090        20
34.100        13
34.110        13
34.120        20
34.130        20
34.140        20
34.150        40
34.160        20
34.170        47
34.180         7
34.190        20
34.200        20
34.210        13
34.220        40
34.230        33
34.240        13
34.250        27
34.260        20
34.270        40
34.280        13
34.290        20
34.300        13
34.310         7
34.320        20
34.330        27
34.340        27
34.350        33
34.360         7
34.370         7
34.380        13
34.390        20
34.400        20
34.410        13
34.420         0
34.430        40
34.440        40
34.450        20
34.460        27
34.470        47
34.480        27
34.490        33
34.500        27
34.510        33
34.520         7
34.530         7
34.540        27
34.550        13
34.560        67
34.570        13
34.580        13
34.590        27
34.600         7
34.610        20
34.620        27
34.630        13
34.640        33
34.650        27
34.660        13
34.670        13
34.680        20
34.690        20
34.700        20
34.710        53
34.720        40
34.730        20
34.740        13
34.750        20
34.760        20
34.770         7
34.780        33
34.790        20
34.800        33
34.810        47
34.820        13
34.830        20
34.840        13
34.850        13
34.860         7
34.870         7
34.880        13
34.890        20
34.900         0
34.910        33
34.920        20
34.930        20
34.940        40
34.950        40
34.960        33
34.970        40
34.980        47
34.990        27
35.000         7
35.010        20
35.020        27
35.030        53
35.040        73
35.050        47
35.060        27
35.070        53
35.080       107
35.090        47
35.100       120
35.110       107
35.120       120
35.130       220
35.140       153
35.150       153
35.160       180
35.170       180
35.180       120
35.190       160
35.200       107
35.210       107
35.220       153
35.230        87
35.240       187
35.250        93
35.260        53
35.270        67
35.280        67
35.290        73
35.300        47
35.310        33
35.320        27
35.330        33
35.340        13
35.350        13
35.360        27
35.370        33
35.380        20
35.390         7
35.400        27
35.410        13
35.420        13
35.430        47
35.440        27
35.450        33
35.460        13
35.470        33
35.480         0
35.490        40
35.500        20
35.510        20
35.520        13
35.530        20
35.540        20
35.550        13
35.560        20
35.570        47
35.580        20
35.590        47
35.600        20
35.610        20
35.620        13
35.630        27
35.640        20
35.650         0
35.660        20
35.670        40
35.680        13
35.690        13
35.700        40
35.710         7
35.720        20
35.730        40
35.740        40
35.750         0
35.760        40
35.770        13
35.780        20
35.790        47
35.800        33
35.810        13
35.820        33
35.830        40
35.840         7
35.850        27
35.860        13
35.870        53
35.880        13
35.890        27
35.900        13
35.910        13
35.920        20
35.930        27
35.940        27
35.950        33
35.960        33
35.970        20
35.980        27
35.990        13
36.000        33
36.010        13
36.020        13
36.030        27
36.040        20
36.050         0
36.060        40
36.070        13
36.080        13
36.090        13
36.100        20
36.110        40
36.120        20
36.130        53
36.140         7
36.150         7
36.160        33
36.170         7
36.180        13
36.190        20
36.200        27
36.210        27
36.220        33
36.230        27
36.240        40
36.250        27
36.260        33
36.270        13
36.280        13
36.290        13
36.300        20
36.310         7
36.320         0
36.330        13
36.340        20
36.350        27
36.360        47
36.370        40
36.380        53
36.390        27
36.400        13
36.410        47
36.420        20
36.430        13
36.440         0
36.450        13
36.460        20
36.470        20
36.480        27
36.490        33
36.500        33
36.510         7
36.520        20
36.530        20
36.540        27
36.550        20
36.560        27
36.570        13
36.580        20
36.590        13
36.600        33
36.610         0
36.620        27
36.630         7
36.640        20
36.650        27
36.660        13
36.670        20
36.680        13
36.690        33
36.700        13
36.710        13
36.720         0
36.730        20
36.740        40
36.750        13
36.760         7
36.770        27
36.780        13
36.790        13
36.800        40
36.810        27
36.820        47
36.830        27
36.840        27
36.850        27
36.860        13
36.870        13
36.880        20
36.890        53
36.900        67
36.910        20
36.920        33
36.930        33
36.940        20
36.950        47
36.960        27
36.970         7
36.980        20
36.990        27
37.000        20
37.010        40
37.020        27
37.030        27
37.040        27
37.050         7
37.060        47
37.070        20
37.080        20
37.090        47
37.100        33
37.110        40
37.120        20
37.130        20
37.140         0
37.150        13
37.160        27
37.170        13
37.180         7
37.190        40
37.200         7
37.210         0
37.220        20
37.230        20
37.240         7
37.250        27
37.260         7
37.270        20
37.280        33
37.290        33
37.300        20
37.310        13
37.320        20
37.330         7
37.340        13
37.350        13
37.360         0
37.370        20
37.380        33
37.390        13
37.400        27
37.410         7
37.420        20
37.430        20
37.440        13
37.450        27
37.460        27
37.470         7
37.480        53
37.490         0
37.500        20
37.510         7
37.520        13
37.530         7
37.540        20
37.550        47
37.560        27
37.570        33
37.580        20
37.590        13
37.600         7
37.610        13
37.620         7
37.630         7
37.640        13
37.650        13
37.660        33
37.670         0
37.680        13
37.690        20
37.700        47
37.710        20
37.720        20
37.730        40
37.740        27
37.750        20
37.760        27
37.770        67
37.780       113
37.790       107
37.800       213
37.810       120
37.820       147
37.830       140
37.840       140
37.850       133
37.860        67
37.870        87
37.880        67
37.890        73
37.900        60
37.910       153
37.920       100
37.930       107
37.940        47
37.950        60
37.960        47
37.970        67
37.980        27
37.990        27
38.000        20
38.010         7
38.020        13
38.030        13
38.040        13
38.050        13
38.060        27
38.070        27
38.080        33
38.090        27
38.100        47
38.110        20
38.120        20
38.130        27
38.140        20
38.150        13
38.160        13
38.170        33
38.180         0
38.190        27
38.200         7
38.210         0
38.220        27
38.230        20
38.240        20
38.250        27
38.260        20
38.270        33
38.280        13
38.290         7
38.300        20
38.310        27
38.320        20
38.330        13
38.340         7
38.350        27
38.360        20
38.370        13
38.380        20
38.390        20
38.400        40
38.410        33
38.420         7
38.430        20
38.440        13
38.450        33
38.460        13
38.470        53
38.480        33
38.490        33
38.500        13
38.510        27
38.520        33
38.530        13
38.540        33
38.550        27
38.560        33
38.570        20
38.580        13
38.590         0
38.600        20
38.610         7
38.620        13
38.630         7
38.640        33
38.650        33
38.660         7
38.670        47
38.680         7
38.690        20
38.700        27
38.710        20
38.720        27
38.730        13
38.740         0
38.750        27
38.760        40
38.770         7
38.780         0
38.790        20
38.800        20
38.810        20
38.820        13
38.830         7
38.840        60
38.850        27
38.860        20
38.870         0
38.880        40
38.890        27
38.900        47
38.910        27
38.920        20
38.930         7
38.940         7
38.950         0
38.960        33
38.970        13
38.980        20
38.990        20
39.000        13
39.010        27
39.020        20
39.030        20
39.040        27
39.050         0
39.060        27
39.070         7
39.080         0
39.090        27
39.100         0
39.110        13
39.120         7
39.130        20
39.140        13
39.150        20
39.160        33
39.170        20
39.180        13
39.190        27
39.200        20
39.210        20
39.220        20
39.230        13
39.240        33
39.250        20
39.260        13
39.270        20
39.280         7
39.290        20
39.300        33
39.310         0
39.320        20
39.330        13
39.340        13
39.350        20
39.360         0
39.370         7
39.380        13
39.390        20
39.400        13
39.410        40
39.420        27
39.430        20
39.440        13
39.450        33
39.460        20
39.470        20
39.480        20
39.490        20
39.500        13
39.510        20
39.520        20
39.530        27
39.540        13
39.550         7
39.560        33
39.570        27
39.580        40
39.590         7
39.600        27
39.610        27
39.620        20
39.630        40
39.640        47
39.650        47
39.660        13
39.670        13
39.680         7
39.690        27
39.700        40
39.710        40
39.720        13
39.730        33
39.740        60
39.750        53
39.760        40
39.770        40
39.780        40
39.790        33
39.800        13
39.810        33
39.820        73
39.830        80
39.840       100
39.850        73
39.860        73
39.870        73
39.880       100
39.890       140
39.900        53
39.910       147
39.920       113
39.930       127
39.940       113
39.950       133
39.960       133
39.970       147
39.980       167
39.990       213
40.000       193
40.010       107
40.020       180
40.030       227
40.040       167
40.050       153
40.060       200
40.070       173
40.080       120
40.090       127
40.100       180
40.110       140
40.120       133
40.130       153
40.140        87
40.150       113
40.160       140
40.170       107
40.180        93
40.190        80
40.200        53
40.210        60
40.220        87
40.230        47
40.240        40
40.250        47
40.260        27
40.270        60
40.280       100
40.290        47
40.300        53
40.310        33
40.320        47
40.330        13
40.340        13
40.350        33
40.360        13
40.370        13
40.380        20
40.390        13
40.400        40
40.410        13
40.420        33
40.430        20
40.440        33
40.450        40
40.460        20
40.470        20
40.480        13
40.490        20
40.500        33
40.510         7
40.520        47
40.530         7
40.540        40
40.550        13
40.560        20
40.570        27
40.580        20
40.590        33
40.600        20
40.610         7
40.620        13
40.630        20
40.640        20
40.650        13
40.660        13
40.670        13
40.680        27
40.690        60
40.700        27
40.710         0
40.720        13
40.730        13
40.740         7
40.750        13
40.760        40
40.770        13
40.780         7
40.790        33
40.800        27
40.810         0
40.820        13
40.830        33
40.840        27
40.850        27
40.860        20
40.870        20
40.880        20
40.890        33
40.900         7
40.910         7
40.920        27
40.930        20
40.940        27
40.950        20
40.960         7
40.970        20
40.980        33
40.990        20
41.000        20
41.010        27
41.020        13
41.030        13
41.040         7
41.050        13
41.060         0
41.070        40
41.080         7
41.090        20
41.100        27
41.110        20
41.120        20
41.130        20
41.140        13
41.150        40
41.160        33
41.170        40
41.180        40
41.190        13
41.200        20
41.210         7
41.220        40
41.230        20
41.240        13
41.250         7
41.260        27
41.270        47
41.280        27
41.290        20
41.300        33
41.310         7
41.320        27
41.330        27
41.340        27
41.350        60
41.360        13
41.370        13
41.380        27
41.390        33
41.400         7
41.410        33
41.420        27
41.430        47
41.440        40
41.450        60
41.460        47
41.470        33
41.480        33
41.490        40
41.500        47
41.510        47
41.520        53
41.530        47
41.540        33
41.550        60
41.560        27
41.570        60
41.580        87
41.590        80
41.600        67
41.610        73
41.620        80
41.630        80
41.640       100
41.650       173
41.660       107
41.670       113
41.680       127
41.690       187
41.700       153
41.710       153
41.720       147
41.730       187
41.740       133
41.750        87
41.760        93
41.770        53
41.780       113
41.790       120
41.800       113
41.810        80
41.820        93
41.830        80
41.840       127
41.850        47
41.860        33
41.870        60
41.880        53
41.890        47
41.900        13
41.910        33
41.920        33
41.930        47
41.940        40
41.950        27
41.960        27
41.970        27
41.980        20
41.990        27
42.000        20
42.010        40
42.020        20
42.030        27
42.040        13
42.050        40
42.060        33
42.070        33
42.080        27
42.090        20
42.100        20
42.110         7
42.120        33
42.130         7
42.140        20
42.150        33
42.160        13
42.170        13
42.180        20
42.190         7
42.200        27
42.210         7
42.220         7
42.230        20
42.240        13
42.250        13
42.260        20
42.270        47
42.280        27
42.290         0
42.300        33
42.310        40
42.320        13
42.330        13
42.340        13
42.350        33
42.360        33
42.370        20
42.380         7
42.390        33
42.400        40
42.410        33
42.420        20
42.430        20
42.440        20
42.450         7
42.460         7
42.470        27
42.480        40
42.490        13
42.500        13
42.510        27
42.520        20
42.530        20
42.540        27
42.550        27
42.560        27
42.570         7
42.580        13
42.590        27
42.600        27
42.610         7
42.620         7
42.630         7
42.640        20
42.650         0
42.660        13
42.670         7
42.680         0
42.690        27
42.700        20
42.710        13
42.720        33
42.730        27
42.740        27
42.750        27
42.760         7
42.770        60
42.780        13
42.790        33
42.800        13
42.810        20
42.820        33
42.830        33
42.840        27
42.850        20
42.860        33
42.870        13
42.880         7
42.890        27
42.900        13
42.910         7
42.920        20
42.930        20
42.940        33
42.950        27
42.960        20
42.970         7
42.980        13
42.990         7
43.000        20
43.010        20
43.020        33
43.030        27
43.040        27
43.050        20
43.060        33
43.070        20
43.080        20
43.090        40
43.100         7
43.110        20
43.120        20
43.130        13
43.140        33
43.150        27
43.160        27
43.170        20
43.180        20
43.190        53
43.200        53
43.210        60
43.220       113
43.230        80
43.240       127
43.250       140
43.260       107
43.270       107
43.280       140
43.290        53
43.300        47
43.310        33
43.320        73
43.330        87
43.340        73
43.350       173
43.360       147
43.370       167
43.380       140
43.390       113
43.400        73
43.410        80
43.420        67
43.430        73
43.440        53
43.450        47
43.460        60
43.470        67
43.480        73
43.490        53
43.500       107
43.510        67
43.520        40
43.530        40
43.540        47
43.550        47
43.560        47
43.570         7
43.580        20
43.590        40
43.600        13
43.610        27
43.620        40
43.630        20
43.640        53
43.650        67
43.660        27
43.670        27
43.680        40
43.690         7
43.700        20
43.710         7
43.720        20
43.730         7
43.740        27
43.750        60
43.760        47
43.770        27
43.780        13
43.790        27
43.800        27
43.810        33
43.820        27
43.830        13
43.840        33
43.850        27
43.860         7
43.870        47
43.880        13
43.890        33
43.900        47
43.910        33
43.920        20
43.930        40
43.940        40
43.950        27
43.960        27
43.970        13
43.980        40
43.990        33
44.000         7
44.010        20
44.020        13
44.030        13
44.040        47
44.050        13
44.060        60
44.070        13
44.080         7
44.090        13
44.100        27
44.110        20
44.120        27
44.130        40
44.140        40
44.150         7
44.160        13
44.170        27
44.180        33
44.190        27
44.200         7
44.210        20
44.220        20
44.230        27
44.240        13
44.250        20
44.260        13
44.270        13
44.280        20
44.290        13
44.300        20
44.310         0
44.320        13
44.330        20
44.340        27
44.350        33
44.360        40
44.370         7
44.380        20
44.390        20
44.400         7
44.410        27
44.420        40
44.430        13
44.440        27
44.450        13
44.460        20
44.470        33
44.480        53
44.490        27
44.500        20
44.510        53
44.520        33
44.530        20
44.540        40
44.550         0
44.560        27
44.570        27
44.580        47
44.590        33
44.600        47
44.610        27
44.620        60
44.630        27
44.640        27
44.650        40
44.660        33
44.670        27
44.680        27
44.690        13
44.700        33
44.710        47
44.720        27
44.730        33
44.740        60
44.750        73
44.760        20
44.770        33
44.780        67
44.790        73
44.800        33
44.810        40
44.820        27
44.830        60
44.840        60
44.850        67
44.860        47
44.870        53
44.880        33
44.890        27
44.900        33
44.910        40
44.920        53
44.930        60
44.940        80
44.950        40
44.960        13
44.970        47
44.980        53
44.990        80
45.000        73
45.010        27
45.020        33
45.030        53
45.040        80
45.050        67
45.060        60
45.070        40
45.080        60
45.090       113
45.100        73
45.110        47
45.120        47
45.130        53
45.140       107
45.150        40
45.160        33
45.170        33
45.180        33
45.190        73
45.200        47
45.210        87
45.220        60
45.230        53
45.240        40
45.250        60
45.260        40
45.270        67
45.280        47
45.290        73
45.300        67
45.310        47
45.320        87
45.330        67
45.340        40
45.350        80
45.360        73
45.370       100
45.380       113
45.390       100
45.400        93
45.410        93
45.420       107
45.430       147
45.440       127
45.450       127
45.460        47
45.470       107
45.480       133
45.490        87
45.500        87
45.510       120
45.520       120
45.530       113
45.540       120
45.550       113
45.560        87
45.570        87
45.580       133
45.590       120
45.600       140
45.610       113
45.620       140
45.630       120
45.640       160
45.650        80
45.660       107
45.670       187
45.680       140
45.690       173
45.700       180
45.710       140
45.720       187
45.730       147
45.740       180
45.750       287
45.760       220
45.770       207
45.780       253
45.790       200
45.800       187
45.810       313
45.820       353
45.830       313
45.840       313
45.850       260
45.860       333
45.870       273
45.880       347
45.890       360
45.900       393
45.910       367
45.920       466
45.930       473
45.940       466
45.950       560
45.960       533
45.970       500
45.980       613
45.990       626
46.000       773
46.010       593
46.020       760
46.030       653
46.040       813
46.050      1013
46.060       866
46.070       966
46.080       886
46.090      1173
46.100      1286
46.110      1106
46.120      1160
46.130      1200
46.140      1319
46.150      1479
46.160      1486
46.170      1459
46.180      1573
46.190      1606
46.200      1759
46.210      1933
46.220      1799
46.230      1899
46.240      1986
46.250      2272
46.260      2166
46.270      2179
46.280      2432
46.290      2246
46.300      2359
46.310      2512
46.320      2426
46.330      2392
46.340      2606
46.350      2646
46.360      2666
46.370      2732
46.380      2532
46.390      2719
46.400      2712
46.410      2386
46.420      2652
46.430      2366
46.440      2379
46.450      2339
46.460      2399
46.470      2266
46.480      2392
46.490      2239
46.500      2132
46.510      2212
46.520      2086
46.530      2292
46.540      2046
46.550      2059
46.560      1773
46.570      1853
46.580      1726
46.590      1579
46.600      1533
46.610      1619
46.620      1353
46.630      1399
46.640      1379
46.650      1173
46.660      1240
46.670      1180
46.680      1066
46.690      1040
46.700      1046
46.710       926
46.720       846
46.730       886
46.740       700
46.750       726
46.760       826
46.770       766
46.780       600
46.790       706
46.800       540
46.810       500
46.820       593
46.830       486
46.840       420
46.850       493
46.860       433
46.870       473
46.880       426
46.890       426
46.900       313
46.910       273
46.920       340
46.930       207
46.940       347
46.950       213
46.960       293
46.970       407
46.980       253
46.990       220
47.000       227
47.010       160
47.020       200
47.030       213
47.040       180
47.050       120
47.060       187
47.070       160
47.080       127
47.090       173
47.100       213
47.110       133
47.120       207
47.130       133
47.140       167
47.150       113
47.160       113
47.170       107
47.180       140
47.190       127
47.200       127
47.210       120
47.220       140
47.230       127
47.240       160
47.250       147
47.260       140
47.270       120
47.280        80
47.290        87
47.300       140
47.310       113
47.320       100
47.330        87
47.340       140
47.350       140
47.360        73
47.370        87
47.380       107
47.390       113
47.400        87
47.410        73
47.420        67
47.430        40
47.440        93
47.450        73
47.460        73
47.470       113
47.480       100
47.490        40
47.500        73
47.510        67
47.520       100
47.530        27
47.540        53
47.550        87
47.560        13
47.570        47
47.580        60
47.590        47
47.600        80
47.610        67
47.620        47
47.630        80
47.640        47
47.650        87
47.660        67
47.670        93
47.680        67
47.690        67
47.700        60
47.710        73
47.720        73
47.730        60
47.740        40
47.750        80
47.760        47
47.770        40
47.780        60
47.790        60
47.800        67
47.810        47
47.820        73
47.830        60
47.840        73
47.850        40
47.860        27
47.870        33
47.880        73
47.890        67
47.900        33
47.910        47
47.920        53
47.930        53
47.940        67
47.950        33
47.960        20
47.970        80
47.980        60
47.990        67
48.000        80
48.010        33
48.020        73
48.030        33
48.040        33
48.050        53
48.060        27
48.070        47
48.080        47
48.090        40
48.100        53
48.110        20
48.120        33
48.130        47
48.140        60
48.150        53
48.160        20
48.170        33
48.180        47
48.190         7
48.200        27
48.210        47
48.220        40
48.230        40
48.240        20
48.250        20
48.260        53
48.270        27
48.280        27
48.290        53
48.300        40
48.310        60
48.320        47
48.330        60
48.340        20
48.350        53
48.360        27
48.370        47
48.380        40
48.390        40
48.400        33
48.410        60
48.420        27
48.430        40
48.440        33
48.450        67
48.460        40
48.470        67
48.480        27
48.490        47
48.500        20
48.510        27
48.520        13
48.530        13
48.540        13
48.550        33
48.560        40
48.570        27
48.580        47
48.590        40
48.600        47
48.610        33
48.620        13
48.630        40
48.640        33
48.650        47
48.660        73
48.670        33
48.680        13
48.690        27
48.700        20
48.710        40
48.720        33
48.730        53
48.740        20
48.750        33
48.760        33
48.770        40
48.780        47
48.790        13
48.800        33
48.810        27
48.820        33
48.830        53
48.840        20
48.850        33
48.860        40
48.870        60
48.880        40
48.890        53
48.900        40
48.910        13
48.920        33
48.930        33
48.940        40
48.950        27
48.960        33
48.970        33
48.980        27
48.990        27
49.000        47
49.010        20
49.020        20
49.030         7
49.040        47
49.050        27
49.060        27
49.070        33
49.080        13
49.090        27
49.100        20
49.110        27
49.120        40
49.130        27
49.140        20
49.150        27
49.160        33
49.170        47
49.180        13
49.190         7
49.200        27
49.210        40
49.220        20
49.230        20
49.240         7
49.250        40
49.260        20
49.270         0
49.280        27
49.290        47
49.300        20
49.310        47
49.320        20
49.330        40
49.340        27
49.350        53
49.360        40
49.370        13
49.380        27
49.390        47
49.400        40
49.410        13
49.420        13
49.430        40
49.440        27
49.450        27
49.460        20
49.470        20
49.480        13
49.490        40
49.500        60
49.510        27
49.520        13
49.530        20
49.540        27
49.550        40
49.560        33
49.570        13
49.580        20
49.590        73
49.600        20
49.610         7
49.620        27
49.630        27
49.640        20
49.650        20
49.660        33
49.670        13
49.680         7
49.690        40
49.700        20
49.710        20
49.720        20
49.730        13
49.740         7
49.750        20
49.760        13
49.770        33
49.780        20
49.790        13
49.800        27
49.810        33
49.820        40
49.830        27
49.840        27
49.850        27
49.860        20
49.870        13
49.880        13
49.890        13
49.900        27
49.910        33
49.920        40
49.930        20
49.940        47
49.950        27
49.960        27
49.970        33
49.980        27
49.990         7
50.000        53
50.010        47
50.020        47
50.030        47
50.040        33
50.050        33
50.060         0
50.070        13
50.080        33
50.090         7
50.100        33
50.110        20
50.120        40
50.130        13
50.140        20
50.150        40
50.160        33
50.170        13
50.180        27
50.190        20
50.200        20
50.210        20
50.220        40
50.230        47
50.240        33
50.250        13
50.260        40
50.270         7
50.280        20
50.290        13
50.300        47
50.310        20
50.320        33
50.330        20
50.340        20
50.350         7
50.360         7
50.370        47
50.380        27
50.390        27
50.400        27
50.410        13
50.420        13
50.430        40
50.440        27
50.450        27
50.460        33
50.470        13
50.480        27
50.490        20
50.500        13
50.510        33
50.520        47
50.530        20
50.540        27
50.550        27
50.560        13
50.570        20
50.580         7
50.590        20
50.600        53
50.610        33
50.620         7
50.630         7
50.640        33
50.650        13
50.660        60
50.670        27
50.680        27
50.690        20
50.700        20
50.710         7
50.720        27
50.730        13
50.740         7
50.750        27
50.760        33
50.770        33
50.780        20
50.790        27
50.800        20
50.810        47
50.820        33
50.830        20
50.840        40
50.850         7
50.860        47
50.870        27
50.880        40
50.890        33
50.900         7
50.910        33
50.920        40
50.930        20
50.940        20
50.950        20
50.960        20
50.970        20
50.980        13
50.990        27
51.000         7
51.010        20
51.020        20
51.030         7
51.040        33
51.050        13
51.060        13
51.070        27
51.080        27
51.090        27
51.100        13
51.110       153
51.120        13
51.130        20
51.140        13
51.150        20
51.160        27
51.170        20
51.180        13
51.190        40
51.200        20
51.210        13
51.220        33
51.230        13
51.240        13
51.250        47
51.260        13
51.270        33
51.280         7
51.290        27
51.300        27
51.310        27
51.320        40
51.330        20
51.340        13
51.350        47
51.360        20
51.370        33
51.380        33
51.390        20
51.400        33
51.410        20
51.420        27
51.430         7
51.440        40
51.450        33
51.460        27
51.470        20
51.480        20
51.490         0
51.500        40
51.510        20
51.520        27
51.530        33
51.540        40
51.550        27
51.560        27
51.570         0
51.580        33
51.590        20
51.600        33
51.610         7
51.620        27
51.630        20
51.640        33
51.650        13
51.660        20
51.670        13
51.680         0
51.690        27
51.700        40
51.710        33
51.720         7
51.730        27
51.740        27
51.750        33
51.760        20
51.770        20
51.780        13
51.790        13
51.800        47
51.810        13
51.820        13
51.830        13
51.840        20
51.850        20
51.860        27
51.870        20
51.880         0
51.890        33
51.900        40
51.910        27
51.920        20
51.930         7
51.940        20
51.950        13
51.960         7
51.970        13
51.980        13
51.990         7
52.000        27
52.010        33
52.020        20
52.030         7
52.040        13
52.050        20
52.060        13
52.070         7
52.080        13
52.090        33
52.100         7
52.110        13
52.120        27
52.130        13
52.140        27
52.150        27
52.160        13
52.170        40
52.180        13
52.190        53
52.200        20
52.210        13
52.220        20
52.230        33
52.240         7
52.250        13
52.260        33
52.270        33
52.280        47
52.290        27
52.300         7
52.310        27
52.320        13
52.330        33
52.340        33
52.350         7
52.360        20
52.370        40
52.380        20
52.390        40
52.400        20
52.410        13
52.420        20
52.430        27
52.440        20
52.450        13
52.460        20
52.470        20
52.480        20
52.490        13
52.500        40
52.510        33
52.520        40
52.530        33
52.540        47
52.550       100
52.560        47
52.570        33
52.580        87
52.590        67
52.600        53
52.610        73
52.620        67
52.630        33
52.640        47
52.650        20
52.660        33
52.670        53
52.680        13
52.690        53
52.700        40
52.710        47
52.720        67
52.730        73
52.740        40
52.750        33
52.760        40
52.770        53
52.780         7
52.790        20
52.800        13
52.810        13
52.820        20
52.830        20
52.840        13
52.850        13
52.860        40
52.870        40
52.880        13
52.890        27
52.900        13
52.910        47
52.920        33
52.930        33
52.940         7
52.950         7
52.960        33
52.970        33
52.980        20
52.990        13
53.000         7
53.010        13
53.020        20
53.030        13
53.040        20
53.050        13
53.060        13
53.070        47
53.080        13
53.090        13
53.100         7
53.110        20
53.120        13
53.130         0
53.140        27
53.150        33
53.160        27
53.170         7
53.180        33
53.190        20
53.200        20
53.210        13
53.220        13
53.230         7
53.240        27
53.250        20
53.260        20
53.270        13
53.280         7
53.290        20
53.300        27
53.310        13
53.320        20
53.330         7
53.340        13
53.350         7
53.360         7
53.370        13
53.380        13
53.390        20
53.400        20
53.410        13
53.420        13
53.430        20
53.440        27
53.450        40
53.460        13
53.470        47
53.480        20
53.490        27
53.500        13
53.510        27
53.520        20
53.530        13
53.540        13
53.550         7
53.560         7
53.570        13
53.580        40
53.590         0
53.600        13
53.610        33
53.620        20
53.630         7
53.640         7
53.650        20
53.660         7
53.670        20
53.680        40
53.690        27
53.700        13
53.710        13
53.720        33
53.730         7
53.740        13
53.750        13
53.760        33
53.770        20
53.780        13
53.790        20
53.800        13
53.810        13
53.820        27
53.830        13
53.840        27
53.850         7
53.860         7
53.870        20
53.880        13
53.890        33
53.900        27
53.910        27
53.920         0
53.930        20
53.940        33
53.950        20
53.960        27
53.970         0
53.980        27
53.990        27
54.000        27
54.010        20
54.020        20
54.030        13
54.040        27
54.050         7
54.060        27
54.070        20
54.080         7
54.090        33
54.100        27
54.110        20
54.120        20
54.130         7
54.140        13
54.150         7
54.160        27
54.170        13
54.180        20
54.190        13
54.200        13
54.210        13
54.220         7
54.230        40
54.240        27
54.250        67
54.260        33
54.270        47
54.280        33
54.290         7
54.300        20
54.310        13
54.320        13
54.330         0
54.340        27
54.350        27
54.360        27
54.370        27
54.380        20
54.390        27
54.400        27
54.410        33
54.420        27
54.430        13
54.440        13
54.450        27
54.460         7
54.470        13
54.480        13
54.490        33
54.500        27
54.510         7
54.520        20
54.530        27
54.540        13
54.550         7
54.560        33
54.570        20
54.580         7
54.590        13
54.600        20
54.610        13
54.620        20
54.630        13
54.640         7
54.650        13
54.660         7
54.670         0
54.680        20
54.690        20
54.700        20
54.710        47
54.720        40
54.730         7
54.740         0
54.750        40
54.760        33
54.770        13
54.780        33
54.790        13
54.800        13
54.810        27
54.820        13
54.830         7
54.840        20
54.850        20
54.860        13
54.870         0
54.880        20
54.890        13
54.900        27
54.910         7
54.920        13
54.930        20
54.940         7
54.950        20
54.960        13
54.970        20
54.980         7
54.990        40
55.000         7
55.010        47
55.020         7
55.030         7
55.040        20
55.050        47
55.060        13
55.070        20
55.080        13
55.090         0
55.100         0
55.110        13
55.120        27
55.130         7
55.140        27
55.150        27
55.160        27
55.170         7
55.180        47
55.190        13
55.200        13
55.210        27
55.220        13
55.230        33
55.240        13
55.250        27
55.260         7
55.270        20
55.280        27
55.290         0
55.300         7
55.310         0
55.320        27
55.330        20
55.340         7
55.350        27
55.360        20
55.370        33
55.380        27
55.390        13
55.400        20
55.410        27
55.420        33
55.430        27
55.440        20
55.450         7
55.460        20
55.470        27
55.480        27
55.490        13
55.500        13
55.510        27
55.520         0
55.530        27
55.540        13
55.550        20
55.560         7
55.570        27
55.580        27
55.590        27
55.600        13
55.610        13
55.620        13
55.630        27
55.640        27
55.650         7
55.660        13
55.670         0
55.680         7
55.690        20
55.700        20
55.710        20
55.720        27
55.730        67
55.740        20
55.750        20
55.760        13
55.770        40
55.780         0
55.790        27
55.800        20
55.810        27
55.820         7
55.830        60
55.840        27
55.850        20
55.860        20
55.870        13
55.880        40
55.890         7
55.900        27
55.910        20
55.920        33
55.930        27
55.940        13
55.950        13
55.960         7
55.970        20
55.980        13
55.990        13
56.000        13
56.010         0
56.020        47
56.030        13
56.040        20
56.050        20
56.060        27
56.070        27
56.080         7
56.090        13
56.100        13
56.110        20
56.120        47
56.130        13
56.140        13
56.150        20
56.160        27
56.170        20
56.180        20
56.190        13
56.200        20
56.210        20
56.220        13
56.230         0
56.240        20
56.250        47
56.260        40
56.270        53
56.280        27
56.290        20
56.300        27
56.310        20
56.320        13
56.330        27
56.340        33
56.350        20
56.360        27
56.370        27
56.380         7
56.390        20
56.400        13
56.410        20
56.420        27
56.430         0
56.440        13
56.450        13
56.460        13
56.470         7
56.480         7
56.490        13
56.500        20
56.510        27
56.520        33
56.530         7
56.540        13
56.550         7
56.560        27
56.570         0
56.580        13
56.590        13
56.600        13
56.610        20
56.620        20
56.630        13
56.640        13
56.650        27
56.660        20
56.670        13
56.680         7
56.690        33
56.700        13
56.710         0
56.720        33
56.730        20
56.740        20
56.750        20
56.760        13
56.770        20
56.780        13
56.790        13
56.800         7
56.810        13
56.820        13
56.830         7
56.840        27
56.850        13
56.860        27
56.870        20
56.880        13
56.890        20
56.900        27
56.910         7
56.920        47
56.930        27
56.940        27
56.950        20
56.960        40
56.970        33
56.980         7
56.990        27
57.000        13
57.010        20
57.020        13
57.030         7
57.040        13
57.050        27
57.060        27
57.070        27
57.080        27
57.090        13
57.100        20
57.110         0
57.120         0
57.130         7
57.140         7
57.150        20
57.160        13
57.170        13
57.180        27
57.190         7
57.200         0
57.210        27
57.220        27
57.230        47
57.240        40
57.250         7
57.260        20
57.270        27
57.280        13
57.290        27
57.300         7
57.310        20
57.320         0
57.330        13
57.340         7
57.350        20
57.360        33
57.370         7
57.380        27
57.390        27
57.400        47
57.410        73
57.420        33
57.430        53
57.440        27
57.450        73
57.460        67
57.470       113
57.480       120
57.490        87
57.500       100
57.510       100
57.520       120
57.530       100
57.540       100
57.550        53
57.560       100
57.570        67
57.580        33
57.590        40
57.600        27
57.610        53
57.620        60
57.630        20
57.640       100
57.650        60
57.660        87
57.670       113
57.680        60
57.690        87
57.700        60
57.710        67
57.720        67
57.730        53
57.740        40
57.750        33
57.760        20
57.770        47
57.780        40
57.790        47
57.800        53
57.810        20
57.820        33
57.830        33
57.840        27
57.850        27
57.860        33
57.870        40
57.880        27
57.890        67
57.900        40
57.910        20
57.920        13
57.930        13
57.940        27
57.950        27
57.960        20
57.970        20
57.980        20
57.990        47
58.000        20
58.010         7
58.020        13
58.030        40
58.040        13
58.050        33
58.060        33
58.070         7
58.080        20
58.090        33
58.100        27
58.110        13
58.120         7
58.130        27
58.140         7
58.150         0
58.160        47
58.170        13
58.180        20
58.190        47
58.200        33
58.210        13
58.220        27
58.230        33
58.240        27
58.250         7
58.260         0
58.270        13
58.280        13
58.290         0
58.300        20
58.310         0
58.320        40
58.330        13
58.340         7
58.350        33
58.360        20
58.370        20
58.380        47
58.390         7
58.400        20
58.410        40
58.420         7
58.430         0
58.440        20
58.450        20
58.460        40
58.470        27
58.480         7
58.490         7
58.500        20
58.510        13
58.520        47
58.530        13
58.540        20
58.550        13
58.560        27
58.570        20
58.580         7
58.590         7
58.600        20
58.610        20
58.620        13
58.630        20
58.640        40
58.650        27
58.660        20
58.670        33
58.680        13
58.690        20
58.700         7
58.710        47
58.720        13
58.730        20
58.740         7
58.750        13
58.760        33
58.770         7
58.780        13
58.790         0
58.800         7
58.810        13
58.820        27
58.830        13
58.840        20
58.850        13
58.860         7
58.870        20
58.880        27
58.890        13
58.900        33
58.910        13
58.920        13
58.930        27
58.940        33
58.950        13
58.960         7
58.970        13
58.980        13
58.990         7
59.000        13
59.010        20
59.020         7
59.030         0
59.040         7
59.050         7
59.060        20
59.070         0
59.080        27
59.090         0
59.100        27
59.110        13
59.120         7
59.130        13
59.140        20
59.150         7
59.160         7
59.170         0
59.180        20
59.190         7
59.200        20
59.210         7
59.220        20
59.230        20
59.240        33
59.250        27
59.260         7
59.270         7
59.280        27
59.290         7
59.300        20
59.310        27
59.320        20
59.330        13
59.340         7
59.350        13
59.360         0
59.370        27
59.380         7
59.390        13
59.400         7
59.410        27
59.420        13
59.430        20
59.440        20
59.450        27
59.460        33
59.470         0
59.480        13
59.490        13
59.500        13
59.510        67
59.520        13
59.530        27
59.540        13
59.550         7
59.560        27
59.570        13
59.580        13
59.590        20
59.600         7
59.610         7
59.620        13
59.630         0
59.640        13
59.650        13
59.660        13
59.670        20
59.680        13
59.690        33
59.700        13
59.710        40
59.720        27
59.730        20
59.740        20
59.750        13
59.760        20
59.770         7
59.780        13
59.790        13
59.800        40
59.810        20
59.820        20
59.830        27
59.840        27
59.850        20
59.860        40
59.870        20
59.880        20
59.890         7
59.900        20
59.910         7
59.920        40
59.930        27
59.940         7
59.950        47
59.960        27
59.970         0
59.980        40
59.990        20
60.000        20
