20.000        20
20.010        47
20.020        20
20.030       100
20.040        53
20.050        33
20.060        60
20.070        40
20.080        33
20.090        27
20.100        40
20.110        33
20.120        20
20.130        47
20.140        33
20.150        33
20.160        20
20.170        33
20.180        27
20.190        27
20.200        67
20.210        47
20.220        47
20.230        47
20.240         7
20.250        20
20.260        33
20.270        47
20.280        33
20.290        20
20.300        20
20.310        20
20.320        47
20.330        47
20.340        27
20.350        67
20.360        33
20.370        40
20.380        27
20.390        20
20.400        20
20.410        67
20.420        47
20.430         0
20.440        47
20.450        47
20.460        53
20.470        20
20.480        20
20.490        33
20.500        27
20.510        40
20.520        40
20.530        40
20.540        73
20.550        33
20.560        40
20.570        33
20.580        27
20.590        33
20.600        67
20.610        27
20.620        33
20.630        67
20.640        13
20.650        87
20.660        40
20.670        53
20.680        20
20.690        40
20.700        40
20.710        33
20.720        47
20.730        40
20.740         7
20.750        27
20.760        73
20.770        53
20.780        40
20.790        47
20.800        47
20.810        47
20.820        60
20.830        53
20.840        20
20.850        33
20.860        60
20.870        27
20.880        27
20.890        40
20.900        40
20.910        60
20.920        33
20.930        27
20.940        47
20.950        33
20.960        33
20.970        33
20.980        33
20.990        60
21.000        40
21.010        53
21.020        60
21.030        47
21.040        27
21.050        33
21.060         0
21.070        20
21.080        33
21.090        33
21.100        40
21.110        20
21.120        53
21.130        33
21.140        33
21.150        33
21.160        60
21.170        27
21.180        13
21.190        33
21.200        27
21.210        40
21.220        20
21.230        33
21.240        47
21.250        40
21.260        27
21.270        47
21.280        27
21.290        47
21.300        13
21.310        47
21.320        47
21.330        20
21.340        33
21.350        27
21.360        20
21.370        73
21.380        53
21.390        27
21.400         7
21.410        33
21.420        47
21.430        53
21.440        47
21.450        27
21.460        20
21.470        13
21.480        33
21.490        13
21.500        33
21.510        40
21.520        27
21.530        33
21.540        33
21.550        33
21.560        20
21.570        40
21.580        20
21.590        53
21.600        13
21.610        60
21.620        47
21.630        13
21.640        27
21.650        27
21.660        40
21.670        40
21.680        20
21.690        60
21.700        20
21.710        20
21.720        33
21.730        53
21.740        27
21.750        27
21.760        27
21.770        80
21.780        47
21.790        40
21.800         0
21.810        40
21.820         7
21.830        27
21.840        33
21.850        60
21.860        20
21.870        67
21.880        27
21.890        33
21.900        27
21.910        67
21.920        40
21.930        60
21.940        47
21.950        47
21.960        27
21.970        33
21.980        47
21.990        27
22.000        20
22.010        27
22.020        40
22.030        33
22.040        40
22.050        40
22.060        53
22.070        33
22.080        47
22.090        40
22.100        27
22.110        40
22.120        53
22.130        27
22.140        47
22.150        40
22.160        33
22.170        13
22.180        27
22.190        40
22.200        27
22.210        20
22.220        27
22.230        53
22.240        60
22.250        53
22.260        40
22.270        20
22.280        27
22.290        47
22.300        27
22.310        53
22.320        27
22.330        47
22.340        47
22.350        40
22.360        27
22.370        27
22.380        27
22.390        33
22.400        27
22.410        40
22.420        47
22.430        27
22.440        20
22.450        40
22.460        33
22.470        40
22.480        47
22.490        47
22.500        53
22.510        67
22.520        73
22.530        53
22.540        67
22.550        67
22.560        93
22.570        87
22.580        80
22.590        80
22.600        40
22.610        87
22.620        87
22.630        93
22.640        87
22.650        87
22.660       100
22.670       100
22.680       127
22.690       153
22.700        67
22.710       167
22.720       153
22.730       160
22.740       140
22.750       220
22.760       187
22.770       113
22.780       133
22.790        80
22.800        73
22.810        87
22.820        60
22.830        87
22.840        87
22.850       120
22.860       113
22.870        53
22.880       100
22.890        80
22.900        73
22.910        67
22.920        73
22.930        47
22.940        53
22.950        67
22.960        40
22.970        60
22.980        53
22.990        53
23.000        67
23.010        53
23.020        33
23.030        40
23.040        33
23.050        47
23.060         7
23.070        40
23.080        33
23.090        73
23.100        27
23.110        40
23.120        40
23.130        40
23.140        40
23.150        40
23.160        20
23.170        33
23.180        40
23.190        27
23.200        40
23.210        27
23.220        47
23.230        33
23.240        40
23.250        20
23.260        40
23.270        67
23.280        53
23.290        33
23.300        40
23.310        20
23.320        20
23.330         7
23.340        20
23.350        53
23.360        33
23.370        47
23.380        33
23.390        47
23.400        27
23.410        60
23.420        47
23.430        33
23.440        40
23.450        33
23.460        27
23.470        47
23.480        40
23.490        53
23.500        33
23.510        40
23.520        47
23.530        20
23.540        40
23.550        40
23.560        67
23.570        27
23.580        47
23.590        40
23.600        47
23.610        27
23.620        53
23.630        53
23.640        33
23.650        27
23.660        47
23.670        27
23.680        40
23.690        27
23.700        53
23.710         7
23.720        20
23.730        40
23.740        13
23.750        40
23.760        40
23.770        27
23.780        40
23.790        40
23.800        40
23.810        40
23.820        33
23.830        20
23.840        47
23.850        40
23.860        60
23.870        13
23.880        33
23.890        33
23.900        13
23.910        27
23.920        27
23.930        73
23.940        60
23.950        40
23.960        33
23.970        20
23.980        33
23.990        27
24.000        40
24.010        33
24.020        40
24.030        13
24.040        27
24.050        40
24.060        20
24.070        20
24.080        47
24.090        40
24.100        40
24.110        27
24.120        27
24.130        20
24.140        33
24.150        40
24.160        33
24.170        33
24.180        33
24.190        20
24.200        47
24.210        53
24.220        27
24.230        33
24.240        20
24.250        20
24.260        40
24.270         7
24.280        27
24.290        33
24.300        27
24.310        47
24.320        47
24.330        13
24.340        27
24.350        27
24.360        27
24.370        33
24.380        20
24.390        20
24.400        33
24.410        33
24.420        67
24.430        20
24.440        13
24.450        20
24.460        33
24.470        20
24.480        20
24.490        20
24.500        20
24.510         0
24.520        33
24.530        27
24.540        20
24.550        40
24.560        13
24.570        20
24.580        33
24.590        60
24.600        40
24.610        40
24.620        13
24.630        40
24.640         0
24.650        33
24.660        13
24.670        33
24.680        33
24.690        27
24.700        33
24.710        27
24.720        33
24.730        33
24.740        33
24.750        40
24.760        20
24.770        40
24.780        47
24.790        27
24.800        33
24.810        27
24.820        13
24.830        20
24.840        47
24.850        40
24.860        13
24.870        20
24.880        53
24.890        27
24.900        60
24.910         7
24.920        33
24.930        13
24.940        53
24.950        47
24.960        27
24.970         0
24.980        40
24.990         7
25.000        53
25.010        53
25.020        20
25.030        33
25.040        40
25.050        33
25.060        27
25.070        67
25.080        20
25.090        13
25.100        33
25.110        13
25.120        53
25.130        27
25.140        33
25.150        33
25.160        20
25.170        47
25.180        13
25.190        40
25.200        27
25.210        27
25.220        67
25.230        47
25.240        27
25.250        33
25.260        47
25.270        13
25.280        33
25.290        20
25.300        33
25.310        33
25.320        40
25.330        53
25.340        13
25.350        33
25.360        33
25.370        27
25.380        27
25.390        47
25.400        27
25.410        20
25.420        53
25.430        13
25.440        20
25.450        47
25.460        40
25.470        27
25.480        60
25.490        27
25.500        80
25.510        40
25.520        40
25.530        67
25.540        47
25.550        33
25.560        40
25.570        20
25.580        20
25.590        33
25.600        33
25.610        40
25.620        47
25.630        40
25.640        67
25.650        40
25.660        33
25.670        20
25.680        53
25.690        20
25.700        33
25.710         7
25.720        20
25.730        40
25.740        27
25.750        47
25.760        47
25.770        20
25.780        20
25.790        27
25.800        27
25.810        33
25.820        27
25.830        27
25.840        20
25.850        27
25.860        40
25.870        67
25.880        33
25.890        40
25.900        33
25.910        20
25.920        27
25.930        40
25.940        33
25.950        20
25.960        13
25.970        13
25.980        40
25.990        13
26.000        33
26.010         7
26.020         7
26.030        40
26.040        33
26.050        33
26.060        73
26.070        27
26.080        40
26.090        33
26.100        40
26.110        40
26.120        27
26.130        27
26.140         7
26.150        33
26.160        40
26.170        33
26.180        47
26.190        20
26.200        40
26.210        27
26.220        27
26.230        47
26.240        27
26.250        27
26.260        27
26.270        20
26.280        20
26.290        33
26.300        33
26.310        53
26.320        40
26.330        47
26.340        40
26.350        27
26.360         7
26.370        47
26.380         7
26.390        20
26.400        20
26.410        47
26.420        33
26.430        13
26.440        33
26.450        13
26.460        40
26.470        33
26.480         7
26.490        27
26.500        53
26.510        20
26.520        33
26.530        27
26.540         7
26.550        27
26.560        27
26.570        67
26.580        40
26.590        40
26.600        60
26.610        33
26.620        13
26.630        27
26.640        27
26.650         7
26.660         0
26.670        53
26.680        27
26.690        20
26.700        13
26.710        40
26.720        20
26.730        20
26.740        27
26.750         0
26.760        27
26.770         7
26.780        27
26.790        33
26.800        33
26.810         7
26.820        20
26.830        47
26.840        20
26.850        33
26.860        33
26.870        20
26.880        13
26.890        20
26.900        33
26.910        20
26.920         7
26.930        13
26.940        20
26.950        33
26.960        20
26.970        53
26.980        20
26.990        20
27.000        27
27.010        33
27.020        40
27.030        13
27.040        27
27.050        27
27.060        20
27.070        20
27.080        33
27.090         7
27.100        20
27.110        47
27.120        27
27.130        27
27.140        33
27.150        33
27.160        27
27.170        47
27.180        20
27.190        13
27.200        27
27.210        33
27.220        40
27.230        20
27.240        20
27.250        27
27.260        33
27.270        13
27.280        27
27.290        20
27.300         7
27.310        13
27.320        47
27.330        20
27.340         7
27.350        13
27.360        40
27.370        13
27.380        33
27.390        47
27.400        27
27.410        40
27.420        20
27.430        47
27.440        13
27.450        60
27.460        33
27.470         7
27.480        13
27.490        27
27.500        27
27.510         0
27.520        33
27.530        60
27.540        40
27.550        20
27.560        80
27.570        33
27.580        40
27.590        60
27.600        40
27.610        13
27.620        27
27.630        40
27.640        13
27.650        27
27.660         7
27.670        27
27.680        13
27.690        33
27.700        27
27.710        20
27.720        13
27.730        47
27.740         7
27.750        47
27.760        47
27.770         7
27.780        20
27.790        33
27.800        47
27.810        53
27.820        27
27.830        27
27.840        20
27.850        33
27.860        13
27.870        33
27.880        33
27.890        20
27.900         7
27.910         0
27.920        27
27.930        27
27.940        40
27.950        27
27.960        13
27.970        27
27.980        27
27.990        13
28.000        33
28.010        27
28.020        27
28.030        33
28.040        13
28.050        13
28.060        20
28.070        47
28.080        40
28.090        20
28.100        40
28.110        13
28.120        20
28.130        47
28.140        20
28.150        33
28.160        27
28.170        13
28.180        13
28.190        13
28.200        13
28.210        20
28.220        33
28.230        27
28.240        53
28.250        13
28.260        13
28.270        13
28.280        27
28.290        40
28.300         7
28.310        27
28.320        20
28.330        13
28.340        20
28.350         0
28.360        20
28.370        40
28.380         7
28.390        47
28.400        27
28.410        20
28.420        20
28.430        13
28.440        13
28.450        20
28.460        47
28.470        20
28.480        20
28.490        20
28.500        27
28.510        13
28.520        13
28.530        47
28.540        40
28.550         7
28.560        20
28.570        40
28.580        27
28.590        13
28.600        20
28.610        27
28.620        20
28.630        33
28.640        20
28.650        33
28.660         0
28.670        67
28.680        13
28.690        20
28.700        13
28.710        33
28.720        27
28.730        13
28.740        40
28.750        33
28.760        13
28.770        13
28.780        20
28.790        20
28.800        13
28.810        13
28.820        33
28.830        13
28.840        33
28.850        27
28.860         7
28.870        27
28.880        27
28.890        27
28.900        33
28.910        13
28.920        27
28.930        33
28.940        40
28.950        13
28.960        27
28.970        40
28.980        27
28.990        20
29.000        20
29.010        73
29.020        53
29.030        40
29.040         0
29.050         7
29.060        20
29.070        33
29.080         0
29.090        20
29.100        20
29.110        33
29.120        20
29.130        33
29.140         7
29.150        13
29.160        13
29.170         7
29.180        27
29.190        67
29.200        27
29.210        27
29.220        33
29.230         7
29.240        67
29.250        47
29.260        27
29.270         7
29.280        67
29.290        20
29.300        13
29.310        20
29.320        33
29.330        20
29.340        27
29.350        27
29.360        13
29.370        13
29.380        13
29.390        27
29.400        13
29.410        33
29.420        33
29.430        20
29.440         7
29.450        27
29.460        20
29.470        33
29.480        27
29.490        27
29.500        40
29.510        13
29.520        20
29.530        13
29.540        40
29.550        33
29.560        13
29.570        33
29.580        20
29.590        40
29.600        20
29.610         0
29.620        27
29.630        33
29.640        20
29.650        27
29.660        13
29.670        27
29.680        20
29.690        40
29.700         7
29.710        13
29.720         7
29.730        27
29.740        13
29.750         7
29.760        20
29.770        27
29.780        33
29.790        13
29.800        20
29.810        20
29.820        33
29.830        13
29.840        47
29.850        20
29.860        20
29.870        27
29.880        20
29.890        33
29.900        40
29.910        33
29.920        27
29.930         7
29.940        33
29.950        27
29.960        20
29.970        13
29.980        27
29.990        27
30.000         7
30.010        40
30.020        27
30.030        13
30.040         0
30.050        13
30.060        27
30.070        20
30.080        20
30.090        13
30.100        20
30.110        13
30.120        20
30.130        40
30.140         7
30.150         7
30.160         7
30.170         7
30.180        40
30.190        20
30.200         7
30.210        13
30.220        27
30.230        13
30.240        33
30.250        33
30.260         7
30.270        27
30.280        20
30.290        27
30.300        27
30.310        20
30.320        20
30.330         7
30.340        20
30.350        13
30.360        20
30.370         7
30.380         7
30.390        40
30.400        20
30.410        33
30.420        20
30.430        27
30.440        13
30.450        13
30.460        27
30.470        27
30.480        27
30.490        13
30.500        47
30.510        13
30.520        33
30.530        13
30.540        27
30.550        13
30.560        33
30.570        13
30.580        40
30.590        20
30.600        27
30.610         7
30.620        33
30.630        13
30.640        27
30.650        13
30.660         7
30.670        27
30.680        13
30.690        47
30.700        27
30.710        33
30.720         7
30.730        27
30.740        13
30.750        33
30.760         7
30.770        13
30.780         0
30.790        13
30.800        27
30.810         7
30.820        20
30.830        27
30.840        27
30.850        13
30.860        20
30.870        40
30.880        27
30.890        20
30.900        20
30.910        20
30.920        20
30.930        27
30.940         7
30.950         7
30.960        13
30.970        27
30.980        13
30.990        20
31.000        33
31.010         7
31.020         7
31.030        27
31.040        20
31.050        27
31.060        20
31.070        27
31.080        27
31.090        20
31.100        20
31.110        13
31.120        13
31.130         0
31.140        40
31.150        40
31.160        20
31.170        27
31.180        20
31.190        20
31.200        20
31.210         7
31.220         7
31.230        33
31.240        27
31.250        20
31.260        13
31.270         7
31.280         0
31.290        27
31.300        33
31.310        13
31.320        27
31.330        13
31.340        27
31.350        40
31.360        13
31.370         7
31.380        33
31.390        33
31.400        13
31.410        20
31.420        13
31.430        20
31.440        20
31.450        27
31.460        13
31.470        13
31.480        13
31.490        27
31.500        33
31.510        20
31.520        27
31.530        40
31.540        13
31.550        13
31.560        13
31.570        27
31.580        33
31.590        20
31.600        13
31.610        13
31.620        20
31.630        27
31.640        33
31.650        13
31.660         7
31.670        27
31.680        13
31.690        27
31.700        20
31.710        33
31.720        13
31.730        13
31.740        60
31.750        20
31.760         0
31.770         7
31.780        20
31.790        13
31.800        13
31.810        33
31.820        27
31.830        27
31.840         7
31.850        20
31.860        27
31.870        33
31.880        20
31.890        13
31.900        20
31.910        20
31.920        27
31.930        27
31.940        13
31.950        53
31.960        27
31.970        20
31.980        47
31.990        87
32.000        27
32.010        60
32.020        20
32.030        20
32.040        20
32.050        27
32.060        40
32.070        20
32.080        33
32.090        40
32.100        40
32.110        33
32.120        47
32.130        27
32.140        33
32.150        53
32.160        33
32.170        40
32.180        40
32.190        73
32.200        47
32.210        67
32.220        53
32.230        53
32.240        40
32.250        47
32.260        73
32.270        73
32.280        40
32.290        73
32.300        67
32.310        80
32.320        73
32.330        93
32.340       100
32.350        87
32.360       100
32.370       120
32.380        80
32.390       113
32.400       107
32.410       120
32.420        87
32.430       127
32.440        80
32.450        73
32.460        60
32.470        93
32.480       107
32.490        80
32.500        53
32.510        67
32.520        60
32.530        47
32.540        67
32.550        73
32.560        47
32.570        60
32.580        20
32.590        47
32.600        40
32.610        53
32.620        53
32.630        67
32.640        27
32.650        47
32.660        53
32.670        20
32.680        73
32.690        47
32.700        33
32.710        47
32.720        67
32.730        40
32.740        20
32.750        13
32.760        40
32.770        40
32.780        33
32.790        13
32.800        27
32.810        27
32.820        13
32.830        40
32.840        27
32.850        40
32.860        80
32.870         7
32.880        47
32.890        20
32.900        53
32.910        20
32.920        20
32.930        20
32.940        20
32.950        27
32.960         7
32.970        27
32.980         7
32.990         7
33.000        20
33.010        33
33.020        33
33.030        13
33.040        33
33.050        13
33.060        33
33.070        33
33.080        20
33.090        53
33.100        33
33.110        13
33.120        20
33.130        27
33.140        13
33.150         7
33.160        13
33.170        60
33.180        27
33.190        13
33.200        40
33.210        27
33.220        20
33.230        20
33.240        13
33.250        20
33.260         0
33.270        20
33.280        20
33.290         0
33.300        13
33.310        27
33.320        20
33.330        33
33.340        20
33.350        13
33.360        20
33.370        33
33.380         7
33.390        27
33.400        20
33.410        13
33.420        13
33.430        13
33.440         7
33.450        27
33.460        27
33.470        20
33.480        33
33.490         7
33.500        20
33.510        40
33.520        27
33.530        27
33.540        20
33.550        27
33.560        13
33.570        40
33.580        20
33.590        13
33.600        20
33.610         7
33.620         7
33.630        20
33.640        27
33.650        13
33.660         7
33.670        13
33.680        13
33.690         0
33.700         7
33.710         7
33.720        27
33.730        27
33.740        27
33.750        13
33.760        27
33.770        27
33.780        27
33.790        27
33.800        20
33.810        20
33.820        13
33.830        27
33.840         7
33.850        27
33.860        20
33.870        27
33.880        13
33.890        27
33.900        13
33.910        27
33.920        13
33.930        40
33.940        27
33.950         7
33.960        33
33.970        13
33.980        20
33.990        27
34.000        27
34.010        40
34.020         7
34.030        20
34.040         0
34.050         0
34.060        33
34.070        33
34.080        20
34.090        13
34.100        27
34.110        27
34.120         7
34.130        13
34.140        13
34.150        40
34.160        27
34.170        20
34.180        33
34.190        27
34.200         0
34.210        27
34.220        20
34.230        20
34.240        20
34.250        20
34.260        13
34.270        20
34.280         7
34.290        27
34.300         7
34.310        20
34.320        33
34.330        20
34.340         7
34.350        20
34.360        33
34.370        20
34.380        20
34.390        20
34.400        33
34.410        53
34.420        13
34.430        13
34.440        20
34.450        13
34.460        27
34.470        13
34.480        20
34.490        13
34.500        33
34.510        47
34.520        27
34.530        13
34.540        20
34.550         7
34.560         7
34.570         7
34.580        47
34.590        20
34.600        27
34.610        27
34.620        33
34.630        20
34.640        27
34.650         0
34.660        13
34.670        27
34.680        27
34.690        13
34.700        20
34.710        20
34.720        13
34.730        33
34.740        27
34.750        27
34.760        20
34.770        13
34.780        13
34.790        27
34.800        40
34.810        20
34.820         7
34.830        27
34.840        20
34.850        27
34.860        33
34.870        33
34.880        13
34.890        27
34.900        13
34.910        20
34.920        20
34.930        27
34.940         7
34.950        53
34.960         0
34.970        40
34.980        13
34.990        13
35.000        20
35.010        87
35.020        47
35.030        67
35.040        53
35.050        27
35.060        13
35.070        47
35.080        27
35.090        40
35.100        53
35.110        73
35.120        60
35.130        53
35.140        93
35.150        87
35.160        73
35.170        47
35.180        47
35.190        80
35.200        53
35.210        33
35.220        67
35.230        60
35.240        33
35.250        40
35.260        67
35.270         7
35.280        13
35.290        33
35.300        47
35.310        27
35.320        20
35.330        13
35.340        27
35.350         7
35.360        13
35.370         0
35.380        27
35.390        33
35.400        27
35.410        20
35.420        13
35.430        13
35.440        27
35.450        20
35.460        40
35.470        27
35.480        20
35.490         0
35.500        27
35.510         7
35.520        13
35.530        20
35.540        27
35.550        13
35.560        13
35.570        33
35.580        27
35.590        20
35.600        40
35.610        27
35.620        27
35.630        20
35.640        20
35.650         7
35.660        27
35.670        27
35.680        20
35.690        13
35.700         0
35.710         7
35.720        20
35.730        13
35.740         0
35.750        13
35.760         7
35.770        20
35.780        47
35.790        20
35.800         7
35.810        13
35.820         0
35.830        13
35.840        27
35.850        13
35.860         0
35.870        20
35.880        20
35.890        40
35.900        27
35.910        20
35.920        33
35.930        20
35.940        13
35.950        13
35.960        27
35.970        27
35.980        20
35.990        27
36.000        20
36.010        20
36.020        27
36.030         7
36.040        47
36.050         0
36.060        27
36.070        20
36.080        33
36.090         7
36.100        20
36.110        27
36.120        13
36.130        13
36.140        20
36.150         7
36.160        13
36.170         0
36.180        13
36.190        27
36.200         0
36.210        47
36.220         7
36.230         7
36.240        27
36.250         0
36.260        20
36.270        13
36.280         7
36.290         7
36.300        33
36.310        27
36.320        13
36.330        20
36.340         7
36.350        33
36.360        13
36.370        20
36.380        20
36.390        13
36.400        13
36.410        20
36.420         7
36.430        27
36.440         0
36.450        20
36.460        13
36.470        27
36.480        20
36.490        13
36.500        40
36.510        33
36.520        13
36.530        13
36.540         7
36.550        13
36.560        33
36.570        13
36.580        20
36.590        13
36.600        33
36.610        13
36.620        20
36.630         0
36.640         7
36.650        33
36.660        33
36.670        20
36.680        27
36.690         7
36.700         7
36.710        27
36.720        27
36.730        27
36.740        20
36.750        33
36.760        27
36.770        20
36.780        20
36.790         7
36.800        20
36.810        20
36.820        27
36.830        20
36.840         7
36.850        27
36.860        20
36.870        27
36.880        33
36.890        13
36.900        13
36.910        13
36.920        40
36.930        20
36.940        33
36.950        13
36.960        13
36.970        13
36.980        27
36.990        33
37.000        33
37.010        53
37.020        27
37.030        33
37.040        20
37.050        33
37.060        40
37.070        20
37.080         7
37.090        27
37.100         0
37.110        20
37.120         7
37.130        27
37.140        13
37.150         7
37.160        13
37.170        27
37.180        13
37.190        13
37.200        13
37.210         7
37.220        13
37.230        20
37.240        13
37.250         7
37.260        13
37.270         0
37.280         7
37.290        13
37.300         7
37.310        13
37.320        20
37.330        20
37.340         7
37.350         0
37.360        13
37.370         7
37.380        27
37.390        20
37.400        20
37.410         7
37.420         0
37.430        20
37.440         7
37.450         0
37.460         0
37.470        13
37.480         7
37.490        20
37.500         7
37.510         7
37.520         0
37.530        13
37.540         7
37.550        13
37.560         7
37.570        33
37.580         7
37.590        20
37.600         7
37.610        20
37.620         7
37.630        33
37.640        13
37.650        13
37.660        20
37.670        27
37.680        20
37.690        20
37.700        20
37.710        40
37.720        47
37.730        67
37.740        93
37.750       113
37.760       193
37.770       133
37.780        80
37.790        73
37.800        93
37.810        47
37.820        53
37.830       107
37.840        67
37.850        60
37.860       107
37.870       113
37.880        60
37.890        53
37.900        47
37.910         7
37.920        27
37.930        47
37.940        40
37.950        20
37.960        13
37.970        33
37.980        13
37.990        13
38.000        33
38.010        13
38.020        27
38.030        33
38.040        27
38.050        13
38.060        27
38.070        33
38.080         7
38.090         7
38.100        27
38.110        20
38.120        47
38.130        20
38.140        20
38.150        20
38.160        13
38.170        33
38.180        27
38.190        33
38.200        13
38.210        13
38.220         7
38.230        13
38.240        27
38.250         7
38.260        27
38.270        13
38.280         7
38.290        27
38.300        27
38.310        27
38.320        20
38.330        47
38.340        40
38.350        27
38.360        27
38.370        20
38.380        13
38.390        20
38.400        33
38.410        13
38.420         0
38.430        27
38.440        13
38.450        47
38.460        27
38.470         7
38.480        27
38.490        27
38.500        20
38.510        13
38.520        27
38.530        13
38.540         7
38.550         0
38.560        27
38.570         7
38.580        20
38.590        27
38.600        20
38.610        13
38.620        27
38.630        13
38.640         0
38.650        33
38.660        27
38.670        27
38.680        20
38.690        13
38.700         7
38.710        13
38.720        20
38.730         0
38.740         7
38.750        33
38.760        47
38.770         7
38.780        13
38.790        20
38.800        27
38.810         7
38.820        20
38.830        27
38.840         7
38.850        20
38.860        20
38.870        13
38.880         7
38.890        20
38.900        13
38.910        13
38.920        20
38.930        13
38.940        13
38.950        20
38.960        20
38.970        13
38.980        13
38.990         0
39.000        20
39.010        27
39.020        20
39.030        20
39.040         7
39.050        20
39.060        13
39.070        20
39.080        27
39.090        13
39.100        47
39.110        53
39.120         7
39.130        47
39.140        27
39.150         0
39.160         7
39.170        53
39.180        33
39.190         7
39.200        27
39.210        20
39.220        20
39.230        27
39.240        13
39.250        13
39.260        33
39.270        47
39.280        27
39.290         7
39.300        20
39.310         7
39.320        20
39.330         7
39.340        20
39.350        20
39.360        40
39.370        40
39.380        40
39.390        20
39.400        20
39.410        40
39.420        20
39.430        20
39.440         7
39.450         0
39.460         0
39.470         0
39.480        33
39.490        27
39.500        20
39.510        20
39.520        33
39.530        27
39.540        20
39.550        20
39.560        27
39.570        27
39.580        33
39.590        33
39.600         7
39.610        20
39.620        13
39.630         0
39.640        13
39.650         7
39.660        20
39.670         7
39.680        13
39.690        40
39.700        33
39.710        53
39.720        20
39.730        20
39.740        47
39.750        20
39.760        47
39.770        33
39.780        20
39.790        40
39.800        27
39.810        33
39.820        33
39.830        53
39.840        67
39.850        60
39.860        53
39.870        20
39.880        67
39.890        67
39.900        60
39.910        60
39.920        93
39.930        80
39.940        53
39.950        87
39.960        20
39.970        87
39.980        27
39.990       113
40.000        47
40.010        47
40.020        80
40.030        87
40.040        67
40.050        67
40.060        93
40.070        33
40.080        53
40.090        47
40.100        13
40.110        33
40.120        53
40.130        67
40.140        33
40.150        80
40.160        67
40.170        33
40.180        40
40.190        27
40.200        47
40.210        20
40.220        33
40.230        13
40.240        13
40.250        33
40.260        20
40.270         7
40.280        40
40.290        27
40.300        27
40.310        27
40.320        20
40.330        13
40.340        33
40.350        13
40.360        13
40.370        13
40.380        20
40.390        33
40.400        27
40.410        13
40.420        20
40.430        47
40.440         7
40.450        13
40.460        20
40.470        20
40.480        13
40.490         7
40.500        27
40.510        27
40.520        33
40.530        20
40.540        20
40.550        20
40.560         7
40.570        13
40.580        13
40.590         0
40.600        13
40.610        13
40.620        20
40.630        20
40.640        13
40.650        13
40.660        13
40.670        20
40.680        20
40.690        20
40.700         7
40.710        33
40.720        13
40.730        20
40.740        20
40.750        27
40.760        13
40.770        13
40.780        20
40.790        33
40.800        40
40.810        40
40.820        13
40.830        20
40.840        13
40.850        20
40.860        20
40.870        20
40.880        13
40.890        13
40.900        13
40.910         7
40.920        33
40.930         7
40.940        13
40.950         7
40.960        13
40.970        27
40.980         7
40.990        33
41.000        27
41.010        13
41.020         0
41.030         7
41.040        13
41.050        27
41.060        13
41.070         7
41.080         7
41.090        20
41.100        13
41.110        20
41.120        47
41.130        47
41.140        33
41.150        33
41.160        13
41.170         7
41.180         0
41.190        47
41.200        13
41.210        13
41.220         7
41.230        13
41.240        47
41.250        13
41.260         0
41.270        20
41.280        13
41.290        13
41.300        27
41.310        13
41.320        13
41.330        27
41.340        13
41.350        13
41.360         7
41.370        13
41.380         7
41.390         0
41.400         0
41.410         7
41.420        27
41.430        27
41.440        13
41.450        20
41.460        20
41.470        27
41.480        20
41.490        13
41.500        33
41.510        27
41.520        60
41.530        53
41.540        27
41.550        20
41.560        27
41.570        67
41.580        73
41.590        67
41.600        60
41.610        67
41.620       107
41.630        67
41.640       133
41.650       140
41.660       167
41.670       207
41.680       280
41.690       220
41.700       293
41.710       267
41.720       167
41.730       200
41.740       267
41.750       140
41.760       113
41.770       167
41.780       120
41.790       173
41.800       127
41.810       153
41.820       140
41.830       147
41.840       107
41.850       100
41.860       107
41.870        60
41.880        53
41.890        40
41.900        20
41.910        27
41.920        27
41.930        33
41.940        47
41.950        20
41.960        20
41.970        27
41.980        27
41.990        13
42.000        27
42.010        13
42.020        40
42.030        40
42.040        20
42.050        33
42.060        27
42.070        20
42.080        13
42.090         7
42.100        47
42.110        13
42.120        33
42.130        27
42.140        27
42.150        33
42.160         7
42.170        20
42.180         7
42.190         7
42.200        20
42.210        20
42.220        27
42.230        13
42.240        27
42.250        27
42.260        27
42.270        33
42.280         7
42.290        33
42.300         7
42.310        20
42.320        27
42.330        47
42.340        20
42.350        27
42.360        20
42.370        27
42.380        13
42.390        20
42.400        13
42.410        20
42.420        13
42.430        13
42.440        20
42.450        13
42.460        40
42.470        20
42.480         7
42.490         7
42.500        27
42.510        20
42.520         7
42.530        13
42.540        47
42.550         7
42.560         7
42.570        20
42.580         7
42.590        13
42.600        13
42.610         0
42.620        13
42.630        33
42.640        13
42.650        13
42.660        20
42.670        20
42.680        13
42.690         7
42.700        13
42.710        13
42.720        47
42.730        27
42.740        33
42.750         0
42.760         7
42.770        13
42.780        27
42.790        20
42.800        40
42.810         7
42.820        13
42.830        33
42.840        13
42.850        13
42.860        40
42.870        27
42.880        20
42.890        27
42.900        33
42.910        20
42.920        27
42.930        27
42.940         7
42.950        20
42.960        27
42.970        13
42.980        27
42.990        20
43.000        27
43.010        27
43.020        27
43.030        20
43.040        33
43.050         0
43.060        27
43.070        13
43.080        33
43.090        20
43.100        33
43.110        13
43.120        13
43.130        33
43.140         0
43.150         7
43.160        13
43.170        20
43.180        20
43.190        33
43.200        40
43.210        27
43.220        20
43.230        20
43.240        33
43.250        33
43.260        40
43.270        13
43.280        33
43.290        33
43.300        40
43.310        27
43.320        67
43.330        53
43.340       120
43.350       160
43.360       207
43.370       373
43.380       287
43.390       360
43.400       387
43.410       320
43.420       207
43.430       120
43.440        73
43.450       100
43.460       140
43.470       107
43.480       113
43.490       107
43.500       220
43.510       120
43.520       140
43.530       160
43.540        87
43.550        67
43.560        47
43.570        40
43.580        20
43.590        27
43.600         7
43.610         0
43.620        53
43.630        13
43.640        40
43.650        20
43.660        20
43.670        13
43.680         7
43.690        13
43.700        40
43.710        13
43.720        13
43.730        13
43.740        13
43.750        20
43.760         7
43.770         0
43.780        27
43.790         7
43.800        13
43.810        33
43.820        20
43.830        27
43.840         7
43.850        13
43.860        27
43.870        40
43.880        13
43.890         7
43.900         0
43.910        27
43.920        20
43.930        20
43.940        13
43.950        13
43.960        20
43.970        13
43.980        33
43.990        33
44.000        40
44.010        27
44.020        13
44.030        20
44.040        13
44.050        13
44.060         7
44.070        27
44.080        20
44.090        33
44.100         7
44.110        27
44.120        20
44.130         7
44.140        33
44.150         0
44.160        13
44.170        20
44.180         0
44.190         7
44.200        20
44.210        40
44.220        20
44.230         7
44.240        13
44.250        13
44.260        20
44.270        13
44.280        13
44.290        20
44.300        13
44.310        13
44.320         7
44.330        27
44.340        13
44.350        20
44.360        27
44.370        13
44.380        40
44.390        33
44.400        27
44.410        20
44.420        27
44.430        27
44.440        13
44.450        27
44.460        27
44.470        13
44.480         7
44.490        20
44.500        40
44.510        40
44.520        20
44.530        20
44.540        13
44.550        13
44.560        33
44.570        20
44.580        20
44.590         0
44.600        20
44.610        47
44.620        20
44.630        27
44.640        13
44.650         7
44.660        33
44.670        20
44.680        20
44.690         7
44.700        33
44.710        20
44.720        33
44.730        33
44.740        20
44.750        33
44.760        20
44.770        40
44.780        27
44.790         7
44.800        20
44.810        20
44.820        20
44.830        27
44.840        20
44.850        47
44.860        53
44.870        13
44.880        67
44.890        60
44.900        33
44.910        33
44.920        33
44.930        20
44.940        27
44.950        40
44.960        33
44.970        67
44.980        27
44.990        33
45.000        47
45.010        40
45.020        13
45.030        20
45.040        27
45.050        27
45.060        33
45.070        33
45.080        40
45.090        13
45.100        40
45.110        27
45.120        13
45.130        20
45.140        40
45.150        27
45.160        33
45.170        40
45.180        20
45.190        27
45.200        27
45.210        27
45.220        47
45.230        20
45.240        40
45.250        20
45.260        47
45.270        20
45.280        20
45.290        27
45.300        13
45.310        20
45.320        53
45.330        47
45.340        67
45.350        20
45.360        13
45.370        40
45.380        27
45.390        27
45.400        27
45.410        33
45.420        40
45.430        40
45.440        33
45.450        27
45.460        40
45.470        27
45.480        53
45.490         0
45.500        27
45.510        33
45.520        53
45.530        47
45.540        13
45.550        27
45.560        60
45.570        20
45.580        47
45.590        33
45.600        60
45.610        73
45.620        40
45.630        33
45.640        40
45.650        40
45.660        40
45.670        40
45.680        27
45.690        53
45.700        60
45.710        40
45.720        67
45.730       100
45.740        53
45.750        27
45.760        73
45.770        53
45.780       120
45.790        87
45.800        67
45.810        53
45.820        67
45.830        80
45.840       100
45.850        87
45.860       120
45.870        80
45.880       107
45.890        73
45.900       100
45.910       167
45.920       133
45.930       120
45.940       153
45.950       107
45.960       153
45.970       133
45.980       173
45.990        87
46.000       173
46.010       193
46.020       213
46.030       220
46.040       187
46.050       167
46.060       247
46.070       233
46.080       220
46.090       240
46.100       347
46.110       307
46.120       280
46.130       407
46.140       347
46.150       320
46.160       426
46.170       400
46.180       313
46.190       387
46.200       387
46.210       407
46.220       480
46.230       620
46.240       686
46.250       633
46.260       660
46.270       660
46.280       640
46.290       706
46.300       780
46.310       620
46.320       713
46.330       726
46.340       873
46.350       886
46.360       820
46.370       920
46.380       773
46.390       966
46.400       886
46.410      1033
46.420       886
46.430       986
46.440       933
46.450      1066
46.460       866
46.470       826
46.480       840
46.490       960
46.500       886
46.510       773
46.520       900
46.530       886
46.540       880
46.550       813
46.560       966
46.570       693
46.580       793
46.590       653
46.600       706
46.610       580
46.620       706
46.630       580
46.640       413
46.650       580
46.660       566
46.670       473
46.680       473
46.690       500
46.700       413
46.710       480
46.720       400
46.730       413
46.740       320
46.750       300
46.760       340
46.770       280
46.780       293
46.790       293
46.800       287
46.810       213
46.820       233
46.830       167
46.840       253
46.850       247
46.860       180
46.870       160
46.880       220
46.890       213
46.900       113
46.910       200
46.920       140
46.930       147
46.940       153
46.950       133
46.960       127
46.970       133
46.980       153
46.990       120
47.000        87
47.010        93
47.020       107
47.030        60
47.040       107
47.050        93
47.060       107
47.070        87
47.080        80
47.090        87
47.100        67
47.110        60
47.120       107
47.130        60
47.140        60
47.150        33
47.160        80
47.170        20
47.180        40
47.190        40
47.200        53
47.210        40
47.220        53
47.230        13
47.240        33
47.250        47
47.260        20
47.270        60
47.280        27
47.290        53
47.300        53
47.310        53
47.320        27
47.330        27
47.340        13
47.350        20
47.360        33
47.370        47
47.380        27
47.390        47
47.400        47
47.410        40
47.420        73
47.430        27
47.440        27
47.450        33
47.460        47
47.470        40
47.480        20
47.490        13
47.500        60
47.510        33
47.520        47
47.530        40
47.540        40
47.550        53
47.560        40
47.570        33
47.580        20
47.590        33
47.600        13
47.610        27
47.620        33
47.630        33
47.640        27
47.650        27
47.660        20
47.670        40
47.680        13
47.690         0
47.700        73
47.710        60
47.720        33
47.730        20
47.740         7
47.750        27
47.760        13
47.770         7
47.780        33
47.790        47
47.800         0
47.810         7
47.820        27
47.830        47
47.840         7
47.850        53
47.860        13
47.870        27
47.880        20
47.890         0
47.900        13
47.910        20
47.920        27
47.930         7
47.940        33
47.950        20
47.960        47
47.970        20
47.980        40
47.990        27
48.000         7
48.010        13
48.020        47
48.030        20
48.040        20
48.050        33
48.060        33
48.070        13
48.080         7
48.090        53
48.100        27
48.110         7
48.120        33
48.130         7
48.140         7
48.150        40
48.160        20
48.170        20
48.180        13
48.190        33
48.200        20
48.210        13
48.220        13
48.230        13
48.240        33
48.250        13
48.260        20
48.270        33
48.280        47
48.290        13
48.300        40
48.310        20
48.320        33
48.330         7
48.340        20
48.350         7
48.360         7
48.370        20
48.380        13
48.390         7
48.400        13
48.410        27
48.420        27
48.430        27
48.440         7
48.450         7
48.460        33
48.470        33
48.480        13
48.490        40
48.500        33
48.510        13
48.520        33
48.530        13
48.540        33
48.550        27
48.560         0
48.570         7
48.580        13
48.590         0
48.600        27
48.610        13
48.620        20
48.630        40
48.640        20
48.650        33
48.660        27
48.670        27
48.680        33
48.690        13
48.700        13
48.710         0
48.720        20
48.730        27
48.740        27
48.750        13
48.760        20
48.770        33
48.780        40
48.790        47
48.800        20
48.810         7
48.820         7
48.830        13
48.840        20
48.850        13
48.860        27
48.870        40
48.880        27
48.890        13
48.900        47
48.910        33
48.920        27
48.930        27
48.940         7
48.950        40
48.960         7
48.970        27
48.980        47
48.990        20
49.000        13
49.010        27
49.020        13
49.030         0
49.040        13
49.050        20
49.060         7
49.070        13
49.080         7
49.090        13
49.100        27
49.110        27
49.120         7
49.130         7
49.140        27
49.150        13
49.160        20
49.170        27
49.180        20
49.190         7
49.200        33
49.210        33
49.220        33
49.230        47
49.240        13
49.250         7
49.260         7
49.270         7
49.280        47
49.290         7
49.300        20
49.310        20
49.320        13
49.330         7
49.340        27
49.350        13
49.360        20
49.370        20
49.380         7
49.390        20
49.400        13
49.410        20
49.420        13
49.430        20
49.440        27
49.450        27
49.460        20
49.470         7
49.480         7
49.490         0
49.500         0
49.510        13
49.520        27
49.530         7
49.540        20
49.550         7
49.560        33
49.570        13
49.580        20
49.590        27
49.600        13
49.610        13
49.620        13
49.630        20
49.640        27
49.650        13
49.660        20
49.670        13
49.680        13
49.690        20
49.700         7
49.710         0
49.720        13
49.730        27
49.740        13
49.750        27
49.760         7
49.770         0
49.780        40
49.790        13
49.800        27
49.810        33
49.820        13
49.830        27
49.840        20
49.850        20
49.860         7
49.870        20
49.880        13
49.890        13
49.900        33
49.910        13
49.920        13
49.930        33
49.940        13
49.950        33
49.960        13
49.970         7
49.980        20
49.990         7
50.000         7
50.010        33
50.020        13
50.030        20
50.040        33
50.050        20
50.060        13
50.070        20
50.080        20
50.090        20
50.100         7
50.110        20
50.120        20
50.130        13
50.140        40
50.150         7
50.160        27
50.170         7
50.180        13
50.190         0
50.200        27
50.210        20
50.220        20
50.230        20
50.240         7
50.250        20
50.260        40
50.270        27
50.280        33
50.290         7
50.300        13
50.310        13
50.320        40
50.330         7
50.340        33
50.350         7
50.360        20
50.370        13
50.380        27
50.390         7
50.400         7
50.410        27
50.420        13
50.430         7
50.440        27
50.450        20
50.460         0
50.470        20
50.480        20
50.490         7
50.500        13
50.510        13
50.520        33
50.530        13
50.540        27
50.550        27
50.560        13
50.570        20
50.580         7
50.590        20
50.600        27
50.610        20
50.620        13
50.630        20
50.640         7
50.650        13
50.660        33
50.670        13
50.680        27
50.690         0
50.700         7
50.710        20
50.720        13
50.730        20
50.740        20
50.750        13
50.760        13
50.770        27
50.780        13
50.790        13
50.800        27
50.810        20
50.820        13
50.830        33
50.840        40
50.850        20
50.860        13
50.870        33
50.880        27
50.890        27
50.900         0
50.910        13
50.920         7
50.930         7
50.940        27
50.950        27
50.960        27
50.970        27
50.980        13
50.990         7
51.000        20
51.010        27
51.020        27
51.030         0
51.040         7
51.050        13
51.060         7
51.070        13
51.080        13
51.090        33
51.100         7
51.110        27
51.120        33
51.130        20
51.140         7
51.150        13
51.160        13
51.170        13
51.180        13
51.190        13
51.200        20
51.210        20
51.220         7
51.230        13
51.240        20
51.250         7
51.260        20
51.270         7
51.280         7
51.290        13
51.300        13
51.310        27
51.320        13
51.330        33
51.340        27
51.350         0
51.360         0
51.370         7
51.380         7
51.390        20
51.400        20
51.410        13
51.420         7
51.430        20
51.440         7
51.450        13
51.460        13
51.470        40
51.480        20
51.490        20
51.500        13
51.510        27
51.520        20
51.530         0
51.540        13
51.550         7
51.560        20
51.570        33
51.580        20
51.590        27
51.600         0
51.610        33
51.620         0
51.630         0
51.640         0
51.650        40
51.660        27
51.670        27
51.680        13
51.690        13
51.700         7
51.710        20
51.720         7
51.730         7
51.740         7
51.750        13
51.760        33
51.770        13
51.780         0
51.790         0
51.800        13
51.810        13
51.820        13
51.830        33
51.840         0
51.850         0
51.860        20
51.870        40
51.880        40
51.890        27
51.900         0
51.910         7
51.920        13
51.930        27
51.940         7
51.950         0
51.960        20
51.970         7
51.980        27
51.990        27
52.000        20
52.010         7
52.020        27
52.030        20
52.040         0
52.050        13
52.060        27
52.070        13
52.080         7
52.090        13
52.100        20
52.110         7
52.120        20
52.130        13
52.140        13
52.150        33
52.160         7
52.170        13
52.180        27
52.190        20
52.200         7
52.210         0
52.220         7
52.230        27
52.240        47
52.250         7
52.260        20
52.270        13
52.280        13
52.290         0
52.300        33
52.310        27
52.320        20
52.330        27
52.340        27
52.350        33
52.360        73
52.370       100
52.380        93
52.390       100
52.400        87
52.410        87
52.420        40
52.430        47
52.440        67
52.450        27
52.460        13
52.470         7
52.480         7
52.490        27
52.500        33
52.510        73
52.520        80
52.530       127
52.540        80
52.550        87
52.560        87
52.570        80
52.580        67
52.590        53
52.600        47
52.610        73
52.620        93
52.630        27
52.640        53
52.650        33
52.660        47
52.670        87
52.680        47
52.690        20
52.700        60
52.710        33
52.720        27
52.730        47
52.740        40
52.750        27
52.760        33
52.770         7
52.780        20
52.790        20
52.800        20
52.810         7
52.820        13
52.830        20
52.840        33
52.850         7
52.860         0
52.870         0
52.880         7
52.890        20
52.900        20
52.910        13
52.920        13
52.930        20
52.940        20
52.950        13
52.960        33
52.970         7
52.980         0
52.990        20
53.000        27
53.010        20
53.020        13
53.030        13
53.040        47
53.050        20
53.060        13
53.070        13
53.080         0
53.090        13
53.100        13
53.110        13
53.120        27
53.130        13
53.140        20
53.150        13
53.160        20
53.170         7
53.180         7
53.190        13
53.200        13
53.210        20
53.220         7
53.230         0
53.240        13
53.250        27
53.260         7
53.270        20
53.280        13
53.290        13
53.300         7
53.310        20
53.320        33
53.330         7
53.340        13
53.350         7
53.360        33
53.370        13
53.380        20
53.390         0
53.400        53
53.410         0
53.420        13
53.430        20
53.440        20
53.450        33
53.460        13
53.470         0
53.480        27
53.490        13
53.500        33
53.510         0
53.520        27
53.530        27
53.540         0
53.550         7
53.560         7
53.570        20
53.580        13
53.590         0
53.600        27
53.610        40
53.620        20
53.630        13
53.640        13
53.650        13
53.660         0
53.670        20
53.680        27
53.690         0
53.700        13
53.710         7
53.720        33
53.730        13
53.740        27
53.750         7
53.760        20
53.770        20
53.780        20
53.790         0
53.800         0
53.810        13
53.820         0
53.830         7
53.840        20
53.850        33
53.860         0
53.870         7
53.880        20
53.890        40
53.900         0
53.910         7
53.920        13
53.930        27
53.940         7
53.950         0
53.960        13
53.970         0
53.980        13
53.990        20
54.000        20
54.010        27
54.020        13
54.030         7
54.040        33
54.050        13
54.060         7
54.070         7
54.080        13
54.090        27
54.100        27
54.110         7
54.120        27
54.130         7
54.140         7
54.150        20
54.160         7
54.170        27
54.180         7
54.190        13
54.200         0
54.210        20
54.220        27
54.230        13
54.240         7
54.250        33
54.260        13
54.270         0
54.280         7
54.290        13
54.300        13
54.310        20
54.320        13
54.330         7
54.340        13
54.350         0
54.360         7
54.370         7
54.380         7
54.390        20
54.400         7
54.410        33
54.420        13
54.430        13
54.440        13
54.450        13
54.460        27
54.470        13
54.480        13
54.490         7
54.500         0
54.510        20
54.520        33
54.530        13
54.540        20
54.550        20
54.560        13
54.570        13
54.580         7
54.590        27
54.600         0
54.610        27
54.620        40
54.630        20
54.640         7
54.650        20
54.660         7
54.670         0
54.680        20
54.690        27
54.700        20
54.710        13
54.720        33
54.730        13
54.740        13
54.750        13
54.760         0
54.770        20
54.780        20
54.790        13
54.800         0
54.810         0
54.820         7
54.830        27
54.840        20
54.850        40
54.860         7
54.870         7
54.880         0
54.890        27
54.900        20
54.910        13
54.920        20
54.930        33
54.940         7
54.950        13
54.960         7
54.970        20
54.980         0
54.990        13
55.000        13
55.010        27
55.020         7
55.030         0
55.040        13
55.050         7
55.060         7
55.070        13
55.080        33
55.090         7
55.100        27
55.110        13
55.120         0
55.130         0
55.140        33
55.150        27
55.160         7
55.170        20
55.180         0
55.190        20
55.200         0
55.210         0
55.220        27
55.230        20
55.240        20
55.250        13
55.260        13
55.270        13
55.280         7
55.290         7
55.300         7
55.310        13
55.320         0
55.330        33
55.340        13
55.350         7
55.360        13
55.370        13
55.380        20
55.390        47
55.400        27
55.410         0
55.420        20
55.430         0
55.440        20
55.450        13
55.460        13
55.470        27
55.480         7
55.490         7
55.500         0
55.510         7
55.520         7
55.530        20
55.540        20
55.550        13
55.560         7
55.570        27
55.580         7
55.590        20
55.600        13
55.610         7
55.620         0
55.630        20
55.640         0
55.650         0
55.660        20
55.670        33
55.680        13
55.690        13
55.700        13
55.710        13
55.720         7
55.730        13
55.740         7
55.750         0
55.760        13
55.770        20
55.780        33
55.790        13
55.800        40
55.810        27
55.820         0
55.830         0
55.840        13
55.850        13
55.860        13
55.870        20
55.880         7
55.890        13
55.900         7
55.910         0
55.920        20
55.930        53
55.940        27
55.950        13
55.960         7
55.970        20
55.980         7
55.990         7
56.000        20
56.010        27
56.020        27
56.030        20
56.040         7
56.050        27
56.060         7
56.070        27
56.080        20
56.090         7
56.100        13
56.110         0
56.120        27
56.130         7
56.140        13
56.150        13
56.160        13
56.170        13
56.180        20
56.190         7
56.200         7
56.210        13
56.220         0
56.230        13
56.240        13
56.250        27
56.260        20
56.270        20
56.280        13
56.290         7
56.300         0
56.310        20
56.320        13
56.330        20
56.340        13
56.350         0
56.360         7
56.370        20
56.380        13
56.390        20
56.400         7
56.410        20
56.420        13
56.430        13
56.440        13
56.450         7
56.460        47
56.470        27
56.480        27
56.490        33
56.500        20
56.510        27
56.520         0
56.530         0
56.540        27
56.550        33
56.560         7
56.570         7
56.580         7
56.590        33
56.600        27
56.610        13
56.620         0
56.630        20
56.640         7
56.650        20
56.660        13
56.670        33
56.680         0
56.690        13
56.700         0
56.710        13
56.720         0
56.730        13
56.740        13
56.750        13
56.760         7
56.770        13
56.780         0
56.790        20
56.800        27
56.810         0
56.820        20
56.830        33
56.840         0
56.850         7
56.860         7
56.870        13
56.880        40
56.890        13
56.900        33
56.910         7
56.920         7
56.930         7
56.940        40
56.950        20
56.960        27
56.970        20
56.980         7
56.990         7
57.000         0
57.010        47
57.020        13
57.030         7
57.040         7
57.050         0
57.060        20
57.070        13
57.080         7
57.090         0
57.100         7
57.110        27
57.120        20
57.130         7
57.140        20
57.150        20
57.160        20
57.170         0
57.180         7
57.190        13
57.200        27
57.210        13
57.220        20
57.230         0
57.240         7
57.250        40
57.260        13
57.270        27
57.280        27
57.290        27
57.300        13
57.310        13
57.320        33
57.330        33
57.340        27
57.350        20
57.360        27
57.370        60
57.380        40
57.390         7
57.400         7
57.410        40
57.420        60
57.430        73
57.440       120
57.450       113
57.460        60
57.470       127
57.480       140
57.490       160
57.500       207
57.510       227
57.520       240
57.530       213
57.540       273
57.550       207
57.560       133
57.570       233
57.580       133
57.590       107
57.600       100
57.610        87
57.620       113
57.630        60
57.640       133
57.650        73
57.660        87
57.670       113
57.680       140
57.690       153
57.700        93
57.710       100
57.720        93
57.730        60
57.740        40
57.750        27
57.760        20
57.770        20
57.780        27
57.790        27
57.800        20
57.810        20
57.820        33
57.830         7
57.840        20
57.850        47
57.860        27
57.870        27
57.880        13
57.890        20
57.900        20
57.910         7
57.920        13
57.930        20
57.940        13
57.950        33
57.960         7
57.970         7
57.980        13
57.990        20
58.000        27
58.010        27
58.020        20
58.030        13
58.040        20
58.050         0
58.060         7
58.070        20
58.080        27
58.090        13
58.100         7
58.110        13
58.120        47
58.130        20
58.140        27
58.150        13
58.160        13
58.170        13
58.180        27
58.190        27
58.200         7
58.210        27
58.220        13
58.230        20
58.240         0
58.250        20
58.260        40
58.270         7
58.280        20
58.290         7
58.300         7
58.310        13
58.320        13
58.330        27
58.340        13
58.350        13
58.360         7
58.370         7
58.380        13
58.390        13
58.400        13
58.410         7
58.420        13
58.430        20
58.440        20
58.450        13
58.460        13
58.470        20
58.480         7
58.490        13
58.500        13
58.510        20
58.520        13
58.530        27
58.540        13
58.550        20
58.560        13
58.570         0
58.580        13
58.590         7
58.600        20
58.610        13
58.620        27
58.630        20
58.640        13
58.650        13
58.660        13
58.670        33
58.680         0
58.690        13
58.700        13
58.710        13
58.720        27
58.730         7
58.740        27
58.750         7
58.760        27
58.770        20
58.780         7
58.790        13
58.800         0
58.810        13
58.820         7
58.830         7
58.840        20
58.850         7
58.860        20
58.870         7
58.880        20
58.890        20
58.900        13
58.910         7
58.920        13
58.930        13
58.940        13
58.950         7
58.960        27
58.970        27
58.980         7
58.990        13
59.000         7
59.010         0
59.020        13
59.030        33
59.040         7
59.050         0
59.060        27
59.070         7
59.080        13
59.090        33
59.100         7
59.110        20
59.120         0
59.130        13
59.140        20
59.150         0
59.160        27
59.170        20
59.180         0
59.190         0
59.200        27
59.210         7
59.220        20
59.230        27
59.240        13
59.250        27
59.260        20
59.270         0
59.280        13
59.290        33
59.300         7
59.310        20
59.320        20
59.330        13
59.340        13
59.350        20
59.360         7
59.370         7
59.380        20
59.390         0
59.400         7
59.410        53
59.420        13
59.430        20
59.440        33
59.450        33
59.460        27
59.470        20
59.480        33
59.490         7
59.500        13
59.510        33
59.520        33
59.530        13
59.540         0
59.550        20
59.560         7
59.570         7
59.580         7
59.590        20
59.600        13
59.610         0
59.620        47
59.630        27
59.640         7
59.650        20
59.660        13
59.670         0
59.680        20
59.690        27
59.700         7
59.710         7
59.720         7
59.730        13
59.740        13
59.750         7
59.760         7
59.770        13
59.780         7
59.790        27
59.800         7
59.810        13
59.820        13
59.830        27
59.840        20
59.850        13
59.860        13
59.870        20
59.880        20
59.890        20
59.900        27
59.910        27
59.920         7
59.930        20
59.940         7
59.950        13
59.960        27
59.970         7
59.980         7
59.990        20
60.000        20
