20.000        47
20.010        47
20.020        40
20.030        80
20.040        53
20.050        20
20.060        40
20.070        27
20.080        27
20.090        40
20.100        47
20.110        33
20.120        33
20.130        27
20.140         7
20.150        33
20.160        47
20.170        33
20.180        27
20.190        87
20.200        27
20.210        20
20.220        33
20.230        47
20.240        60
20.250        53
20.260        27
20.270        27
20.280        40
20.290        53
20.300        47
20.310        67
20.320        27
20.330        20
20.340         7
20.350        73
20.360        13
20.370        20
20.380        53
20.390        53
20.400        60
20.410        33
20.420        73
20.430        60
20.440        47
20.450        27
20.460        40
20.470        60
20.480        33
20.490        40
20.500        40
20.510        20
20.520        27
20.530        67
20.540        20
20.550        33
20.560        60
20.570        27
20.580        47
20.590        47
20.600        33
20.610        60
20.620        47
20.630        40
20.640        27
20.650        20
20.660        33
20.670        47
20.680        53
20.690        27
20.700        40
20.710        40
20.720        27
20.730        53
20.740        53
20.750        33
20.760        27
20.770         7
20.780        47
20.790        40
20.800        27
20.810        20
20.820        40
20.830        60
20.840        27
20.850        20
20.860        80
20.870        40
20.880        33
20.890        27
20.900        33
20.910        20
20.920        33
20.930        47
20.940        13
20.950        87
20.960        73
20.970        47
20.980        40
20.990        40
21.000        33
21.010        40
21.020        53
21.030        53
21.040        60
21.050        27
21.060        53
21.070        33
21.080        53
21.090        40
21.100        53
21.110        40
21.120        60
21.130        33
21.140        27
21.150        53
21.160        40
21.170        27
21.180        33
21.190        20
21.200        47
21.210        20
21.220        33
21.230        60
21.240        73
21.250        47
21.260        27
21.270        27
21.280        27
21.290        47
21.300        47
21.310        27
21.320        20
21.330        40
21.340        13
21.350        47
21.360        27
21.370        33
21.380        33
21.390        40
21.400        33
21.410        20
21.420        40
21.430        53
21.440        20
21.450        27
21.460        33
21.470        47
21.480        27
21.490        47
21.500        47
21.510        20
21.520        27
21.530        60
21.540        33
21.550        47
21.560        27
21.570        40
21.580        27
21.590        27
21.600        27
21.610        60
21.620        53
21.630        47
21.640        60
21.650        40
21.660        40
21.670        53
21.680        33
21.690         0
21.700        40
21.710        33
21.720        20
21.730        20
21.740        13
21.750        27
21.760        53
21.770        33
21.780        53
21.790        27
21.800        67
21.810        60
21.820        13
21.830        47
21.840        33
21.850         7
21.860        27
21.870        33
21.880        40
21.890        33
21.900        47
21.910        40
21.920        53
21.930        27
21.940        53
21.950        27
21.960        33
21.970        27
21.980        20
21.990        40
22.000        67
22.010        13
22.020        40
22.030        47
22.040        40
22.050         0
22.060        53
22.070        33
22.080        67
22.090        33
22.100        20
22.110        33
22.120        20
22.130        27
22.140        33
22.150        20
22.160        33
22.170        33
22.180        47
22.190        33
22.200        20
22.210        40
22.220        27
22.230        20
22.240        47
22.250        40
22.260        67
22.270        20
22.280        20
22.290        20
22.300        67
22.310        60
22.320        27
22.330        53
22.340        93
22.350        33
22.360        40
22.370        53
22.380        40
22.390        40
22.400        20
22.410        73
22.420         0
22.430        47
22.440        33
22.450        60
22.460        40
22.470        27
22.480        47
22.490        33
22.500        33
22.510        27
22.520         7
22.530        27
22.540        13
22.550        27
22.560        33
22.570        40
22.580        47
22.590        20
22.600        40
22.610        40
22.620        20
22.630        20
22.640        33
22.650        47
22.660        33
22.670         7
22.680        27
22.690        27
22.700        40
22.710        20
22.720        33
22.730        33
22.740        20
22.750        40
22.760        47
22.770        13
22.780        47
22.790        53
22.800        40
22.810        47
22.820        27
22.830        13
22.840        47
22.850        53
22.860        27
22.870        60
22.880        27
22.890        53
22.900        33
22.910        20
22.920        27
22.930        47
22.940        40
22.950        27
22.960        27
22.970        33
22.980        13
22.990        20
23.000        33
23.010        33
23.020        20
23.030        13
23.040        33
23.050        27
23.060        47
23.070        13
23.080        33
23.090        40
23.100        27
23.110        53
23.120        47
23.130        13
23.140        20
23.150        33
23.160        20
23.170        27
23.180        33
23.190        13
23.200        47
23.210        20
23.220        40
23.230        40
23.240        40
23.250        27
23.260        27
23.270        27
23.280        40
23.290        40
23.300        20
23.310        40
23.320        13
23.330        33
23.340        20
23.350        33
23.360        33
23.370        47
23.380        47
23.390        40
23.400        60
23.410        27
23.420        27
23.430        13
23.440        20
23.450        20
23.460        60
23.470        27
23.480        27
23.490        13
23.500        20
23.510        27
23.520        60
23.530        40
23.540        40
23.550        47
23.560        20
23.570        13
23.580        20
23.590        40
23.600        40
23.610        53
23.620        33
23.630        53
23.640        27
23.650        60
23.660        47
23.670        47
23.680        13
23.690         7
23.700        53
23.710        80
23.720        53
23.730        67
23.740        40
23.750        40
23.760        27
23.770        67
23.780        47
23.790        27
23.800        27
23.810        20
23.820        47
23.830         7
23.840        20
23.850        27
23.860        27
23.870        13
23.880        27
23.890        40
23.900        60
23.910        60
23.920         7
23.930        33
23.940         0
23.950        27
23.960        47
23.970        40
23.980        27
23.990        53
24.000        33
24.010        47
24.020        40
24.030        27
24.040        60
24.050        40
24.060        20
24.070        40
24.080        27
24.090        47
24.100        20
24.110        20
24.120        33
24.130        47
24.140        47
24.150        53
24.160        13
24.170        47
24.180        33
24.190        47
24.200        33
24.210        20
24.220        20
24.230         7
24.240        33
24.250        33
24.260        27
24.270        13
24.280        20
24.290        20
24.300        20
24.310        27
24.320        27
24.330        20
24.340         7
24.350        40
24.360        27
24.370        47
24.380        27
24.390        80
24.400        53
24.410        13
24.420        60
24.430        27
24.440        47
24.450         7
24.460        60
24.470        27
24.480        13
24.490        47
24.500        33
24.510        47
24.520        13
24.530        47
24.540        27
24.550        20
24.560        13
24.570        73
24.580        40
24.590        13
24.600        53
24.610        20
24.620        33
24.630        47
24.640        40
24.650        40
24.660        13
24.670         0
24.680        60
24.690        40
24.700        13
24.710        47
24.720        13
24.730        13
24.740        40
24.750        20
24.760        27
24.770        53
24.780        53
24.790        47
24.800        53
24.810        20
24.820        13
24.830        20
24.840         7
24.850        60
24.860         7
24.870        27
24.880        33
24.890         7
24.900        47
24.910        20
24.920        47
24.930        33
24.940        13
24.950        27
24.960        13
24.970         7
24.980        27
24.990        33
25.000        27
25.010        27
25.020        33
25.030        40
25.040        40
25.050        20
25.060        67
25.070        27
25.080        33
25.090        13
25.100        13
25.110        13
25.120        20
25.130        40
25.140        33
25.150        40
25.160        20
25.170        33
25.180        13
25.190        27
25.200        47
25.210        20
25.220        53
25.230        27
25.240         7
25.250        27
25.260         0
25.270        33
25.280        33
25.290        40
25.300        13
25.310         7
25.320        53
25.330        13
25.340        33
25.350        27
25.360        13
25.370        47
25.380        20
25.390        27
25.400        33
25.410        33
25.420        13
25.430        33
25.440        40
25.450        60
25.460        20
25.470        33
25.480        27
25.490        40
25.500        47
25.510         7
25.520        33
25.530        33
25.540        13
25.550        33
25.560        20
25.570        40
25.580        47
25.590        13
25.600         7
25.610         7
25.620         7
25.630        47
25.640        20
25.650        20
25.660        33
25.670        47
25.680        40
25.690        27
25.700        20
25.710        13
25.720        60
25.730        33
25.740        13
25.750        27
25.760        40
25.770         0
25.780        20
25.790        33
25.800        33
25.810        20
25.820         7
25.830        40
25.840        27
25.850        33
25.860        27
25.870        27
25.880        20
25.890        20
25.900        60
25.910        20
25.920        20
25.930        27
25.940        20
25.950        27
25.960        13
25.970        13
25.980        13
25.990        27
26.000        20
26.010        40
26.020        33
26.030        20
26.040        27
26.050        33
26.060        27
26.070        47
26.080        33
26.090        20
26.100        27
26.110        40
26.120        40
26.130        33
26.140        20
26.150        20
26.160        33
26.170        20
26.180        20
26.190        20
26.200        20
26.210        33
26.220        40
26.230        40
26.240        13
26.250        20
26.260         7
26.270        13
26.280        33
26.290        13
26.300        20
26.310        27
26.320        27
26.330        13
26.340        20
26.350        27
26.360        40
26.370        13
26.380        13
26.390        13
26.400        40
26.410        47
26.420        40
26.430        33
26.440         0
26.450        33
26.460        27
26.470        33
26.480        27
26.490        27
26.500        13
26.510        47
26.520        33
26.530        53
26.540        47
26.550         7
26.560        13
26.570        27
26.580        33
26.590        47
26.600        53
26.610        40
26.620        33
26.630        40
26.640        27
26.650        27
26.660        33
26.670        13
26.680        27
26.690        33
26.700         7
26.710        13
26.720        33
26.730        20
26.740         7
26.750        53
26.760        33
26.770        40
26.780        13
26.790         0
26.800        33
26.810        27
26.820        20
26.830        33
26.840        27
26.850        27
26.860        33
26.870        47
26.880        20
26.890        13
26.900        27
26.910        27
26.920        47
26.930        13
26.940        13
26.950        33
26.960        40
26.970        27
26.980        33
26.990        27
27.000        20
27.010        60
27.020        33
27.030        20
27.040         7
27.050        33
27.060        20
27.070        47
27.080        47
27.090        53
27.100        53
27.110         7
27.120        20
27.130        47
27.140         7
27.150        33
27.160        53
27.170        13
27.180        20
27.190        53
27.200        40
27.210         7
27.220        13
27.230        20
27.240        27
27.250         7
27.260        40
27.270        20
27.280        13
27.290        33
27.300        40
27.310        27
27.320        20
27.330        27
27.340        40
27.350        20
27.360         7
27.370        40
27.380        33
27.390        47
27.400        33
27.410        13
27.420        27
27.430        20
27.440        33
27.450        20
27.460        33
27.470        27
27.480        27
27.490        27
27.500        20
27.510        33
27.520        27
27.530        27
27.540        20
27.550        60
27.560        13
27.570        20
27.580         7
27.590         7
27.600        13
27.610        40
27.620        27
27.630        27
27.640        47
27.650        40
27.660        20
27.670        67
27.680        40
27.690        27
27.700        47
27.710        13
27.720        20
27.730        20
27.740        27
27.750        40
27.760        40
27.770        40
27.780        67
27.790        13
27.800        40
27.810        20
27.820        13
27.830        33
27.840        20
27.850        47
27.860        27
27.870        20
27.880        40
27.890        27
27.900        33
27.910        27
27.920        33
27.930        33
27.940        40
27.950        27
27.960        27
27.970        20
27.980         7
27.990        33
28.000        40
28.010        40
28.020         0
28.030        40
28.040        40
28.050        60
28.060        40
28.070        33
28.080        20
28.090        40
28.100        53
28.110        33
28.120        47
28.130        53
28.140        33
28.150        27
28.160        20
28.170        40
28.180        13
28.190        33
28.200        87
28.210        20
28.220        27
28.230        40
28.240        33
28.250        20
28.260        47
28.270        20
28.280        20
28.290         7
28.300        47
28.310        27
28.320        40
28.330        13
28.340        33
28.350        33
28.360        47
28.370        20
28.380        40
28.390        27
28.400        20
28.410        33
28.420        20
28.430        53
28.440        40
28.450        20
28.460        40
28.470        40
28.480        13
28.490        33
28.500        27
28.510        27
28.520        47
28.530        13
28.540        13
28.550        27
28.560        27
28.570        20
28.580        33
28.590        33
28.600        13
28.610        33
28.620        20
28.630        13
28.640         7
28.650        20
28.660        40
28.670        33
28.680        60
28.690        33
28.700         7
28.710        27
28.720         7
28.730        53
28.740        27
28.750        20
28.760        20
28.770        20
28.780        27
28.790        33
28.800        20
28.810         0
28.820        27
28.830        20
28.840        27
28.850        33
28.860        20
28.870        27
28.880        27
28.890        27
28.900        20
28.910         7
28.920        13
28.930        47
28.940        40
28.950        20
28.960        13
28.970        27
28.980        33
28.990        13
29.000        67
29.010         7
29.020        27
29.030        33
29.040        27
29.050        40
29.060        13
29.070        27
29.080         7
29.090        20
29.100        40
29.110         7
29.120        20
29.130        20
29.140        13
29.150        47
29.160        27
29.170        33
29.180         0
29.190         7
29.200        27
29.210        33
29.220        13
29.230        40
29.240        20
29.250        27
29.260        27
29.270        13
29.280        27
29.290        33
29.300        13
29.310        13
29.320        53
29.330        20
29.340        20
29.350        33
29.360         7
29.370        33
29.380        27
29.390        27
29.400        20
29.410        20
29.420        47
29.430        33
29.440        20
29.450        27
29.460        27
29.470        27
29.480        33
29.490        33
29.500        20
29.510        47
29.520        20
29.530        13
29.540        33
29.550        20
29.560        27
29.570        40
29.580        20
29.590        13
29.600        47
29.610        27
29.620        13
29.630        20
29.640        20
29.650        20
29.660        13
29.670        20
29.680        27
29.690        13
29.700        47
29.710        33
29.720        53
29.730        27
29.740        27
29.750        27
29.760        27
29.770        20
29.780        27
29.790        33
29.800        20
29.810        13
29.820        13
29.830        20
29.840        33
29.850        40
29.860        20
29.870         7
29.880        33
29.890        33
29.900         7
29.910         7
29.920        20
29.930        13
29.940        20
29.950        27
29.960        13
29.970        33
29.980        20
29.990        73
30.000        33
30.010        13
30.020        53
30.030        13
30.040         7
30.050        20
30.060         7
30.070        13
30.080         7
30.090        40
30.100         7
30.110        33
30.120        27
30.130        47
30.140        27
30.150        20
30.160        27
30.170        27
30.180        53
30.190        13
30.200        73
30.210        73
30.220        33
30.230        27
30.240        20
30.250        47
30.260        13
30.270        47
30.280        27
30.290        40
30.300        53
30.310        33
30.320        40
30.330        40
30.340        47
30.350        40
30.360        33
30.370        40
30.380        33
30.390        27
30.400        27
30.410        60
30.420        40
30.430        20
30.440        27
30.450        20
30.460        13
30.470        40
30.480        40
30.490        73
30.500        40
30.510        33
30.520        47
30.530        60
30.540        53
30.550        33
30.560        27
30.570        33
30.580        27
30.590        60
30.600        53
30.610        53
30.620        47
30.630        47
30.640        27
30.650        47
30.660        47
30.670        27
30.680        33
30.690        40
30.700        73
30.710        47
30.720        53
30.730        60
30.740        40
30.750        67
30.760        47
30.770        93
30.780        60
30.790       100
30.800        33
30.810        53
30.820        47
30.830        93
30.840       113
30.850        93
30.860        87
30.870       133
30.880       113
30.890        73
30.900       113
30.910        80
30.920       107
30.930       167
30.940       133
30.950       133
30.960       127
30.970       140
30.980       127
30.990       240
31.000       200
31.010       340
31.020       300
31.030       347
31.040       380
31.050       453
31.060       520
31.070       520
31.080       673
31.090       893
31.100       780
31.110       913
31.120      1246
31.130      1240
31.140      1379
31.150      1759
31.160      2106
31.170      2286
31.180      2339
31.190      2386
31.200      2659
31.210      2766
31.220      3059
31.230      3085
31.240      2799
31.250      2759
31.260      3132
31.270      2846
31.280      2592
31.290      2526
31.300      2319
31.310      2352
31.320      2006
31.330      2192
31.340      1779
31.350      1666
31.360      1393
31.370      1346
31.380      1113
31.390       866
31.400       693
31.410       800
31.420       560
31.430       540
31.440       520
31.450       560
31.460       433
31.470       340
31.480       300
31.490       213
31.500       233
31.510       187
31.520       193
31.530       160
31.540       107
31.550       140
31.560       147
31.570       120
31.580       120
31.590       100
31.600       127
31.610       100
31.620        80
31.630        87
31.640        67
31.650       107
31.660        80
31.670        73
31.680        60
31.690        40
31.700        87
31.710        40
31.720        27
31.730        67
31.740        53
31.750        47
31.760        47
31.770        40
31.780        67
31.790        33
31.800        47
31.810        87
31.820        40
31.830        67
31.840        47
31.850        47
31.860       127
31.870        60
31.880        73
31.890        60
31.900        27
31.910        27
31.920        67
31.930        53
31.940        53
31.950        53
31.960         7
31.970        27
31.980        40
31.990        67
32.000        93
32.010        53
32.020        53
32.030        40
32.040        33
32.050        13
32.060        33
32.070        27
32.080        47
32.090        47
32.100        33
32.110        47
32.120        27
32.130        60
32.140        60
32.150        47
32.160        47
32.170        67
32.180        53
32.190        33
32.200        47
32.210        13
32.220        20
32.230        53
32.240        27
32.250        20
32.260        27
32.270        13
32.280        20
32.290        27
32.300        33
32.310        20
32.320        33
32.330        73
32.340        47
32.350        40
32.360         7
32.370        40
32.380        53
32.390        13
32.400        20
32.410        27
32.420        47
32.430        20
32.440        40
32.450        33
32.460        40
32.470        53
32.480        33
32.490        33
32.500        20
32.510        33
32.520        33
32.530        20
32.540        47
32.550        40
32.560        40
32.570         7
32.580        40
32.590        60
32.600         0
32.610        27
32.620        20
32.630        27
32.640         0
32.650        47
32.660        53
32.670        27
32.680        13
32.690        47
32.700        33
32.710        13
32.720        33
32.730         7
32.740        33
32.750        13
32.760        20
32.770        27
32.780        53
32.790        53
32.800        67
32.810        27
32.820        27
32.830        60
32.840        40
32.850        53
32.860        13
32.870        47
32.880        33
32.890        27
32.900        20
32.910        13
32.920        27
32.930        27
32.940        27
32.950        33
32.960        53
32.970        47
32.980        27
32.990        27
33.000        13
33.010        27
33.020        20
33.030        27
33.040        33
33.050         7
33.060        20
33.070        47
33.080        13
33.090         7
33.100        33
33.110        27
33.120        40
33.130        33
33.140        33
33.150        47
33.160        60
33.170        33
33.180        33
33.190        33
33.200        20
33.210        40
33.220        47
33.230        20
33.240        40
33.250        33
33.260        60
33.270        13
33.280        20
33.290         7
33.300        73
33.310        40
33.320        13
33.330        40
33.340        33
33.350        20
33.360        27
33.370        40
33.380        27
33.390        20
33.400        27
33.410        40
33.420        40
33.430        20
33.440        40
33.450        20
33.460        20
33.470        60
33.480         7
33.490        60
33.500        27
33.510        20
33.520        27
33.530         7
33.540        20
33.550        47
33.560        40
33.570        40
33.580        20
33.590        27
33.600        27
33.610         7
33.620        40
33.630         7
33.640        20
33.650        33
33.660        33
33.670        27
33.680        40
33.690        33
33.700        27
33.710        20
33.720         7
33.730        20
33.740        33
33.750        27
33.760        53
33.770        33
33.780        27
33.790         7
33.800        13
33.810        13
33.820        27
33.830        13
33.840        33
33.850        33
33.860        27
33.870        33
33.880        27
33.890        20
33.900        20
33.910        13
33.920        20
33.930        40
33.940         7
33.950        20
33.960        20
33.970        33
33.980        33
33.990        40
34.000        33
34.010        33
34.020        40
34.030        27
34.040         7
34.050        20
34.060        13
34.070        40
34.080         0
34.090        20
34.100         0
34.110        33
34.120        33
34.130        33
34.140        53
34.150        53
34.160        20
34.170        47
34.180        40
34.190        13
34.200         7
34.210        20
34.220        33
34.230        20
34.240        13
34.250        13
34.260        27
34.270        13
34.280        33
34.290        40
34.300        27
34.310         7
34.320        20
34.330        20
34.340        27
34.350         7
34.360        27
34.370        33
34.380        13
34.390        20
34.400        33
34.410         7
34.420        27
34.430        40
34.440        13
34.450        20
34.460        33
34.470        13
34.480        33
34.490        13
34.500        13
34.510        27
34.520         0
34.530        27
34.540         0
34.550        20
34.560         7
34.570        13
34.580        47
34.590        20
34.600        27
34.610         7
34.620        33
34.630        27
34.640        13
34.650        27
34.660         7
34.670        40
34.680        40
34.690        33
34.700         7
34.710        20
34.720        27
34.730        20
34.740        33
34.750        20
34.760        33
34.770        53
34.780        13
34.790        27
34.800        13
34.810        20
34.820        27
34.830        20
34.840        13
34.850        40
34.860        20
34.870        13
34.880        27
34.890        40
34.900        13
34.910        47
34.920        20
34.930        20
34.940        47
34.950        33
34.960        20
34.970        20
34.980        20
34.990        13
35.000         7
35.010        20
35.020        20
35.030        27
35.040         7
35.050        20
35.060        27
35.070        20
35.080        33
35.090        27
35.100        60
35.110        27
35.120        60
35.130       100
35.140       113
35.150        67
35.160        60
35.170       127
35.180        53
35.190        67
35.200        93
35.210        93
35.220        73
35.230        67
35.240        60
35.250        87
35.260        73
35.270        47
35.280        73
35.290        40
35.300        87
35.310        33
35.320        40
35.330        33
35.340        33
35.350        20
35.360        27
35.370        40
35.380        13
35.390        33
35.400        27
35.410        27
35.420        13
35.430        27
35.440        20
35.450        47
35.460        27
35.470         7
35.480        40
35.490        40
35.500        20
35.510        27
35.520        33
35.530        27
35.540        20
35.550        20
35.560        20
35.570        20
35.580        47
35.590        33
35.600        27
35.610         7
35.620        27
35.630        40
35.640         7
35.650        20
35.660        27
35.670        20
35.680        20
35.690         7
35.700        40
35.710        33
35.720         7
35.730         7
35.740        40
35.750        20
35.760        13
35.770        13
35.780         7
35.790        20
35.800        40
35.810        27
35.820         0
35.830        20
35.840        40
35.850         7
35.860        47
35.870        13
35.880        13
35.890        20
35.900        27
35.910        27
35.920        33
35.930        33
35.940        27
35.950        20
35.960        27
35.970        20
35.980        20
35.990         7
36.000         7
36.010         7
36.020        20
36.030         7
36.040        27
36.050        27
36.060        40
36.070        20
36.080        20
36.090        33
36.100        13
36.110         7
36.120        20
36.130        40
36.140        13
36.150        20
36.160         7
36.170        20
36.180        40
36.190        33
36.200        40
36.210        33
36.220        27
36.230         7
36.240        33
36.250         7
36.260        13
36.270         7
36.280        20
36.290        27
36.300        27
36.310        13
36.320         7
36.330        13
36.340        20
36.350        13
36.360        13
36.370         0
36.380        20
36.390        13
36.400        20
36.410        47
36.420        27
36.430        40
36.440        27
36.450        33
36.460         7
36.470        20
36.480         7
36.490         7
36.500        27
36.510        27
36.520        13
36.530        27
36.540         7
36.550        20
36.560        13
36.570        27
36.580        27
36.590        27
36.600        40
36.610         7
36.620        13
36.630         7
36.640         7
36.650        20
36.660         7
36.670        13
36.680        33
36.690        27
36.700         7
36.710         0
36.720        20
36.730        13
36.740        27
36.750         7
36.760        13
36.770         7
36.780        13
36.790        20
36.800        47
36.810        27
36.820        27
36.830        20
36.840        27
36.850        60
36.860        40
36.870         7
36.880        27
36.890        13
36.900        27
36.910        27
36.920        13
36.930         7
36.940        27
36.950        33
36.960        13
36.970         7
36.980         7
36.990        33
37.000        20
37.010        33
37.020         7
37.030        33
37.040        27
37.050        40
37.060        33
37.070         7
37.080        33
37.090        27
37.100        20
37.110        13
37.120        13
37.130        13
37.140        20
37.150        20
37.160        13
37.170        13
37.180        27
37.190        27
37.200         7
37.210        20
37.220        33
37.230        33
37.240        13
37.250         7
37.260        13
37.270         7
37.280        40
37.290        40
37.300        20
37.310        27
37.320        27
37.330        13
37.340         0
37.350        13
37.360        27
37.370        40
37.380        33
37.390         7
37.400        20
37.410        40
37.420         0
37.430        13
37.440        27
37.450        20
37.460        27
37.470        33
37.480        40
37.490        27
37.500        20
37.510        40
37.520        27
37.530        13
37.540         0
37.550        27
37.560        20
37.570        13
37.580        33
37.590        20
37.600        40
37.610        27
37.620        47
37.630        20
37.640        20
37.650         0
37.660        20
37.670        13
37.680        20
37.690        20
37.700        33
37.710        20
37.720        13
37.730        33
37.740         7
37.750         7
37.760         7
37.770        20
37.780        20
37.790        20
37.800        20
37.810        20
37.820        33
37.830        27
37.840        20
37.850        20
37.860        13
37.870        13
37.880        13
37.890        27
37.900        33
37.910        13
37.920        20
37.930        27
37.940        13
37.950         7
37.960        13
37.970        33
37.980         7
37.990        27
38.000         7
38.010        20
38.020        20
38.030        13
38.040        27
38.050        13
38.060        27
38.070        20
38.080        27
38.090        27
38.100        40
38.110        60
38.120        27
38.130        27
38.140        40
38.150        27
38.160         7
38.170         7
38.180        20
38.190        27
38.200        27
38.210        27
38.220        40
38.230        13
38.240        20
38.250        27
38.260        20
38.270        27
38.280        40
38.290        20
38.300        27
38.310        20
38.320        60
38.330        40
38.340        47
38.350        13
38.360        20
38.370        53
38.380        60
38.390        20
38.400        53
38.410        53
38.420         7
38.430        33
38.440        40
38.450        67
38.460        60
38.470        40
38.480        60
38.490        93
38.500        60
38.510        60
38.520        53
38.530       100
38.540        80
38.550       113
38.560        27
38.570        87
38.580        87
38.590        67
38.600       120
38.610        87
38.620       100
38.630        67
38.640        80
38.650       140
38.660        67
38.670       100
38.680        60
38.690       100
38.700        60
38.710        80
38.720        67
38.730        93
38.740        53
38.750        80
38.760        33
38.770        80
38.780        60
38.790        80
38.800        33
38.810        53
38.820        53
38.830        27
38.840        47
38.850        53
38.860        13
38.870        27
38.880        27
38.890        47
38.900        40
38.910        33
38.920        47
38.930        33
38.940        13
38.950        27
38.960        20
38.970        20
38.980        13
38.990         7
39.000        20
39.010        33
39.020        20
39.030        20
39.040        33
39.050        20
39.060        20
39.070         7
39.080        60
39.090        33
39.100        47
39.110        27
39.120        13
39.130        27
39.140        27
39.150        53
39.160        13
39.170        20
39.180        13
39.190        27
39.200        27
39.210        13
39.220        27
39.230        20
39.240        27
39.250        27
39.260        20
39.270         7
39.280        40
39.290        47
39.300        13
39.310         7
39.320        20
39.330        13
39.340        53
39.350        40
39.360         0
39.370        13
39.380        33
39.390        27
39.400         7
39.410        13
39.420         7
39.430        40
39.440        27
39.450        33
39.460        13
39.470        13
39.480         0
39.490        33
39.500         7
39.510        27
39.520         0
39.530        13
39.540        20
39.550         7
39.560        20
39.570        27
39.580        13
39.590        13
39.600         7
39.610         0
39.620        20
39.630        27
39.640        13
39.650        20
39.660         7
39.670        40
39.680        13
39.690         7
39.700        13
39.710         7
39.720         7
39.730        20
39.740         7
39.750        13
39.760        20
39.770        20
39.780        20
39.790        20
39.800        27
39.810        33
39.820        27
39.830        27
39.840         0
39.850        33
39.860        47
39.870        20
39.880        20
39.890         0
39.900        33
39.910        20
39.920        20
39.930        20
39.940         0
39.950        20
39.960        13
39.970        33
39.980        13
39.990        20
40.000        13
40.010        33
40.020        20
40.030         7
40.040        27
40.050        27
40.060        27
40.070        20
40.080         7
40.090         7
40.100        33
40.110        13
40.120        13
40.130        13
40.140        33
40.150        20
40.160         0
40.170        20
40.180        13
40.190        20
40.200        13
40.210        13
40.220        13
40.230        27
40.240        20
40.250        20
40.260         0
40.270        33
40.280        40
40.290        20
40.300         7
40.310        13
40.320        13
40.330         0
40.340         7
40.350        13
40.360         7
40.370        33
40.380        27
40.390        20
40.400        20
40.410        40
40.420        27
40.430        13
40.440         7
40.450        13
40.460        13
40.470        13
40.480         0
40.490        27
40.500        13
40.510        20
40.520         7
40.530         0
40.540        47
40.550        33
40.560        13
40.570         7
40.580        20
40.590         0
40.600         7
40.610        13
40.620        13
40.630         7
40.640         0
40.650        33
40.660        20
40.670        20
40.680        13
40.690         7
40.700        40
40.710        13
40.720        27
40.730         7
40.740        27
40.750        13
40.760        40
40.770        13
40.780        20
40.790        13
40.800        13
40.810        40
40.820         7
40.830        13
40.840        27
40.850        13
40.860        20
40.870        13
40.880        13
40.890        20
40.900        20
40.910        27
40.920        27
40.930        20
40.940        40
40.950         7
40.960        13
40.970        20
40.980        13
40.990        27
41.000        20
41.010        27
41.020        40
41.030         7
41.040        27
41.050         7
41.060        20
41.070        27
41.080        13
41.090        13
41.100        20
41.110         7
41.120        20
41.130        33
41.140         7
41.150        33
41.160        20
41.170        13
41.180         7
41.190        20
41.200        27
41.210        13
41.220         7
41.230         0
41.240         7
41.250        40
41.260        13
41.270        27
41.280        13
41.290        33
41.300         0
41.310        33
41.320        40
41.330        13
41.340         0
41.350        20
41.360        27
41.370        27
41.380        40
41.390        20
41.400        27
41.410         7
41.420        13
41.430        13
41.440         7
41.450         7
41.460        13
41.470        20
41.480        13
41.490        47
41.500        13
41.510        27
41.520        13
41.530        40
41.540        13
41.550        27
41.560        27
41.570        40
41.580        47
41.590        27
41.600         7
41.610         7
41.620         7
41.630        13
41.640        60
41.650        40
41.660        53
41.670        47
41.680        73
41.690        87
41.700        93
41.710       113
41.720        93
41.730        20
41.740        40
41.750        40
41.760        47
41.770        40
41.780        40
41.790        27
41.800        53
41.810        60
41.820        40
41.830        60
41.840        20
41.850        13
41.860        20
41.870        20
41.880        27
41.890         0
41.900        27
41.910         7
41.920        13
41.930        27
41.940         7
41.950        20
41.960         7
41.970        33
41.980        13
41.990        27
42.000         7
42.010        20
42.020         7
42.030        20
42.040        27
42.050        40
42.060        20
42.070        33
42.080        27
42.090        13
42.100        20
42.110        27
42.120        20
42.130        40
42.140        20
42.150         7
42.160        27
42.170        13
42.180         7
42.190        40
42.200        33
42.210        40
42.220         7
42.230        40
42.240        20
42.250        20
42.260        13
42.270        13
42.280        27
42.290        27
42.300        13
42.310        27
42.320        47
42.330        20
42.340        13
42.350        20
42.360         7
42.370        20
42.380        13
42.390         7
42.400         0
42.410        13
42.420        27
42.430        20
42.440        20
42.450         0
42.460         7
42.470        27
42.480        20
42.490        33
42.500        13
42.510        27
42.520        27
42.530        27
42.540        13
42.550        13
42.560        40
42.570         7
42.580        20
42.590        27
42.600        20
42.610         7
42.620        27
42.630        20
42.640        20
42.650         7
42.660         7
42.670        33
42.680        13
42.690         7
42.700        33
42.710        40
42.720        13
42.730        27
42.740        27
42.750        20
42.760        20
42.770         7
42.780        27
42.790        27
42.800        13
42.810        20
42.820        20
42.830        13
42.840        27
42.850        33
42.860        20
42.870        20
42.880        13
42.890        20
42.900        20
42.910        33
42.920        47
42.930        20
42.940        20
42.950        20
42.960         7
42.970        20
42.980        20
42.990        20
43.000        20
43.010        20
43.020        20
43.030         7
43.040        33
43.050        40
43.060        27
43.070        20
43.080         7
43.090         7
43.100        13
43.110        33
43.120         0
43.130         7
43.140        27
43.150        27
43.160        47
43.170        27
43.180        20
43.190        13
43.200        20
43.210        20
43.220        27
43.230        13
43.240         7
43.250        13
43.260        13
43.270        20
43.280        47
43.290        33
43.300        40
43.310        27
43.320        60
43.330        73
43.340        93
43.350        73
43.360       107
43.370        67
43.380        53
43.390        47
43.400        47
43.410        67
43.420        47
43.430        27
43.440        27
43.450        53
43.460        27
43.470        40
43.480        40
43.490        53
43.500        60
43.510        40
43.520        27
43.530        27
43.540        13
43.550        20
43.560        33
43.570         7
43.580         7
43.590        20
43.600         7
43.610        40
43.620        13
43.630         7
43.640         7
43.650        13
43.660        20
43.670         7
43.680         7
43.690        40
43.700        27
43.710         0
43.720         7
43.730         7
43.740        27
43.750        27
43.760        40
43.770        27
43.780        40
43.790         7
43.800        20
43.810        40
43.820        27
43.830        20
43.840        20
43.850        13
43.860        13
43.870         7
43.880        40
43.890        13
43.900         7
43.910        33
43.920        33
43.930         7
43.940        20
43.950        13
43.960         7
43.970        13
43.980         7
43.990        13
44.000        13
44.010         7
44.020        27
44.030        33
44.040         0
44.050         7
44.060        20
44.070        20
44.080         0
44.090        27
44.100        13
44.110        13
44.120        20
44.130        27
44.140        13
44.150         0
44.160        13
44.170         0
44.180        20
44.190         7
44.200        40
44.210         7
44.220        13
44.230        13
44.240        20
44.250        20
44.260        40
44.270        47
44.280        13
44.290        33
44.300        40
44.310        47
44.320        27
44.330        20
44.340        20
44.350        13
44.360        27
44.370        40
44.380        20
44.390        27
44.400         7
44.410        13
44.420         7
44.430        13
44.440        13
44.450         7
44.460        13
44.470         7
44.480        13
44.490        27
44.500        13
44.510        20
44.520        20
44.530        13
44.540         7
44.550        13
44.560        20
44.570        20
44.580        13
44.590        13
44.600        20
44.610        33
44.620         7
44.630         7
44.640        27
44.650        13
44.660        13
44.670         7
44.680        13
44.690        27
44.700        20
44.710        13
44.720        13
44.730        20
44.740        20
44.750        27
44.760        40
44.770        33
44.780        40
44.790        27
44.800        27
44.810         7
44.820        20
44.830         7
44.840        27
44.850        33
44.860        20
44.870        40
44.880        27
44.890        27
44.900         7
44.910        40
44.920        27
44.930        27
44.940        20
44.950        80
44.960        53
44.970         7
44.980        20
44.990        20
45.000         7
45.010        20
45.020        20
45.030        40
45.040        40
45.050        27
45.060        13
45.070        13
45.080        13
45.090        27
45.100        13
45.110        13
45.120         7
45.130        20
45.140        13
45.150        20
45.160         7
45.170        33
45.180        20
45.190        40
45.200         0
45.210        27
45.220        13
45.230        13
45.240        13
45.250         7
45.260         7
45.270         7
45.280        13
45.290        20
45.300        13
45.310        20
45.320         0
45.330        33
45.340         0
45.350        27
45.360         7
45.370        13
45.380         7
45.390        13
45.400        13
45.410         7
45.420         7
45.430        20
45.440         7
45.450         7
45.460        20
45.470        13
45.480        13
45.490        27
45.500         7
45.510        20
45.520        13
45.530         7
45.540         7
45.550        20
45.560        20
45.570         0
45.580        27
45.590        27
45.600         0
45.610         0
45.620        20
45.630         7
45.640         7
45.650        20
45.660        20
45.670        13
45.680        33
45.690         0
45.700        27
45.710         0
45.720         7
45.730         7
45.740         7
45.750        33
45.760        27
45.770        20
45.780        40
45.790        13
45.800         7
45.810         7
45.820         7
45.830         0
45.840         7
45.850        20
45.860        27
45.870        13
45.880        20
45.890        40
45.900        20
45.910        13
45.920        20
45.930         7
45.940         0
45.950        13
45.960         7
45.970        13
45.980        27
45.990        27
46.000         7
46.010         7
46.020        13
46.030        40
46.040        13
46.050        40
46.060        27
46.070        33
46.080        20
46.090        20
46.100        20
46.110         7
46.120        20
46.130        20
46.140        20
46.150         7
46.160        20
46.170        13
46.180        20
46.190        13
46.200         7
46.210        33
46.220        20
46.230        20
46.240        13
46.250        20
46.260        13
46.270        27
46.280         0
46.290        13
46.300        20
46.310        33
46.320        20
46.330         7
46.340        13
46.350        20
46.360        13
46.370        33
46.380        13
46.390        27
46.400         7
46.410        40
46.420        20
46.430        20
46.440         0
46.450         7
46.460        13
46.470        20
46.480        20
46.490        20
46.500        33
46.510        20
46.520        33
46.530        13
46.540         0
46.550         7
46.560        20
46.570         7
46.580        33
46.590        27
46.600        20
46.610        20
46.620         0
46.630        20
46.640        27
46.650        13
46.660        27
46.670         7
46.680        40
46.690         7
46.700         7
46.710        13
46.720        20
46.730        53
46.740        13
46.750        20
46.760        27
46.770        40
46.780         0
46.790        13
46.800        13
46.810         7
46.820        20
46.830        33
46.840         7
46.850        27
46.860        27
46.870        33
46.880        27
46.890         0
46.900        27
46.910        20
46.920        33
46.930        13
46.940        13
46.950        20
46.960        13
46.970         7
46.980        20
46.990         0
47.000        27
47.010         7
47.020        20
47.030        47
47.040        20
47.050         7
47.060        13
47.070         7
47.080        13
47.090        13
47.100         7
47.110         7
47.120         7
47.130        13
47.140         7
47.150        20
47.160        27
47.170         7
47.180         7
47.190        20
47.200        33
47.210        20
47.220        13
47.230        27
47.240        13
47.250        13
47.260         0
47.270         0
47.280         7
47.290         7
47.300        13
47.310        67
47.320         7
47.330        27
47.340        20
47.350         7
47.360         7
47.370         0
47.380        13
47.390         7
47.400        13
47.410        13
47.420         7
47.430         7
47.440         7
47.450        33
47.460        13
47.470         7
47.480         7
47.490        33
47.500        27
47.510         7
47.520        13
47.530        27
47.540        20
47.550        20
47.560         0
47.570         7
47.580         7
47.590         0
47.600         0
47.610        13
47.620        33
47.630        13
47.640         7
47.650         0
47.660         7
47.670         7
47.680        27
47.690        13
47.700         7
47.710        13
47.720        20
47.730         0
47.740         7
47.750         7
47.760        13
47.770         7
47.780        33
47.790        20
47.800        13
47.810         7
47.820         7
47.830        20
47.840        33
47.850         7
47.860        13
47.870        20
47.880        13
47.890         0
47.900        13
47.910         0
47.920        13
47.930         0
47.940        13
47.950        13
47.960         7
47.970        27
47.980        13
47.990        27
48.000        33
48.010        13
48.020         0
48.030        20
48.040         7
48.050        27
48.060        13
48.070        20
48.080        20
48.090        20
48.100        13
48.110        20
48.120        20
48.130         7
48.140        13
48.150         7
48.160        20
48.170        13
48.180        13
48.190         7
48.200        20
48.210        13
48.220        20
48.230        20
48.240         0
48.250        13
48.260        20
48.270        20
48.280        27
48.290        13
48.300        13
48.310         7
48.320        33
48.330        13
48.340         0
48.350         0
48.360        20
48.370        33
48.380        53
48.390        33
48.400         7
48.410        13
48.420        20
48.430        13
48.440         7
48.450        13
48.460        20
48.470        27
48.480         7
48.490        20
48.500        40
48.510        27
48.520        20
48.530         7
48.540        20
48.550        33
48.560        27
48.570         0
48.580         0
48.590         7
48.600         7
48.610        13
48.620         0
48.630         0
48.640        20
48.650        20
48.660        27
48.670         7
48.680        27
48.690        20
48.700        13
48.710        20
48.720         7
48.730         7
48.740         7
48.750         7
48.760        20
48.770        20
48.780         7
48.790         0
48.800         0
48.810        13
48.820        13
48.830        40
48.840        20
48.850         7
48.860        20
48.870        33
48.880         7
48.890         7
48.900        33
48.910         7
48.920        13
48.930         7
48.940         0
48.950         7
48.960        13
48.970         7
48.980         7
48.990        27
49.000        27
49.010        13
49.020         7
49.030         7
49.040         7
49.050        40
49.060        33
49.070         7
49.080         0
49.090         0
49.100        13
49.110        20
49.120         7
49.130         0
49.140        13
49.150        13
49.160         7
49.170         7
49.180        20
49.190        20
49.200        13
49.210        40
49.220        13
49.230        13
49.240        13
49.250        20
49.260         7
49.270        40
49.280         0
49.290        13
49.300        13
49.310         0
49.320         7
49.330        40
49.340        20
49.350         0
49.360         7
49.370        20
49.380        27
49.390        20
49.400        27
49.410        33
49.420        13
49.430        13
49.440         0
49.450         7
49.460         7
49.470        13
49.480         7
49.490         7
49.500        13
49.510         7
49.520        20
49.530        13
49.540        13
49.550        27
49.560        20
49.570        20
49.580         0
49.590        13
49.600        27
49.610        33
49.620         0
49.630         0
49.640        13
49.650        13
49.660         7
49.670        20
49.680        27
49.690        27
49.700         7
49.710         7
49.720         7
49.730        13
49.740        20
49.750         0
49.760        13
49.770         0
49.780        13
49.790        13
49.800         7
49.810         0
49.820         7
49.830         7
49.840        33
49.850        13
49.860        13
49.870        27
49.880         7
49.890        13
49.900        20
49.910        13
49.920        20
49.930        13
49.940         7
49.950         7
49.960         7
49.970        27
49.980         7
49.990        27
50.000         7
50.010        13
50.020        27
50.030        20
50.040         7
50.050        13
50.060        13
50.070         7
50.080        20
50.090        20
50.100         7
50.110        13
50.120        33
50.130        20
50.140         7
50.150         7
50.160         7
50.170        13
50.180        13
50.190         7
50.200        13
50.210        13
50.220        27
50.230        20
50.240        27
50.250        13
50.260        20
50.270         7
50.280        33
50.290         7
50.300         7
50.310        20
50.320         0
50.330         7
50.340        13
50.350         7
50.360        20
50.370         0
50.380         7
50.390        13
50.400         7
50.410        20
50.420        13
50.430        13
50.440         0
50.450        13
50.460        13
50.470        20
50.480         0
50.490         7
50.500        13
50.510        27
50.520        20
50.530        20
50.540         7
50.550        13
50.560        27
50.570        13
50.580         7
50.590        13
50.600         0
50.610        20
50.620         0
50.630        27
50.640        13
50.650        13
50.660        33
50.670        13
50.680         7
50.690         0
50.700        13
50.710        33
50.720         0
50.730        13
50.740         7
50.750        13
50.760        33
50.770        40
50.780        33
50.790        27
50.800        13
50.810        20
50.820         7
50.830        20
50.840        13
50.850        33
50.860         0
50.870        27
50.880        33
50.890        27
50.900         0
50.910        13
50.920        13
50.930        13
50.940         0
50.950        20
50.960         7
50.970         7
50.980        27
50.990        13
51.000        13
51.010        13
51.020         7
51.030        27
51.040         7
51.050         7
51.060        13
51.070        27
51.080         7
51.090         0
51.100        20
51.110        20
51.120        13
51.130        13
51.140        20
51.150        33
51.160         7
51.170         7
51.180         7
51.190         7
51.200        20
51.210        13
51.220        40
51.230        20
51.240         7
51.250         7
51.260        20
51.270        13
51.280        13
51.290        20
51.300        27
51.310        20
51.320         0
51.330         7
51.340        20
51.350        13
51.360        20
51.370        13
51.380        13
51.390         7
51.400        13
51.410         0
51.420        20
51.430        20
51.440        13
51.450        13
51.460        13
51.470        13
51.480        27
51.490         7
51.500        20
51.510         0
51.520         0
51.530         7
51.540        13
51.550        13
51.560        13
51.570        27
51.580        27
51.590         7
51.600         7
51.610         7
51.620         0
51.630        20
51.640        13
51.650        20
51.660        20
51.670        27
51.680        13
51.690        20
51.700        27
51.710        13
51.720        13
51.730        33
51.740         7
51.750        20
51.760         0
51.770         7
51.780        20
51.790        20
51.800         0
51.810         7
51.820         0
51.830        13
51.840        53
51.850        13
51.860        33
51.870        13
51.880         0
51.890        20
51.900        13
51.910        13
51.920        13
51.930        27
51.940        13
51.950         0
51.960        13
51.970        13
51.980        27
51.990        33
52.000        13
52.010         0
52.020         0
52.030        27
52.040        27
52.050        20
52.060         7
52.070        13
52.080         7
52.090         7
52.100        13
52.110        27
52.120         7
52.130         7
52.140        13
52.150         7
52.160         0
52.170        13
52.180        27
52.190         7
52.200        13
52.210         7
52.220        13
52.230         7
52.240         7
52.250        20
52.260        20
52.270        20
52.280        27
52.290        20
52.300        20
52.310        27
52.320         7
52.330         0
52.340        27
52.350        13
52.360        20
52.370        47
52.380        20
52.390        33
52.400        20
52.410        20
52.420         7
52.430         7
52.440         7
52.450        20
52.460        13
52.470        27
52.480        20
52.490        13
52.500        53
52.510        33
52.520        27
52.530        67
52.540        20
52.550        40
52.560        27
52.570        33
52.580        40
52.590        20
52.600        33
52.610        40
52.620         7
52.630         0
52.640         7
52.650        27
52.660        20
52.670        27
52.680        13
52.690        13
52.700        20
52.710        20
52.720        60
52.730        13
52.740         7
52.750        13
52.760        13
52.770         7
52.780         7
52.790        27
52.800        33
52.810        13
52.820        20
52.830         7
52.840         7
52.850        13
52.860        13
52.870         0
52.880         7
52.890        53
52.900        20
52.910         0
52.920        20
52.930        20
52.940         0
52.950         7
52.960        20
52.970        27
52.980        20
52.990         7
53.000         7
53.010        13
53.020         7
53.030         0
53.040        13
53.050        13
53.060        20
53.070         0
53.080        20
53.090         7
53.100        27
53.110         7
53.120         7
53.130         7
53.140        13
53.150         7
53.160        27
53.170        13
53.180         0
53.190         0
53.200        13
53.210        27
53.220         7
53.230        20
53.240        27
53.250        27
53.260         7
53.270        13
53.280         7
53.290         0
53.300         0
53.310        33
53.320        20
53.330         7
53.340        20
53.350         7
53.360        13
53.370        13
53.380        13
53.390         7
53.400         7
53.410         7
53.420        27
53.430        20
53.440        13
53.450        13
53.460        20
53.470        13
53.480         7
53.490        13
53.500        13
53.510        20
53.520         7
53.530         7
53.540         7
53.550        13
53.560        13
53.570        13
53.580         7
53.590         0
53.600        13
53.610        13
53.620        13
53.630        13
53.640        33
53.650        20
53.660         7
53.670         0
53.680        13
53.690        27
53.700        33
53.710         0
53.720        20
53.730        13
53.740         7
53.750        13
53.760        13
53.770         7
53.780        13
53.790        27
53.800         7
53.810         7
53.820        20
53.830         0
53.840        20
53.850         0
53.860        27
53.870        13
53.880        20
53.890         7
53.900         7
53.910        13
53.920         0
53.930         7
53.940         7
53.950        20
53.960        20
53.970        27
53.980         7
53.990         0
54.000         0
54.010        13
54.020        13
54.030        20
54.040        13
54.050         7
54.060         0
54.070         7
54.080         0
54.090         7
54.100        13
54.110        20
54.120         0
54.130        13
54.140         7
54.150        20
54.160         7
54.170         0
54.180         7
54.190        20
54.200        13
54.210        20
54.220         0
54.230        13
54.240        13
54.250        20
54.260        20
54.270        20
54.280        20
54.290         0
54.300        27
54.310        13
54.320         7
54.330         7
54.340        13
54.350        13
54.360        13
54.370         0
54.380        20
54.390        13
54.400         0
54.410         7
54.420        20
54.430        13
54.440         0
54.450         7
54.460         7
54.470         7
54.480        13
54.490        27
54.500         7
54.510         7
54.520        20
54.530        13
54.540         0
54.550        20
54.560         7
54.570        27
54.580         0
54.590        13
54.600        20
54.610        40
54.620         7
54.630        20
54.640        20
54.650        33
54.660         0
54.670        13
54.680         7
54.690         7
54.700        27
54.710         0
54.720        20
54.730        20
54.740         7
54.750        13
54.760         0
54.770         7
54.780         7
54.790         7
54.800        40
54.810        20
54.820         7
54.830        27
54.840        13
54.850         7
54.860        13
54.870        13
54.880        13
54.890         7
54.900        20
54.910         0
54.920         7
54.930        27
54.940         7
54.950        20
54.960         7
54.970        33
54.980        20
54.990         7
55.000        13
55.010         0
55.020         7
55.030         0
55.040        13
55.050         0
55.060        13
55.070        13
55.080        13
55.090        20
55.100        13
55.110        40
55.120         7
55.130        33
55.140         7
55.150         7
55.160        27
55.170        13
55.180        27
55.190        27
55.200        13
55.210        20
55.220        20
55.230        13
55.240         7
55.250         0
55.260        27
55.270        27
55.280        13
55.290        20
55.300        33
55.310        27
55.320        33
55.330        20
55.340        40
55.350        40
55.360        27
55.370        33
55.380        33
55.390        20
55.400        20
55.410        27
55.420        27
55.430        47
55.440        13
55.450        60
55.460        47
55.470        27
55.480        27
55.490       100
55.500        20
55.510        47
55.520        47
55.530        67
55.540        80
55.550        73
55.560        73
55.570        80
55.580        73
55.590        87
55.600        80
55.610        67
55.620       107
55.630        93
55.640        87
55.650        80
55.660        80
55.670       140
55.680       113
55.690        67
55.700       120
55.710       100
55.720       127
55.730       107
55.740       120
55.750       107
55.760       127
55.770       107
55.780       127
55.790        87
55.800        73
55.810       153
55.820       100
55.830       113
55.840        87
55.850        93
55.860        73
55.870        87
55.880        53
55.890        53
55.900        80
55.910        60
55.920        73
55.930        27
55.940        53
55.950       127
55.960        53
55.970       107
55.980        47
55.990        47
56.000        53
56.010        47
56.020        47
56.030        27
56.040         7
56.050        40
56.060        27
56.070        20
56.080        53
56.090        27
56.100        40
56.110        27
56.120        13
56.130        13
56.140         7
56.150        13
56.160         7
56.170        13
56.180        40
56.190         7
56.200         7
56.210        40
56.220         7
56.230        13
56.240        20
56.250        13
56.260         0
56.270         0
56.280        20
56.290        13
56.300        13
56.310         7
56.320         7
56.330        13
56.340         7
56.350         7
56.360         0
56.370        20
56.380        27
56.390         7
56.400        13
56.410        13
56.420        13
56.430        20
56.440        13
56.450        33
56.460         7
56.470        33
56.480         7
56.490        20
56.500        13
56.510        20
56.520        13
56.530        13
56.540        13
56.550         0
56.560        20
56.570         0
56.580         7
56.590        13
56.600         7
56.610        27
56.620        20
56.630        13
56.640         7
56.650         0
56.660        27
56.670        20
56.680         7
56.690        20
56.700         7
56.710        20
56.720        20
56.730        13
56.740        13
56.750        13
56.760         7
56.770         0
56.780         0
56.790        20
56.800         0
56.810        20
56.820         7
56.830        13
56.840         7
56.850        40
56.860         7
56.870        20
56.880        13
56.890         7
56.900        13
56.910        13
56.920         7
56.930        13
56.940        27
56.950        13
56.960        13
56.970        27
56.980         7
56.990        13
57.000        13
57.010        20
57.020         7
57.030         7
57.040         0
57.050        20
57.060        13
57.070         7
57.080         7
57.090        20
57.100        20
57.110        20
57.120        27
57.130        27
57.140         7
57.150        20
57.160        13
57.170         0
57.180        13
57.190        27
57.200        20
57.210         0
57.220        20
57.230        13
57.240        13
57.250        27
57.260        33
57.270        13
57.280        33
57.290         7
57.300        13
57.310        13
57.320        13
57.330        13
57.340        33
57.350        20
57.360        13
57.370        33
57.380        20
57.390        27
57.400        20
57.410        40
57.420        27
57.430        27
57.440        53
57.450        33
57.460        40
57.470        67
57.480       100
57.490        67
57.500       107
57.510        87
57.520       113
57.530        93
57.540        53
57.550        33
57.560        13
57.570        47
57.580        27
57.590        40
57.600        47
57.610        33
57.620        60
57.630        53
57.640        33
57.650        60
57.660        67
57.670        73
57.680        60
57.690        33
57.700        40
57.710        20
57.720        40
57.730        20
57.740        27
57.750        20
57.760        20
57.770         7
57.780         0
57.790        27
57.800        27
57.810         0
57.820        20
57.830        27
57.840        20
57.850        13
57.860        40
57.870        13
57.880        33
57.890        13
57.900        13
57.910        27
57.920        20
57.930        13
57.940        13
57.950        13
57.960        20
57.970        40
57.980         7
57.990        40
58.000         0
58.010        13
58.020         7
58.030         0
58.040        20
58.050         0
58.060        13
58.070         0
58.080         0
58.090        13
58.100        13
58.110         7
58.120        13
58.130         7
58.140         7
58.150        13
58.160        33
58.170        20
58.180        20
58.190        13
58.200        13
58.210        13
58.220        13
58.230        20
58.240        13
58.250        13
58.260        20
58.270        13
58.280        20
58.290        20
58.300         0
58.310        20
58.320         0
58.330         7
58.340        13
58.350        20
58.360         7
58.370        13
58.380        13
58.390         7
58.400        13
58.410        13
58.420        13
58.430        27
58.440        27
58.450        20
58.460        33
58.470         7
58.480        13
58.490        13
58.500        13
58.510        13
58.520         7
58.530         7
58.540        33
58.550         7
58.560         7
58.570         0
58.580        27
58.590        20
58.600         7
58.610         7
58.620        13
58.630        27
58.640        13
58.650        27
58.660         7
58.670        13
58.680        53
58.690        20
58.700         7
58.710        27
58.720         0
58.730        13
58.740        13
58.750        13
58.760        20
58.770         7
58.780         7
58.790         7
58.800         7
58.810         0
58.820         0
58.830        20
58.840        13
58.850        13
58.860         7
58.870        27
58.880        13
58.890        20
58.900         0
58.910         7
58.920        13
58.930         0
58.940         7
58.950        47
58.960         0
58.970        47
58.980         7
58.990         7
59.000        13
59.010         7
59.020        13
59.030        13
59.040         7
59.050        13
59.060         7
59.070         0
59.080        13
59.090         7
59.100        20
59.110         7
59.120         0
59.130         7
59.140        27
59.150         0
59.160         7
59.170         7
59.180        27
59.190        13
59.200        13
59.210        13
59.220         0
59.230         0
59.240        13
59.250         0
59.260         0
59.270         7
59.280         7
59.290        13
59.300         7
59.310        33
59.320         7
59.330         7
59.340         0
59.350        20
59.360        20
59.370         0
59.380         7
59.390         7
59.400        13
59.410        20
59.420        13
59.430        27
59.440         7
59.450        13
59.460         7
59.470         7
59.480        13
59.490        27
59.500        13
59.510         7
59.520        13
59.530        13
59.540         7
59.550        13
59.560         7
59.570         0
59.580         7
59.590        13
59.600         7
59.610         7
59.620         7
59.630         7
59.640        33
59.650        13
59.660         0
59.670         7
59.680        13
59.690        13
59.700        13
59.710        27
59.720        13
59.730        20
59.740         0
59.750         7
59.760        27
59.770        27
59.780        20
59.790         0
59.800         7
59.810        27
59.820         0
59.830        13
59.840         7
59.850        20
59.860        13
59.870        20
59.880         0
59.890        13
59.900        20
59.910         7
59.920        27
59.930         7
59.940        20
59.950        53
59.960         7
59.970        33
59.980         0
59.990         0
60.000         7
