20.000        60
20.010        40
20.020        33
20.030        27
20.040        40
20.050        33
20.060         7
20.070        53
20.080        40
20.090        13
20.100        67
20.110        20
20.120        47
20.130        47
20.140        40
20.150        27
20.160        47
20.170        67
20.180        60
20.190        47
20.200        27
20.210        67
20.220        20
20.230        60
20.240        40
20.250        27
20.260        27
20.270        47
20.280        60
20.290        20
20.300        53
20.310        73
20.320        53
20.330        40
20.340        33
20.350        40
20.360        40
20.370        53
20.380        80
20.390        40
20.400        33
20.410        40
20.420        53
20.430        53
20.440        67
20.450        53
20.460        53
20.470        47
20.480        20
20.490        40
20.500        53
20.510        47
20.520        47
20.530       107
20.540        60
20.550        40
20.560        47
20.570        60
20.580        53
20.590        47
20.600        33
20.610        53
20.620        53
20.630        47
20.640        47
20.650        33
20.660        80
20.670        53
20.680        40
20.690        33
20.700        33
20.710        47
20.720        47
20.730        27
20.740        40
20.750        73
20.760        47
20.770        47
20.780        33
20.790        67
20.800        33
20.810        47
20.820        60
20.830        47
20.840        33
20.850        40
20.860        53
20.870        53
20.880        60
20.890        20
20.900        13
20.910        47
20.920        53
20.930        40
20.940        33
20.950        33
20.960        13
20.970        27
20.980        47
20.990        47
21.000        20
21.010        27
21.020        47
21.030        33
21.040        80
21.050        67
21.060        47
21.070        33
21.080        47
21.090        33
21.100        47
21.110        60
21.120        33
21.130        40
21.140        67
21.150        20
21.160        53
21.170        60
21.180        53
21.190        67
21.200        47
21.210        33
21.220        40
21.230        53
21.240        53
21.250        27
21.260        47
21.270        40
21.280        33
21.290        33
21.300        27
21.310        27
21.320        67
21.330        13
21.340        47
21.350        20
21.360        40
21.370        20
21.380        47
21.390        47
21.400        40
21.410        60
21.420        13
21.430        47
21.440        20
21.450        33
21.460        20
21.470        33
21.480        40
21.490        47
21.500        27
21.510        53
21.520        53
21.530        40
21.540        27
21.550        60
21.560        13
21.570        47
21.580        33
21.590        20
21.600        33
21.610        33
21.620        40
21.630        40
21.640        47
21.650        33
21.660        33
21.670        27
21.680        53
21.690        80
21.700        13
21.710        47
21.720        40
21.730        33
21.740        27
21.750        27
21.760        40
21.770        33
21.780        40
21.790        53
21.800        20
21.810        27
21.820        13
21.830        47
21.840        40
21.850        27
21.860        27
21.870        33
21.880        53
21.890        27
21.900        33
21.910        40
21.920        40
21.930        33
21.940        47
21.950        33
21.960        20
21.970        13
21.980        13
21.990        47
22.000        53
22.010        33
22.020        47
22.030        47
22.040        33
22.050        47
22.060        27
22.070        47
22.080        27
22.090        13
22.100        27
22.110        40
22.120        40
22.130        47
22.140        47
22.150        20
22.160        33
22.170        40
22.180        47
22.190        73
22.200        53
22.210        67
22.220        40
22.230        47
22.240        40
22.250        47
22.260        33
22.270         0
22.280        53
22.290        33
22.300        20
22.310        27
22.320        13
22.330        33
22.340        40
22.350        27
22.360        40
22.370        27
22.380        40
22.390        73
22.400        27
22.410        47
22.420        53
22.430        33
22.440        27
22.450        60
22.460        20
22.470        60
22.480         7
22.490        40
22.500        47
22.510        47
22.520        80
22.530        27
22.540        40
22.550        60
22.560        27
22.570        47
22.580        73
22.590        67
22.600        47
22.610        87
22.620        87
22.630        67
22.640       120
22.650        53
22.660        60
22.670       107
22.680       113
22.690        47
22.700        87
22.710       107
22.720        87
22.730        67
22.740        93
22.750       147
22.760       107
22.770       107
22.780       133
22.790        73
22.800        80
22.810        67
22.820        80
22.830        73
22.840        67
22.850        60
22.860        33
22.870        80
22.880        40
22.890       100
22.900        33
22.910        60
22.920        47
22.930        47
22.940        80
22.950        67
22.960        33
22.970        67
22.980        33
22.990        20
23.000        40
23.010         7
23.020        40
23.030        33
23.040        20
23.050        60
23.060        47
23.070        67
23.080        20
23.090        27
23.100        67
23.110        33
23.120        73
23.130        33
23.140        27
23.150        27
23.160        33
23.170        60
23.180        27
23.190        47
23.200         7
23.210        40
23.220        33
23.230        53
23.240        27
23.250        47
23.260        60
23.270        53
23.280        33
23.290        33
23.300        47
23.310        53
23.320        27
23.330        40
23.340        20
23.350        27
23.360        27
23.370        33
23.380        40
23.390        60
23.400        47
23.410        47
23.420        33
23.430        40
23.440        47
23.450        33
23.460         7
23.470        27
23.480        27
23.490        27
23.500        47
23.510        47
23.520        47
23.530        27
23.540        47
23.550        73
23.560        40
23.570        13
23.580        33
23.590        53
23.600        33
23.610        47
23.620        33
23.630        40
23.640        53
23.650        40
23.660        13
23.670        27
23.680         7
23.690        33
23.700        47
23.710        13
23.720        47
23.730        40
23.740        33
23.750        20
23.760        27
23.770        47
23.780        13
23.790        33
23.800        80
23.810        27
23.820        47
23.830        47
23.840        40
23.850        33
23.860        40
23.870        20
23.880        33
23.890        13
23.900        27
23.910        60
23.920        40
23.930        33
23.940        13
23.950        20
23.960        27
23.970        13
23.980        53
23.990        47
24.000        20
24.010        53
24.020        20
24.030        20
24.040        47
24.050        53
24.060         7
24.070         7
24.080        27
24.090        20
24.100        47
24.110        40
24.120        47
24.130        53
24.140        33
24.150        40
24.160        53
24.170        13
24.180        87
24.190        13
24.200        40
24.210        13
24.220        27
24.230        13
24.240        20
24.250        20
24.260        20
24.270        33
24.280        20
24.290        73
24.300        13
24.310        53
24.320         0
24.330        20
24.340        33
24.350        27
24.360        33
24.370        20
24.380        27
24.390        33
24.400        53
24.410        73
24.420         7
24.430        53
24.440        20
24.450        40
24.460        27
24.470        20
24.480        40
24.490        33
24.500        40
24.510        20
24.520        60
24.530        13
24.540        73
24.550        20
24.560        20
24.570        33
24.580        13
24.590        27
24.600        20
24.610        53
24.620        40
24.630        40
24.640        53
24.650        40
24.660        53
24.670        27
24.680        53
24.690        53
24.700        47
24.710        27
24.720        27
24.730        40
24.740        33
24.750        33
24.760        47
24.770        27
24.780        27
24.790         7
24.800        33
24.810        40
24.820        40
24.830        27
24.840        20
24.850        47
24.860        27
24.870        27
24.880        47
24.890        47
24.900        67
24.910        47
24.920        33
24.930        53
24.940        40
24.950        33
24.960        27
24.970        40
24.980        27
24.990        20
25.000        20
25.010        13
25.020        33
25.030        27
25.040        27
25.050        53
25.060        33
25.070        33
25.080        27
25.090        27
25.100        27
25.110        40
25.120        40
25.130        13
25.140        13
25.150        27
25.160        33
25.170        13
25.180        40
25.190        27
25.200        33
25.210        40
25.220        60
25.230        20
25.240        40
25.250        47
25.260         7
25.270        60
25.280        27
25.290        20
25.300        53
25.310        33
25.320        13
25.330        33
25.340        33
25.350        27
25.360        20
25.370        27
25.380        33
25.390        13
25.400        20
25.410        47
25.420        20
25.430        33
25.440        40
25.450        27
25.460        33
25.470        67
25.480        20
25.490        20
25.500        33
25.510        80
25.520        27
25.530        53
25.540        53
25.550        93
25.560       120
25.570       220
25.580       333
25.590       393
25.600       347
25.610       327
25.620       233
25.630       313
25.640       260
25.650       233
25.660       133
25.670       193
25.680       193
25.690       107
25.700        80
25.710       113
25.720        80
25.730        27
25.740        20
25.750        40
25.760        60
25.770        20
25.780        53
25.790         7
25.800        40
25.810         7
25.820        60
25.830         7
25.840        40
25.850        20
25.860         7
25.870        40
25.880        27
25.890        40
25.900        67
25.910         7
25.920        53
25.930        80
25.940        20
25.950        20
25.960        47
25.970        20
25.980        33
25.990        40
26.000        13
26.010        33
26.020        27
26.030        20
26.040        27
26.050        13
26.060        27
26.070        53
26.080        33
26.090        27
26.100        27
26.110        13
26.120        33
26.130        27
26.140        33
26.150        33
26.160        13
26.170        20
26.180        47
26.190        40
26.200        33
26.210        27
26.220        20
26.230        13
26.240        53
26.250        47
26.260        27
26.270        40
26.280        33
26.290        20
26.300        27
26.310        27
26.320        33
26.330        47
26.340        27
26.350        20
26.360        53
26.370        13
26.380        33
26.390        47
26.400        27
26.410        20
26.420        13
26.430        20
26.440        20
26.450        13
26.460        40
26.470         7
26.480        27
26.490        47
26.500        27
26.510        27
26.520        33
26.530        33
26.540        33
26.550        13
26.560        20
26.570        33
26.580        27
26.590        27
26.600        33
26.610        13
26.620        80
26.630        20
26.640        40
26.650        20
26.660        40
26.670        27
26.680        27
26.690        40
26.700        20
26.710        13
26.720        27
26.730        40
26.740        33
26.750        27
26.760        13
26.770        27
26.780        20
26.790        60
26.800         7
26.810        13
26.820        20
26.830        47
26.840        13
26.850        47
26.860        27
26.870        33
26.880        27
26.890        13
26.900        13
26.910        40
26.920        27
26.930        13
26.940        53
26.950        47
26.960        53
26.970        20
26.980        33
26.990        40
27.000        13
27.010        60
27.020        40
27.030        27
27.040        47
27.050        60
27.060        20
27.070        13
27.080        53
27.090        33
27.100        27
27.110        40
27.120        20
27.130        47
27.140        53
27.150        27
27.160        20
27.170        33
27.180        20
27.190        20
27.200        20
27.210        60
27.220        20
27.230        13
27.240        13
27.250         7
27.260        47
27.270        20
27.280        33
27.290        40
27.300        53
27.310        47
27.320        20
27.330        33
27.340        20
27.350        20
27.360         7
27.370        20
27.380         7
27.390        20
27.400        40
27.410        13
27.420        33
27.430        67
27.440        33
27.450        20
27.460        20
27.470        27
27.480        33
27.490        27
27.500        13
27.510        27
27.520        47
27.530        33
27.540        40
27.550         7
27.560        20
27.570        20
27.580        27
27.590        33
27.600         7
27.610        33
27.620        13
27.630        27
27.640        13
27.650        13
27.660        13
27.670        33
27.680        40
27.690        27
27.700        40
27.710        27
27.720        20
27.730        33
27.740        40
27.750        20
27.760        13
27.770        27
27.780        13
27.790        13
27.800        27
27.810         7
27.820        13
27.830        47
27.840        27
27.850         7
27.860         7
27.870        47
27.880        27
27.890        20
27.900        40
27.910        13
27.920        13
27.930        20
27.940        27
27.950        27
27.960        27
27.970        20
27.980        13
27.990        60
28.000        20
28.010        13
28.020         7
28.030        33
28.040        27
28.050         7
28.060        47
28.070         7
28.080         7
28.090        20
28.100        20
28.110        20
28.120        20
28.130        27
28.140        27
28.150        27
28.160        20
28.170        40
28.180        40
28.190        20
28.200         7
28.210        20
28.220        27
28.230        20
28.240         7
28.250        47
28.260        20
28.270        13
28.280        20
28.290        20
28.300        33
28.310        13
28.320        13
28.330        20
28.340        20
28.350        13
28.360        27
28.370        20
28.380        13
28.390        20
28.400         7
28.410        27
28.420        40
28.430        40
28.440        33
28.450        27
28.460        33
28.470        40
28.480        27
28.490        33
28.500        20
28.510        20
28.520        33
28.530        27
28.540        47
28.550        20
28.560        40
28.570        47
28.580        20
28.590         7
28.600        33
28.610        20
28.620         7
28.630        40
28.640        47
28.650        47
28.660        27
28.670        33
28.680        13
28.690        40
28.700        27
28.710        53
28.720        47
28.730        27
28.740         0
28.750        67
28.760        33
28.770        33
28.780        40
28.790        33
28.800         7
28.810        13
28.820         7
28.830        27
28.840        13
28.850        27
28.860        40
28.870        27
28.880        27
28.890        20
28.900        40
28.910        13
28.920        20
28.930        13
28.940        13
28.950        40
28.960         0
28.970        27
28.980        53
28.990        13
29.000        33
29.010        40
29.020        40
29.030        33
29.040        47
29.050        40
29.060        47
29.070        47
29.080         7
29.090        27
29.100        33
29.110        33
29.120        33
29.130        33
29.140        40
29.150        20
29.160        33
29.170        20
29.180        20
29.190        53
29.200        27
29.210        27
29.220         0
29.230        47
29.240        20
29.250        13
29.260        20
29.270        20
29.280        13
29.290        13
29.300        33
29.310        47
29.320        27
29.330        20
29.340         7
29.350        33
29.360        33
29.370        20
29.380        20
29.390        27
29.400        40
29.410        20
29.420        13
29.430        20
29.440        27
29.450        40
29.460        20
29.470        27
29.480        13
29.490        27
29.500        40
29.510         0
29.520         7
29.530        20
29.540         7
29.550        13
29.560        60
29.570        40
29.580        33
29.590        40
29.600        20
29.610        47
29.620        20
29.630        20
29.640        33
29.650        47
29.660        33
29.670        53
29.680        13
29.690        33
29.700        13
29.710         7
29.720        27
29.730        27
29.740        33
29.750        27
29.760         7
29.770        13
29.780        20
29.790        20
29.800        33
29.810        13
29.820        40
29.830        20
29.840        53
29.850        27
29.860        13
29.870        27
29.880        27
29.890        13
29.900        33
29.910        13
29.920        20
29.930        27
29.940        27
29.950        27
29.960        13
29.970        27
29.980        27
29.990        53
30.000         7
30.010        13
30.020        20
30.030        13
30.040        33
30.050        33
30.060        13
30.070        20
30.080         7
30.090        27
30.100        20
30.110        40
30.120         0
30.130        33
30.140        40
30.150         7
30.160        20
30.170        20
30.180        27
30.190        33
30.200        13
30.210        13
30.220        20
30.230        13
30.240        27
30.250         7
30.260        27
30.270        13
30.280        13
30.290        20
30.300        33
30.310         0
30.320        13
30.330         7
30.340        27
30.350        27
30.360        27
30.370        20
30.380        20
30.390        13
30.400        20
30.410        27
30.420         7
30.430         0
30.440        27
30.450         7
30.460        33
30.470        27
30.480        27
30.490        20
30.500        20
30.510        13
30.520        20
30.530        40
30.540         7
30.550        47
30.560        20
30.570        20
30.580        27
30.590         0
30.600        27
30.610        33
30.620        27
30.630        33
30.640        33
30.650        13
30.660        47
30.670         7
30.680        13
30.690         7
30.700        13
30.710        13
30.720        27
30.730         7
30.740        53
30.750        13
30.760        13
30.770        27
30.780        33
30.790        20
30.800         0
30.810        27
30.820         0
30.830         7
30.840        27
30.850        33
30.860        13
30.870        13
30.880        27
30.890        27
30.900        13
30.910         7
30.920        33
30.930        40
30.940        40
30.950        13
30.960        27
30.970        20
30.980        13
30.990        60
31.000        13
31.010        13
31.020        27
31.030        33
31.040        13
31.050        27
31.060        27
31.070        13
31.080        13
31.090        13
31.100        60
31.110        33
31.120        47
31.130        27
31.140        27
31.150         0
31.160         7
31.170         7
31.180        13
31.190        13
31.200        27
31.210        33
31.220        20
31.230        13
31.240        40
31.250        27
31.260        33
31.270        33
31.280         7
31.290         7
31.300        27
31.310        27
31.320        47
31.330         7
31.340        13
31.350         7
31.360        13
31.370        40
31.380        20
31.390        53
31.400        40
31.410        13
31.420        33
31.430        27
31.440        40
31.450        33
31.460        47
31.470        27
31.480        27
31.490        33
31.500        33
31.510        20
31.520        20
31.530         7
31.540        13
31.550        20
31.560        47
31.570        27
31.580        47
31.590        13
31.600        20
31.610        20
31.620        40
31.630        33
31.640         7
31.650        20
31.660        13
31.670        40
31.680        20
31.690         0
31.700        20
31.710        40
31.720        33
31.730        27
31.740        27
31.750         7
31.760        13
31.770        20
31.780        47
31.790        13
31.800        27
31.810        13
31.820        20
31.830        20
31.840        20
31.850         7
31.860        27
31.870        27
31.880        27
31.890        33
31.900        27
31.910        33
31.920        40
31.930        20
31.940        13
31.950        40
31.960        33
31.970        33
31.980        33
31.990        13
32.000        20
32.010        33
32.020        40
32.030        20
32.040        53
32.050        47
32.060        53
32.070        33
32.080        20
32.090        27
32.100        40
32.110        40
32.120        53
32.130        40
32.140        60
32.150        60
32.160        73
32.170        47
32.180         7
32.190        27
32.200        40
32.210        60
32.220        60
32.230        67
32.240        93
32.250        60
32.260        73
32.270        73
32.280        93
32.290        60
32.300        67
32.310        67
32.320        53
32.330        67
32.340        67
32.350        40
32.360        87
32.370        60
32.380        47
32.390       127
32.400       100
32.410        53
32.420        87
32.430       107
32.440       107
32.450       113
32.460        67
32.470        80
32.480        87
32.490        40
32.500        53
32.510        27
32.520        67
32.530        53
32.540        80
32.550        53
32.560        47
32.570        60
32.580        27
32.590        33
32.600        47
32.610        27
32.620        33
32.630        60
32.640        40
32.650        53
32.660        47
32.670        33
32.680        40
32.690        73
32.700        27
32.710        40
32.720        27
32.730        33
32.740        40
32.750        27
32.760        40
32.770        13
32.780        27
32.790        40
32.800        33
32.810        13
32.820        53
32.830        33
32.840         0
32.850        20
32.860        27
32.870        27
32.880        20
32.890        40
32.900        13
32.910        13
32.920        27
32.930        27
32.940        33
32.950        27
32.960        40
32.970        20
32.980        27
32.990        33
33.000        40
33.010        33
33.020        27
33.030        13
33.040        27
33.050         7
33.060        20
33.070        33
33.080        40
33.090        13
33.100        20
33.110        27
33.120        27
33.130        13
33.140        20
33.150        20
33.160        20
33.170        40
33.180        20
33.190         0
33.200        27
33.210         7
33.220        27
33.230        20
33.240        20
33.250         7
33.260        13
33.270        53
33.280        20
33.290        13
33.300         0
33.310        13
33.320        40
33.330        20
33.340        13
33.350        20
33.360        20
33.370         7
33.380        13
33.390        13
33.400         0
33.410         0
33.420        20
33.430        20
33.440        33
33.450        27
33.460        33
33.470        33
33.480         7
33.490        20
33.500        33
33.510        20
33.520        13
33.530        20
33.540         7
33.550        27
33.560        40
33.570        27
33.580        47
33.590        47
33.600        33
33.610        27
33.620        13
33.630        13
33.640        33
33.650        20
33.660        13
33.670        40
33.680        40
33.690        27
33.700        27
33.710        20
33.720        27
33.730        13
33.740        13
33.750        40
33.760        20
33.770        27
33.780        13
33.790        20
33.800        20
33.810        13
33.820        33
33.830        33
33.840        40
33.850        27
33.860        33
33.870         0
33.880        13
33.890         0
33.900        20
33.910        27
33.920        47
33.930        13
33.940        27
33.950        20
33.960        40
33.970        40
33.980        13
33.990        13
34.000         7
34.010        20
34.020        40
34.030        53
34.040        20
34.050        13
34.060        13
34.070        13
34.080        20
34.090        13
34.100        13
34.110        33
34.120        40
34.130         0
34.140        20
34.150        13
34.160         7
34.170        20
34.180        27
34.190        33
34.200        27
34.210        13
34.220         7
34.230        13
34.240         7
34.250        20
34.260        47
34.270        20
34.280        20
34.290        20
34.300        27
34.310         7
34.320        40
34.330        20
34.340        27
34.350        13
34.360        40
34.370        27
34.380        13
34.390        20
34.400        20
34.410         0
34.420        13
34.430        40
34.440        27
34.450        53
34.460        33
34.470        20
34.480        13
34.490        20
34.500        13
34.510        13
34.520        13
34.530        20
34.540        20
34.550        20
34.560        13
34.570        20
34.580        27
34.590        20
34.600        13
34.610        20
34.620         0
34.630        20
34.640        13
34.650        33
34.660        33
34.670        13
34.680        27
34.690        27
34.700        40
34.710        47
34.720         7
34.730        33
34.740        47
34.750        13
34.760        27
34.770        33
34.780        27
34.790        33
34.800        20
34.810        27
34.820        27
34.830        27
34.840        40
34.850        27
34.860        13
34.870        20
34.880        40
34.890        20
34.900        20
34.910        60
34.920        33
34.930        47
34.940        80
34.950        73
34.960       127
34.970       147
34.980       200
34.990       133
35.000       193
35.010       147
35.020        93
35.030       107
35.040       127
35.050        73
35.060       120
35.070        80
35.080       120
35.090        73
35.100        80
35.110        87
35.120       107
35.130        87
35.140       180
35.150       207
35.160       187
35.170       147
35.180       153
35.190       240
35.200       107
35.210       107
35.220        53
35.230       100
35.240        80
35.250       113
35.260       100
35.270       107
35.280       147
35.290       100
35.300        40
35.310        53
35.320        33
35.330        33
35.340        13
35.350        40
35.360        13
35.370        20
35.380        53
35.390        60
35.400        20
35.410        40
35.420         7
35.430        33
35.440        20
35.450        20
35.460        20
35.470         0
35.480        20
35.490        27
35.500         7
35.510        20
35.520        13
35.530        20
35.540        47
35.550         0
35.560        27
35.570        27
35.580        20
35.590        13
35.600        13
35.610        20
35.620        20
35.630        27
35.640        13
35.650        20
35.660         7
35.670        33
35.680        20
35.690        27
35.700        33
35.710        40
35.720        13
35.730        33
35.740        20
35.750        13
35.760         0
35.770        20
35.780        47
35.790        20
35.800        27
35.810         0
35.820        20
35.830        27
35.840        27
35.850        33
35.860        53
35.870        13
35.880         7
35.890        40
35.900         7
35.910        20
35.920        47
35.930        27
35.940        27
35.950        27
35.960        20
35.970        33
35.980        33
35.990        20
36.000        20
36.010        13
36.020         7
36.030        20
36.040        20
36.050        40
36.060        27
36.070        13
36.080        27
36.090        27
36.100        27
36.110        27
36.120        13
36.130        27
36.140        33
36.150        33
36.160         7
36.170        27
36.180        33
36.190        13
36.200        13
36.210         7
36.220        27
36.230        53
36.240        20
36.250        13
36.260        13
36.270         0
36.280        13
36.290        13
36.300         0
36.310        47
36.320        33
36.330        13
36.340        27
36.350         0
36.360         7
36.370        13
36.380         0
36.390        20
36.400        20
36.410         0
36.420         0
36.430        20
36.440         7
36.450        33
36.460         7
36.470        13
36.480        33
36.490        47
36.500        20
36.510        13
36.520        27
36.530        20
36.540        33
36.550        13
36.560        40
36.570         0
36.580        33
36.590        13
36.600        20
36.610        40
36.620        27
36.630        27
36.640        20
36.650        27
36.660        13
36.670        27
36.680        40
36.690        27
36.700         7
36.710        20
36.720        20
36.730        40
36.740        27
36.750        20
36.760         0
36.770        13
36.780        13
36.790         7
36.800        40
36.810        27
36.820         0
36.830        47
36.840        20
36.850        27
36.860         7
36.870         7
36.880        27
36.890        13
36.900        13
36.910        13
36.920        33
36.930        20
36.940        27
36.950        13
36.960        40
36.970        33
36.980        40
36.990        20
37.000        27
37.010        20
37.020        20
37.030         7
37.040         0
37.050        20
37.060        20
37.070        27
37.080         7
37.090        20
37.100        40
37.110        13
37.120        27
37.130        27
37.140        13
37.150        13
37.160        20
37.170        27
37.180         0
37.190        33
37.200        40
37.210        13
37.220        20
37.230        20
37.240         0
37.250        13
37.260        40
37.270        40
37.280        27
37.290        13
37.300        33
37.310        27
37.320        13
37.330        13
37.340        20
37.350        20
37.360         0
37.370        33
37.380        13
37.390        20
37.400        60
37.410         7
37.420         0
37.430        13
37.440         0
37.450        13
37.460         0
37.470        20
37.480         0
37.490        13
37.500        20
37.510         7
37.520        20
37.530        27
37.540        13
37.550        13
37.560        20
37.570        20
37.580        20
37.590         0
37.600        33
37.610        20
37.620        20
37.630        27
37.640        27
37.650        27
37.660         0
37.670        13
37.680        27
37.690        27
37.700        20
37.710        20
37.720        33
37.730        20
37.740        33
37.750        33
37.760        27
37.770        73
37.780        40
37.790        40
37.800        33
37.810        27
37.820        27
37.830        40
37.840        47
37.850        33
37.860        33
37.870        33
37.880        33
37.890        27
37.900        33
37.910        40
37.920        33
37.930        27
37.940        20
37.950        40
37.960        27
37.970         7
37.980         0
37.990        33
38.000        20
38.010         7
38.020         0
38.030        20
38.040        13
38.050         0
38.060        13
38.070         0
38.080        13
38.090        33
38.100        27
38.110        33
38.120        13
38.130        13
38.140        13
38.150        47
38.160        13
38.170        33
38.180        27
38.190        33
38.200         0
38.210        13
38.220        20
38.230        13
38.240        27
38.250        33
38.260        13
38.270        13
38.280        13
38.290         7
38.300        27
38.310        20
38.320        33
38.330        13
38.340        20
38.350         7
38.360        33
38.370        13
38.380        13
38.390        33
38.400         7
38.410        13
38.420        13
38.430        20
38.440        13
38.450        40
38.460        20
38.470        20
38.480        20
38.490        20
38.500        20
38.510         7
38.520        33
38.530        20
38.540        20
38.550        60
38.560        27
38.570        53
38.580        13
38.590        40
38.600        13
38.610        33
38.620        13
38.630        20
38.640        27
38.650         7
38.660        27
38.670        40
38.680        27
38.690        40
38.700        27
38.710        40
38.720        20
38.730        13
38.740        27
38.750        27
38.760        27
38.770        33
38.780        13
38.790        13
38.800        13
38.810         7
38.820        20
38.830        20
38.840        13
38.850        13
38.860        27
38.870        13
38.880         7
38.890         0
38.900         0
38.910        20
38.920        20
38.930        27
38.940        20
38.950        13
38.960        33
38.970        27
38.980         7
38.990        27
39.000        47
39.010        20
39.020        13
39.030        13
39.040        20
39.050         7
39.060        20
39.070        20
39.080        27
39.090        20
39.100        20
39.110         7
39.120        20
39.130        13
39.140        33
39.150         7
39.160        13
39.170         7
39.180        27
39.190        13
39.200         7
39.210         7
39.220        13
39.230         7
39.240        47
39.250        27
39.260        33
39.270         0
39.280        27
39.290         7
39.300        73
39.310        27
39.320        13
39.330        13
39.340         7
39.350        27
39.360        13
39.370        20
39.380        13
39.390        13
39.400        40
39.410        20
39.420        27
39.430        20
39.440         0
39.450         0
39.460         7
39.470        13
39.480        13
39.490        13
39.500        20
39.510        20
39.520        47
39.530        20
39.540        13
39.550        33
39.560         7
39.570        27
39.580        33
39.590         0
39.600        20
39.610        40
39.620        27
39.630        47
39.640        27
39.650        27
39.660        27
39.670        27
39.680        40
39.690        20
39.700        47
39.710        13
39.720        13
39.730        20
39.740         7
39.750        33
39.760         7
39.770        27
39.780        53
39.790         7
39.800        33
39.810        20
39.820        40
39.830        20
39.840        40
39.850        47
39.860        40
39.870        13
39.880        33
39.890        33
39.900        27
39.910        67
39.920         7
39.930        53
39.940        67
39.950        27
39.960        53
39.970        27
39.980        73
39.990        73
40.000        53
40.010        47
40.020        47
40.030        40
40.040        13
40.050        47
40.060        20
40.070        33
40.080        33
40.090        67
40.100        53
40.110        47
40.120        13
40.130        40
40.140        33
40.150        27
40.160        33
40.170        33
40.180        40
40.190        27
40.200        33
40.210        13
40.220        27
40.230        20
40.240        20
40.250        27
40.260        20
40.270        20
40.280        33
40.290        53
40.300        40
40.310        27
40.320         7
40.330        53
40.340        27
40.350        13
40.360        53
40.370        13
40.380        33
40.390        13
40.400        33
40.410        13
40.420        13
40.430        13
40.440        40
40.450        20
40.460        40
40.470        20
40.480        13
40.490        20
40.500        27
40.510        13
40.520        20
40.530        13
40.540        13
40.550        20
40.560        33
40.570        20
40.580        40
40.590        20
40.600        20
40.610        20
40.620        20
40.630        13
40.640         7
40.650        27
40.660        40
40.670        20
40.680         7
40.690        20
40.700        20
40.710        20
40.720        20
40.730        20
40.740        20
40.750        20
40.760         0
40.770        13
40.780        20
40.790        33
40.800        20
40.810        27
40.820         7
40.830        13
40.840        40
40.850         0
40.860        20
40.870        40
40.880         7
40.890        33
40.900        20
40.910        20
40.920        13
40.930         7
40.940        47
40.950        13
40.960         7
40.970         7
40.980        13
40.990        20
41.000        27
41.010        33
41.020        13
41.030        40
41.040        40
41.050        20
41.060         7
41.070         0
41.080        20
41.090         7
41.100        47
41.110        13
41.120        40
41.130         0
41.140        27
41.150         7
41.160        20
41.170        20
41.180        27
41.190         7
41.200         0
41.210         7
41.220        27
41.230        20
41.240        20
41.250        47
41.260        20
41.270         0
41.280        47
41.290         7
41.300        40
41.310        47
41.320        27
41.330        47
41.340         7
41.350        20
41.360        40
41.370        13
41.380        13
41.390        33
41.400        20
41.410        20
41.420        20
41.430        13
41.440        40
41.450        47
41.460        40
41.470        40
41.480        40
41.490        33
41.500        53
41.510        33
41.520        53
41.530        53
41.540        47
41.550        40
41.560        47
41.570        73
41.580       120
41.590        67
41.600        60
41.610       100
41.620       100
41.630       100
41.640       133
41.650       240
41.660       173
41.670       407
41.680       426
41.690       327
41.700       373
41.710       426
41.720       327
41.730       287
41.740       213
41.750       227
41.760       213
41.770       140
41.780       187
41.790       247
41.800       240
41.810       187
41.820       253
41.830       200
41.840       133
41.850       120
41.860       120
41.870        60
41.880        47
41.890        60
41.900        53
41.910        27
41.920        20
41.930        27
41.940        33
41.950        40
41.960        20
41.970         7
41.980        40
41.990        40
42.000        27
42.010        40
42.020        27
42.030        20
42.040        13
42.050        13
42.060        33
42.070        60
42.080        13
42.090        20
42.100         0
42.110        20
42.120        27
42.130        33
42.140        20
42.150        13
42.160        20
42.170        33
42.180        27
42.190        13
42.200        27
42.210        33
42.220        20
42.230        13
42.240        13
42.250        20
42.260        13
42.270        60
42.280         0
42.290         7
42.300        13
42.310        27
42.320        33
42.330        40
42.340        13
42.350        20
42.360         7
42.370        20
42.380        40
42.390        27
42.400        20
42.410        40
42.420         0
42.430        20
42.440        13
42.450        13
42.460        20
42.470        20
42.480         7
42.490        13
42.500        20
42.510        33
42.520         7
42.530        20
42.540        20
42.550        13
42.560        27
42.570        13
42.580         7
42.590        27
42.600        27
42.610        33
42.620        13
42.630        13
42.640         0
42.650        33
42.660        20
42.670        27
42.680        33
42.690         7
42.700        27
42.710        33
42.720        27
42.730        47
42.740        53
42.750        33
42.760        13
42.770         0
42.780         7
42.790        20
42.800        20
42.810        13
42.820        13
42.830        13
42.840        27
42.850        40
42.860        47
42.870         7
42.880        33
42.890        20
42.900        20
42.910        13
42.920        20
42.930        33
42.940        27
42.950        33
42.960        40
42.970        47
42.980        33
42.990        20
43.000        20
43.010        40
43.020        40
43.030         7
43.040        13
43.050        47
43.060        20
43.070        27
43.080        13
43.090        33
43.100        13
43.110        27
43.120        20
43.130        20
43.140        13
43.150         7
43.160        33
43.170        40
43.180        20
43.190        20
43.200        20
43.210        20
43.220        27
43.230        40
43.240        27
43.250        20
43.260         0
43.270        13
43.280        33
43.290        33
43.300        13
43.310        33
43.320        60
43.330       100
43.340        80
43.350       140
43.360       120
43.370       113
43.380       133
43.390       167
43.400       133
43.410       127
43.420       100
43.430        67
43.440        47
43.450        53
43.460        93
43.470        80
43.480       127
43.490       120
43.500        53
43.510        87
43.520        67
43.530        67
43.540       100
43.550        40
43.560        53
43.570        33
43.580        27
43.590        13
43.600        47
43.610        40
43.620        33
43.630        27
43.640        53
43.650        33
43.660        53
43.670        20
43.680        40
43.690        20
43.700        33
43.710        27
43.720        40
43.730        27
43.740         7
43.750         7
43.760        40
43.770        33
43.780         0
43.790         7
43.800        20
43.810        33
43.820        13
43.830        13
43.840        20
43.850        33
43.860         7
43.870        27
43.880        27
43.890        47
43.900        13
43.910         7
43.920        27
43.930        20
43.940        20
43.950        27
43.960        13
43.970        27
43.980         7
43.990        20
44.000        20
44.010        27
44.020        13
44.030        13
44.040         7
44.050        33
44.060        27
44.070        20
44.080        33
44.090        20
44.100        13
44.110        47
44.120        13
44.130         7
44.140        33
44.150        60
44.160         0
44.170        20
44.180        20
44.190         0
44.200        33
44.210        27
44.220        20
44.230        33
44.240        20
44.250        47
44.260        13
44.270        33
44.280        40
44.290        40
44.300        47
44.310        27
44.320         7
44.330        27
44.340        33
44.350        20
44.360        13
44.370        13
44.380        13
44.390         7
44.400        20
44.410        60
44.420        27
44.430        27
44.440        27
44.450        27
44.460        20
44.470        13
44.480        40
44.490        13
44.500        27
44.510         7
44.520        20
44.530        27
44.540         0
44.550         7
44.560        33
44.570        13
44.580        47
44.590        33
44.600        27
44.610        80
44.620         7
44.630        33
44.640        20
44.650        13
44.660        40
44.670        20
44.680        33
44.690        20
44.700         0
44.710         7
44.720        20
44.730        27
44.740        33
44.750        13
44.760        20
44.770        13
44.780        20
44.790         7
44.800        33
44.810        27
44.820        53
44.830        13
44.840        33
44.850        47
44.860        20
44.870        13
44.880        40
44.890        33
44.900        47
44.910        53
44.920        27
44.930        27
44.940        33
44.950        53
44.960        47
44.970        47
44.980        20
44.990        87
45.000        27
45.010        27
45.020        27
45.030        27
45.040        20
45.050        33
45.060        47
45.070        40
45.080        27
45.090        33
45.100        27
45.110        47
45.120        27
45.130        40
45.140        40
45.150        53
45.160        27
45.170        13
45.180        27
45.190        27
45.200        27
45.210        13
45.220        27
45.230        20
45.240        27
45.250        20
45.260        27
45.270        47
45.280        53
45.290        33
45.300        47
45.310        40
45.320        40
45.330        20
45.340        47
45.350         7
45.360        47
45.370        33
45.380        20
45.390        60
45.400        13
45.410        27
45.420        40
45.430        53
45.440        27
45.450        47
45.460        53
45.470        47
45.480        20
45.490        27
45.500        13
45.510        40
45.520        40
45.530        47
45.540        60
45.550        20
45.560        67
45.570        27
45.580        47
45.590        67
45.600        47
45.610        53
45.620        73
45.630        53
45.640        20
45.650        53
45.660        60
45.670        60
45.680        40
45.690        40
45.700        27
45.710        47
45.720        20
45.730       133
45.740        73
45.750        60
45.760       107
45.770        73
45.780        67
45.790        47
45.800        73
45.810       100
45.820        73
45.830        87
45.840        73
45.850       127
45.860        73
45.870       127
45.880       127
45.890       113
45.900       140
45.910       127
45.920       127
45.930       127
45.940       140
45.950       227
45.960       187
45.970       180
45.980       167
45.990       167
46.000       193
46.010       167
46.020       167
46.030       133
46.040       220
46.050       213
46.060       233
46.070       340
46.080       187
46.090       320
46.100       313
46.110       280
46.120       353
46.130       373
46.140       347
46.150       407
46.160       393
46.170       233
46.180       426
46.190       380
46.200       373
46.210       440
46.220       333
46.230       453
46.240       453
46.250       560
46.260       533
46.270       486
46.280       546
46.290       506
46.300       453
46.310       473
46.320       606
46.330       646
46.340       533
46.350       620
46.360       700
46.370       553
46.380       500
46.390       566
46.400       620
46.410       706
46.420       606
46.430       606
46.440       613
46.450       573
46.460       526
46.470       546
46.480       573
46.490       526
46.500       606
46.510       540
46.520       660
46.530       480
46.540       540
46.550       506
46.560       486
46.570       473
46.580       446
46.590       407
46.600       413
46.610       387
46.620       280
46.630       333
46.640       373
46.650       287
46.660       293
46.670       407
46.680       253
46.690       300
46.700       240
46.710       313
46.720       207
46.730       213
46.740       220
46.750       227
46.760       173
46.770       240
46.780       187
46.790       180
46.800       133
46.810       180
46.820       167
46.830       187
46.840       107
46.850       153
46.860       153
46.870       120
46.880       120
46.890       147
46.900        87
46.910        87
46.920       127
46.930        67
46.940        87
46.950        87
46.960        93
46.970        93
46.980        60
46.990        67
47.000        67
47.010        73
47.020        80
47.030        80
47.040       100
47.050        73
47.060        40
47.070        60
47.080        40
47.090        47
47.100        27
47.110        60
47.120        53
47.130        60
47.140        67
47.150        47
47.160        33
47.170        47
47.180        73
47.190        80
47.200        33
47.210        73
47.220        47
47.230        47
47.240        47
47.250        60
47.260        60
47.270        47
47.280        13
47.290        53
47.300        40
47.310        40
47.320        27
47.330        27
47.340        13
47.350        40
47.360        33
47.370        47
47.380        47
47.390        27
47.400        13
47.410        47
47.420        20
47.430        20
47.440        33
47.450        13
47.460        40
47.470        13
47.480        27
47.490        40
47.500        47
47.510        20
47.520        33
47.530         7
47.540        27
47.550        40
47.560        13
47.570        27
47.580        20
47.590         7
47.600        40
47.610        33
47.620        47
47.630        60
47.640        33
47.650        20
47.660        27
47.670         7
47.680        40
47.690        20
47.700        33
47.710        33
47.720        20
47.730        40
47.740        20
47.750        47
47.760        27
47.770        33
47.780        13
47.790         7
47.800         7
47.810        20
47.820        13
47.830         7
47.840        33
47.850        13
47.860        33
47.870        27
47.880        47
47.890        13
47.900        27
47.910        27
47.920         7
47.930        20
47.940        27
47.950        20
47.960        33
47.970        27
47.980        13
47.990        33
48.000        20
48.010        13
48.020        20
48.030         7
48.040         7
48.050        20
48.060        20
48.070        20
48.080        20
48.090        27
48.100        13
48.110        13
48.120        27
48.130         7
48.140        13
48.150         7
48.160         7
48.170        27
48.180        20
48.190        27
48.200        20
48.210        20
48.220        20
48.230        40
48.240        20
48.250        20
48.260         7
48.270        33
48.280        20
48.290        40
48.300        27
48.310        33
48.320        20
48.330        20
48.340         7
48.350        13
48.360         7
48.370        13
48.380        13
48.390        33
48.400        40
48.410        20
48.420         7
48.430        27
48.440         7
48.450        27
48.460        33
48.470        33
48.480        33
48.490        40
48.500        13
48.510        40
48.520        33
48.530        13
48.540        33
48.550        13
48.560        47
48.570        40
48.580        20
48.590         7
48.600        40
48.610        27
48.620        33
48.630        33
48.640         7
48.650         7
48.660        27
48.670        13
48.680        13
48.690        20
48.700        20
48.710        13
48.720        27
48.730        20
48.740         7
48.750        40
48.760        20
48.770        13
48.780        27
48.790        20
48.800        27
48.810        27
48.820        40
48.830        20
48.840        27
48.850        20
48.860         7
48.870         7
48.880        27
48.890         7
48.900        47
48.910        27
48.920        47
48.930         0
48.940         7
48.950         7
48.960        13
48.970        27
48.980        27
48.990        13
49.000        20
49.010        13
49.020        13
49.030        27
49.040        13
49.050        13
49.060         0
49.070        27
49.080        27
49.090        27
49.100        13
49.110        47
49.120        27
49.130        27
49.140        27
49.150        20
49.160        20
49.170        13
49.180        20
49.190        13
49.200        47
49.210        13
49.220        13
49.230        20
49.240        40
49.250        40
49.260         7
49.270        27
49.280        27
49.290        27
49.300        13
49.310        13
49.320        20
49.330        27
49.340        13
49.350        13
49.360         0
49.370        20
49.380        20
49.390        13
49.400        20
49.410        20
49.420         7
49.430        33
49.440        33
49.450        47
49.460        20
49.470        33
49.480         7
49.490        33
49.500        13
49.510         7
49.520        33
49.530        13
49.540        40
49.550        13
49.560        20
49.570        13
49.580        33
49.590        13
49.600        33
49.610        27
49.620        13
49.630         0
49.640         7
49.650        20
49.660        20
49.670        13
49.680        13
49.690        20
49.700        13
49.710        13
49.720        20
49.730         7
49.740        27
49.750        20
49.760         0
49.770        33
49.780        27
49.790        13
49.800        27
49.810        27
49.820         7
49.830        33
49.840        27
49.850         0
49.860        20
49.870        13
49.880        20
49.890        20
49.900        53
49.910        13
49.920        20
49.930        40
49.940        27
49.950         7
49.960        40
49.970        13
49.980         7
49.990        27
50.000        33
50.010        33
50.020        20
50.030        13
50.040        13
50.050        13
50.060        33
50.070        13
50.080        33
50.090        13
50.100         0
50.110        13
50.120        20
50.130        13
50.140        20
50.150        20
50.160        40
50.170        33
50.180        33
50.190        20
50.200        13
50.210        13
50.220        20
50.230        47
50.240        27
50.250        33
50.260         7
50.270        13
50.280         0
50.290        67
50.300        13
50.310        27
50.320        27
50.330        20
50.340        20
50.350         7
50.360        20
50.370        33
50.380        13
50.390        13
50.400        13
50.410        20
50.420        13
50.430        13
50.440        33
50.450         7
50.460        33
50.470         7
50.480        20
50.490        27
50.500        27
50.510         7
50.520         7
50.530        20
50.540        20
50.550         7
50.560         7
50.570        53
50.580        20
50.590        20
50.600        27
50.610        20
50.620        33
50.630        20
50.640        33
50.650        13
50.660         0
50.670         7
50.680        27
50.690        27
50.700        13
50.710        13
50.720        20
50.730         0
50.740        33
50.750        20
50.760         0
50.770        27
50.780        33
50.790        13
50.800         0
50.810         0
50.820        33
50.830        33
50.840         0
50.850        33
50.860        27
50.870         7
50.880        13
50.890        20
50.900        27
50.910         7
50.920        27
50.930        13
50.940        40
50.950        20
50.960        27
50.970        13
50.980        33
50.990        27
51.000         7
51.010        13
51.020        27
51.030        13
51.040         7
51.050         7
51.060         0
51.070        53
51.080        13
51.090         7
51.100        33
51.110        13
51.120        27
51.130         7
51.140        13
51.150        27
51.160        20
51.170        13
51.180        13
51.190        13
51.200        40
51.210         0
51.220         0
51.230        13
51.240         7
51.250        27
51.260        13
51.270        27
51.280        13
51.290        13
51.300        27
51.310        20
51.320         7
51.330        40
51.340        13
51.350        20
51.360        13
51.370        13
51.380        13
51.390        20
51.400         7
51.410         7
51.420        40
51.430         7
51.440        20
51.450         7
51.460        20
51.470        20
51.480        20
51.490        20
51.500         7
51.510        27
51.520        40
51.530         7
51.540        27
51.550        20
51.560         7
51.570         7
51.580        47
51.590        13
51.600         7
51.610        20
51.620        27
51.630        13
51.640        27
51.650        53
51.660         7
51.670        27
51.680        20
51.690        20
51.700        20
51.710        13
51.720        47
51.730        27
51.740        20
51.750        13
51.760        13
51.770         7
51.780        20
51.790         7
51.800        13
51.810         7
51.820        20
51.830        13
51.840        33
51.850        13
51.860        13
51.870         7
51.880        20
51.890        13
51.900        13
51.910         7
51.920        67
51.930        20
51.940        20
51.950         0
51.960         7
51.970        27
51.980        13
51.990        13
52.000        33
52.010        13
52.020        27
52.030        20
52.040        13
52.050        20
52.060        40
52.070        27
52.080        27
52.090         7
52.100         0
52.110        13
52.120         7
52.130         7
52.140        40
52.150        13
52.160        33
52.170        13
52.180        27
52.190        13
52.200        20
52.210        27
52.220         7
52.230        27
52.240        40
52.250        27
52.260        27
52.270        40
52.280        20
52.290        20
52.300         7
52.310        27
52.320        27
52.330         0
52.340        33
52.350        33
52.360        27
52.370        27
52.380        13
52.390        27
52.400        53
52.410        33
52.420        40
52.430        27
52.440        20
52.450        20
52.460        27
52.470        27
52.480        40
52.490        27
52.500        53
52.510        93
52.520        73
52.530        60
52.540        87
52.550       187
52.560       187
52.570       300
52.580       327
52.590       493
52.600       433
52.610       493
52.620       500
52.630       333
52.640       327
52.650       173
52.660       187
52.670        60
52.680       100
52.690        60
52.700        87
52.710       147
52.720       153
52.730       173
52.740       167
52.750       313
52.760       247
52.770       213
52.780       173
52.790       107
52.800        73
52.810        60
52.820        53
52.830        40
52.840        40
52.850        13
52.860        20
52.870        20
52.880        20
52.890        20
52.900        20
52.910        13
52.920        13
52.930        20
52.940         7
52.950        33
52.960        13
52.970        33
52.980        20
52.990        13
53.000        13
53.010        20
53.020        20
53.030        20
53.040        27
53.050         0
53.060        27
53.070        20
53.080        20
53.090         0
53.100        20
53.110        33
53.120         7
53.130         7
53.140        13
53.150        20
53.160         0
53.170        20
53.180        13
53.190        13
53.200        20
53.210        33
53.220         7
53.230        20
53.240        20
53.250         0
53.260         7
53.270        13
53.280         7
53.290        20
53.300        27
53.310        13
53.320         0
53.330         7
53.340        27
53.350        13
53.360         0
53.370        27
53.380        13
53.390        13
53.400        13
53.410         0
53.420        20
53.430         7
53.440        20
53.450        47
53.460        13
53.470         7
53.480        13
53.490        20
53.500        27
53.510         7
53.520        20
53.530        13
53.540        40
53.550        27
53.560         0
53.570         0
53.580        20
53.590         7
53.600        20
53.610         0
53.620        13
53.630        33
53.640        33
53.650         0
53.660        20
53.670         7
53.680        13
53.690        13
53.700        53
53.710         0
53.720        13
53.730        13
53.740        13
53.750         7
53.760        13
53.770        13
53.780        20
53.790        27
53.800        20
53.810        13
53.820        27
53.830        33
53.840        13
53.850        20
53.860        20
53.870        20
53.880        13
53.890        27
53.900         7
53.910        13
53.920        13
53.930        27
53.940        20
53.950        13
53.960         7
53.970         7
53.980        27
53.990        20
54.000         0
54.010         7
54.020        27
54.030        27
54.040         7
54.050         7
54.060        27
54.070        13
54.080         0
54.090        33
54.100         7
54.110        40
54.120        13
54.130        20
54.140        13
54.150        13
54.160        20
54.170        13
54.180         7
54.190        40
54.200        13
54.210        13
54.220        13
54.230        27
54.240        13
54.250         7
54.260         0
54.270         7
54.280         0
54.290        20
54.300        27
54.310        40
54.320        27
54.330        13
54.340        20
54.350         7
54.360         7
54.370         7
54.380        33
54.390        20
54.400        20
54.410        27
54.420        13
54.430        20
54.440         7
54.450        20
54.460        27
54.470        20
54.480         0
54.490        33
54.500        13
54.510        13
54.520        20
54.530        33
54.540        20
54.550         7
54.560         7
54.570         0
54.580        20
54.590        13
54.600        27
54.610        20
54.620        13
54.630        20
54.640         0
54.650        20
54.660        13
54.670        20
54.680         7
54.690        13
54.700         7
54.710        13
54.720        20
54.730         7
54.740        20
54.750        13
54.760        27
54.770         0
54.780        20
54.790        20
54.800        13
54.810        20
54.820        33
54.830         0
54.840        20
54.850        27
54.860        20
54.870         7
54.880         7
54.890        20
54.900         0
54.910        13
54.920        33
54.930        20
54.940        33
54.950        27
54.960        60
54.970        13
54.980        13
54.990        47
55.000        20
55.010        20
55.020         0
55.030        13
55.040         0
55.050        20
55.060        13
55.070        20
55.080        27
55.090        20
55.100         7
55.110        27
55.120         7
55.130        13
55.140        27
55.150        13
55.160         0
55.170         7
55.180        13
55.190         7
55.200        40
55.210        27
55.220        20
55.230        13
55.240         0
55.250        33
55.260        13
55.270        13
55.280        13
55.290        20
55.300         7
55.310        40
55.320         7
55.330         0
55.340        27
55.350        13
55.360        20
55.370         0
55.380        20
55.390         7
55.400        33
55.410        20
55.420        20
55.430         0
55.440        20
55.450        13
55.460         7
55.470        20
55.480        33
55.490        13
55.500         7
55.510        27
55.520         7
55.530         7
55.540        27
55.550        20
55.560        13
55.570        33
55.580         0
55.590        13
55.600         0
55.610        13
55.620        20
55.630        13
55.640         0
55.650        13
55.660        27
55.670        27
55.680        20
55.690         7
55.700        33
55.710        27
55.720        20
55.730        20
55.740         7
55.750        27
55.760        20
55.770        13
55.780         7
55.790         7
55.800        20
55.810         7
55.820        20
55.830         7
55.840        20
55.850        27
55.860        13
55.870        27
55.880         7
55.890        20
55.900        13
55.910         7
55.920        27
55.930        13
55.940        13
55.950        13
55.960        33
55.970        20
55.980        33
55.990        13
56.000        13
56.010        13
56.020        27
56.030        13
56.040        27
56.050        13
56.060        27
56.070        20
56.080         7
56.090        20
56.100        27
56.110         0
56.120         7
56.130         7
56.140        13
56.150         7
56.160        20
56.170        27
56.180         7
56.190        13
56.200        13
56.210        20
56.220        33
56.230        13
56.240        20
56.250        20
56.260        27
56.270         0
56.280        20
56.290         0
56.300         7
56.310         0
56.320        27
56.330         7
56.340        20
56.350        20
56.360         0
56.370        13
56.380        40
56.390         0
56.400        20
56.410        40
56.420         0
56.430        20
56.440        27
56.450        13
56.460        27
56.470         7
56.480         7
56.490        40
56.500        20
56.510        20
56.520        27
56.530        13
56.540        27
56.550        13
56.560         7
56.570         7
56.580         7
56.590        13
56.600        13
56.610        20
56.620        13
56.630        13
56.640         0
56.650        33
56.660         7
56.670         7
56.680         7
56.690        20
56.700        13
56.710         7
56.720         0
56.730        13
56.740         7
56.750        40
56.760        13
56.770        13
56.780         7
56.790         0
56.800         7
56.810        20
56.820        20
56.830         7
56.840         7
56.850         0
56.860        27
56.870        13
56.880        27
56.890         0
56.900         7
56.910        20
56.920        13
56.930        20
56.940        20
56.950        13
56.960        20
56.970         0
56.980         7
56.990        40
57.000         7
57.010        20
57.020         0
57.030         7
57.040        27
57.050        33
57.060        33
57.070         0
57.080        13
57.090        20
57.100        13
57.110        53
57.120        40
57.130        20
57.140        13
57.150        27
57.160         7
57.170        40
57.180        27
57.190        20
57.200         0
57.210        47
57.220        47
57.230         0
57.240        20
57.250        20
57.260         7
57.270        27
57.280        27
57.290         7
57.300        27
57.310        33
57.320        20
57.330        13
57.340        27
57.350        47
57.360        27
57.370        33
57.380        40
57.390        27
57.400        40
57.410        40
57.420        53
57.430        40
57.440        60
57.450        73
57.460        93
57.470        93
57.480       133
57.490       173
57.500       273
57.510       333
57.520       287
57.530       233
57.540       293
57.550       280
57.560       233
57.570       180
57.580       153
57.590       133
57.600        80
57.610        67
57.620        87
57.630        47
57.640       113
57.650        87
57.660       187
57.670       153
57.680       173
57.690       153
57.700       127
57.710       187
57.720       120
57.730       107
57.740        73
57.750        60
57.760        53
57.770        27
57.780        60
57.790        33
57.800        40
57.810        20
57.820        33
57.830        13
57.840        20
57.850        33
57.860        13
57.870        27
57.880        40
57.890        33
57.900        60
57.910         7
57.920        20
57.930        40
57.940        33
57.950        40
57.960         7
57.970        13
57.980         0
57.990        27
58.000        13
58.010        40
58.020        20
58.030        20
58.040        27
58.050        27
58.060        33
58.070        13
58.080        33
58.090        13
58.100         7
58.110        20
58.120        13
58.130        13
58.140         7
58.150         7
58.160        20
58.170        13
58.180         7
58.190        13
58.200        13
58.210        13
58.220        33
58.230         7
58.240        20
58.250        27
58.260        13
58.270        27
58.280         7
58.290        20
58.300        13
58.310        20
58.320        33
58.330        13
58.340        13
58.350        40
58.360         0
58.370        20
58.380        27
58.390         7
58.400        20
58.410        20
58.420        33
58.430        20
58.440         7
58.450        13
58.460         7
58.470         7
58.480        40
58.490        13
58.500         0
58.510        27
58.520        27
58.530        20
58.540        20
58.550         0
58.560        20
58.570         7
58.580         7
58.590         0
58.600        27
58.610        33
58.620         7
58.630        27
58.640        20
58.650        13
58.660         0
58.670        20
58.680         7
58.690        13
58.700         0
58.710        40
58.720        27
58.730        27
58.740        27
58.750        13
58.760         7
58.770         7
58.780         7
58.790        13
58.800        20
58.810         7
58.820        13
58.830         0
58.840         0
58.850         0
58.860         7
58.870         7
58.880        13
58.890         7
58.900        13
58.910        20
58.920         0
58.930         7
58.940        33
58.950        20
58.960        20
58.970        13
58.980        27
58.990        33
59.000         7
59.010         0
59.020         0
59.030        13
59.040        20
59.050        13
59.060         7
59.070        13
59.080        13
59.090         0
59.100        40
59.110        40
59.120        20
59.130        27
59.140        20
59.150         7
59.160        20
59.170        13
59.180         7
59.190        20
59.200        20
59.210         7
59.220        13
59.230         7
59.240         7
59.250         7
59.260         7
59.270        13
59.280        27
59.290        20
59.300        20
59.310        13
59.320        13
59.330        27
59.340         0
59.350        20
59.360        20
59.370         7
59.380        13
59.390         0
59.400        13
59.410         7
59.420        13
59.430        13
59.440         7
59.450         0
59.460        13
59.470        13
59.480         0
59.490        13
59.500         0
59.510         7
59.520        20
59.530        27
59.540        20
59.550        13
59.560        27
59.570        27
59.580        20
59.590        33
59.600         7
59.610        20
59.620        13
59.630        40
59.640        20
59.650        13
59.660        13
59.670        27
59.680        33
59.690        27
59.700        47
59.710         7
59.720        13
59.730        20
59.740        33
59.750        20
59.760        20
59.770        27
59.780        27
59.790         0
59.800        13
59.810        20
59.820        27
59.830        20
59.840        27
59.850         0
59.860        27
59.870        27
59.880        33
59.890        20
59.900        20
59.910         7
59.920         7
59.930        20
59.940         0
59.950        13
59.960         7
59.970        27
59.980        20
59.990         0
60.000         0
