20.000        60
20.010        60
20.020       100
20.030        60
20.040       107
20.050        67
20.060       100
20.070       100
20.080        93
20.090       100
20.100        73
20.110        93
20.120        67
20.130       100
20.140       133
20.150        67
20.160        47
20.170        93
20.180       120
20.190       147
20.200        87
20.210        93
20.220        40
20.230       107
20.240        87
20.250       107
20.260        67
20.270        47
20.280        80
20.290        53
20.300        67
20.310        93
20.320        67
20.330        33
20.340        87
20.350       100
20.360        67
20.370       120
20.380       113
20.390       100
20.400       113
20.410        67
20.420        67
20.430        67
20.440        67
20.450        60
20.460        93
20.470        53
20.480        73
20.490        93
20.500        60
20.510        87
20.520        80
20.530        73
20.540        93
20.550        87
20.560        93
20.570       113
20.580        40
20.590        87
20.600        60
20.610        47
20.620        73
20.630        60
20.640        93
20.650        73
20.660        80
20.670        73
20.680        80
20.690        73
20.700        93
20.710        40
20.720        73
20.730        73
20.740        60
20.750        60
20.760        47
20.770        67
20.780        87
20.790        73
20.800        73
20.810        93
20.820        67
20.830       147
20.840        53
20.850        93
20.860        47
20.870        67
20.880        87
20.890        73
20.900        33
20.910        60
20.920       107
20.930        60
20.940        53
20.950        73
20.960        47
20.970        93
20.980        33
20.990        93
21.000        60
21.010        73
21.020        87
21.030        73
21.040       107
21.050        67
21.060        67
21.070       107
21.080        47
21.090        87
21.100        60
21.110        87
21.120        80
21.130        93
21.140        53
21.150        67
21.160        87
21.170        20
21.180        87
21.190       107
21.200        80
21.210        93
21.220       107
21.230        60
21.240        87
21.250        53
21.260        47
21.270        60
21.280        87
21.290        47
21.300        67
21.310        47
21.320        73
21.330        73
21.340        80
21.350        67
21.360        87
21.370        87
21.380        93
21.390        93
21.400        67
21.410        87
21.420        73
21.430        33
21.440        80
21.450        73
21.460        40
21.470        80
21.480        87
21.490        53
21.500        87
21.510        40
21.520       107
21.530        40
21.540        47
21.550        80
21.560       107
21.570        60
21.580        73
21.590        33
21.600       107
21.610        87
21.620        80
21.630        93
21.640        87
21.650        47
21.660        33
21.670        80
21.680        53
21.690       160
21.700        73
21.710       120
21.720        53
21.730       127
21.740       107
21.750        60
21.760        87
21.770       100
21.780        67
21.790        27
21.800        60
21.810        80
21.820        73
21.830        53
21.840       140
21.850        60
21.860        87
21.870        93
21.880        87
21.890        67
21.900        87
21.910        67
21.920        80
21.930        73
21.940        60
21.950       127
21.960       113
21.970        33
21.980        67
21.990        87
22.000        73
22.010        87
22.020       113
22.030        87
22.040        87
22.050       140
22.060        87
22.070       113
22.080       100
22.090        87
22.100        87
22.110       140
22.120        53
22.130        47
22.140        60
22.150        80
22.160        53
22.170        93
22.180        67
22.190        60
22.200        80
22.210        47
22.220        93
22.230        93
22.240        93
22.250       100
22.260        67
22.270        67
22.280       107
22.290        93
22.300        67
22.310       100
22.320       127
22.330       100
22.340       120
22.350       120
22.360       120
22.370        93
22.380        60
22.390       127
22.400       100
22.410       100
22.420       113
22.430       153
22.440       180
22.450       120
22.460       153
22.470        87
22.480       153
22.490       127
22.500       160
22.510       120
22.520       180
22.530       113
22.540       213
22.550       173
22.560       140
22.570       180
22.580       133
22.590       147
22.600       213
22.610       180
22.620       227
22.630       153
22.640       160
22.650       220
22.660       207
22.670       167
22.680       227
22.690       193
22.700       253
22.710       287
22.720       227
22.730       220
22.740       187
22.750       180
22.760       140
22.770       173
22.780       187
22.790       173
22.800       200
22.810       120
22.820       213
22.830       160
22.840       147
22.850       167
22.860       180
22.870       160
22.880       147
22.890       173
22.900       173
22.910        60
22.920       160
22.930       207
22.940       160
22.950       200
22.960       220
22.970       207
22.980       193
22.990       173
23.000       173
23.010       120
23.020       133
23.030       180
23.040       167
23.050       133
23.060       253
23.070       380
23.080       506
23.090       740
23.100       886
23.110      1086
23.120      1120
23.130      1233
23.140      1113
23.150       973
23.160       860
23.170       433
23.180       227
23.190       253
23.200       227
23.210       140
23.220       220
23.230       387
23.240       193
23.250       200
23.260       140
23.270       173
23.280       207
23.290       153
23.300       173
23.310       120
23.320       167
23.330       127
23.340       153
23.350       140
23.360       120
23.370        73
23.380       133
23.390       133
23.400       147
23.410       200
23.420       120
23.430       140
23.440        80
23.450       127
23.460        87
23.470       147
23.480        93
23.490       113
23.500       140
23.510        93
23.520       180
23.530       140
23.540       127
23.550       147
23.560       113
23.570       140
23.580       167
23.590       153
23.600       153
23.610        87
23.620       153
23.630       100
23.640       120
23.650        93
23.660       140
23.670       107
23.680        87
23.690       147
23.700       127
23.710       120
23.720       153
23.730       107
23.740       133
23.750       127
23.760        93
23.770       113
23.780       127
23.790       187
23.800       113
23.810       127
23.820       147
23.830       107
23.840       107
23.850       120
23.860       107
23.870        87
23.880        87
23.890        80
23.900       100
23.910       133
23.920       107
23.930        93
23.940       120
23.950        67
23.960       173
23.970        73
23.980       193
23.990       140
24.000        80
24.010       127
24.020       173
24.030       107
24.040       120
24.050       107
24.060       120
24.070       113
24.080       133
24.090       113
24.100       173
24.110        87
24.120        80
24.130       133
24.140        67
24.150       113
24.160       113
24.170       120
24.180       100
24.190       127
24.200        53
24.210       147
24.220       113
24.230       127
24.240       167
24.250       133
24.260       120
24.270       147
24.280       153
24.290        73
24.300       133
24.310        87
24.320       173
24.330        87
24.340       153
24.350       140
24.360       147
24.370       133
24.380       133
24.390       120
24.400       113
24.410       133
24.420       107
24.430        53
24.440        93
24.450       160
24.460        93
24.470       133
24.480        87
24.490        87
24.500        73
24.510       160
24.520       153
24.530       147
24.540       160
24.550       147
24.560       120
24.570       127
24.580       113
24.590       140
24.600       120
24.610       147
24.620       140
24.630       127
24.640       127
24.650        93
24.660       107
24.670       113
24.680       113
24.690       127
24.700       140
24.710       193
24.720       247
24.730       200
24.740       300
24.750       420
24.760       380
24.770       466
24.780       433
24.790       480
24.800       533
24.810       580
24.820       613
24.830       540
24.840       560
24.850       593
24.860       613
24.870       486
24.880       600
24.890       620
24.900       526
24.910       493
24.920       513
24.930       660
24.940       520
24.950       600
24.960       540
24.970       560
24.980       546
24.990       473
25.000       533
25.010       593
25.020       586
25.030       620
25.040       613
25.050       486
25.060       526
25.070       586
25.080       633
25.090       520
25.100       680
25.110       613
25.120       580
25.130       633
25.140       693
25.150       660
25.160       666
25.170       486
25.180       686
25.190       673
25.200       613
25.210       646
25.220       613
25.230       473
25.240       746
25.250       706
25.260       700
25.270       620
25.280       640
25.290       706
25.300       813
25.310       833
25.320       786
25.330       806
25.340       826
25.350       826
25.360       766
25.370       773
25.380       933
25.390       953
25.400       973
25.410      1279
25.420      1266
25.430      1493
25.440      1866
25.450      2106
25.460      2652
25.470      3025
25.480      3985
25.490      4625
25.500      5544
25.510      6164
25.520      6951
25.530      8130
25.540      9143
25.550     10436
25.560     13561
25.570     23244
25.580     46355
25.590     77456
25.600    105924
25.610    124923
25.620    131661
25.630    134606
25.640    135986
25.650    133900
25.660    124537
25.670    104691
25.680     89124
25.690     82227
25.700     79435
25.710     73651
25.720     61475
25.730     42783
25.740     26503
25.750     16054
25.760     12069
25.770     10269
25.780      8843
25.790      7670
25.800      6451
25.810      5584
25.820      4791
25.830      4138
25.840      3539
25.850      3032
25.860      2426
25.870      2019
25.880      1566
25.890      1493
25.900       973
25.910      1140
25.920      1060
25.930      1020
25.940       993
25.950       933
25.960      1066
25.970       720
25.980       793
25.990       893
26.000       833
26.010       693
26.020       780
26.030       793
26.040       706
26.050       593
26.060       740
26.070       706
26.080       713
26.090       700
26.100       480
26.110       553
26.120       560
26.130       726
26.140       673
26.150       566
26.160       580
26.170       486
26.180       620
26.190       540
26.200       726
26.210       573
26.220       653
26.230       500
26.240       560
26.250       546
26.260       560
26.270       433
26.280       453
26.290       620
26.300       480
26.310       526
26.320       540
26.330       486
26.340       446
26.350       466
26.360       526
26.370       393
26.380       466
26.390       533
26.400       393
26.410       513
26.420       360
26.430       400
26.440       373
26.450       453
26.460       506
26.470       566
26.480       553
26.490       393
26.500       480
26.510       460
26.520       407
26.530       420
26.540       473
26.550       473
26.560       466
26.570       440
26.580       426
26.590       433
26.600       393
26.610       446
26.620       393
26.630       440
26.640       420
26.650       440
26.660       500
26.670       513
26.680       480
26.690       493
26.700       387
26.710       407
26.720       400
26.730       407
26.740       393
26.750       540
26.760       360
26.770       340
26.780       387
26.790       333
26.800       446
26.810       380
26.820       433
26.830       373
26.840       320
26.850       387
26.860       313
26.870       373
26.880       360
26.890       480
26.900       420
26.910       387
26.920       453
26.930       400
26.940       380
26.950       313
26.960       387
26.970       453
26.980       373
26.990       446
27.000       460
27.010       400
27.020       460
27.030       333
27.040       353
27.050       320
27.060       486
27.070       373
27.080       387
27.090       327
27.100       367
27.110       373
27.120       327
27.130       353
27.140       400
27.150       327
27.160       327
27.170       373
27.180       340
27.190       293
27.200       500
27.210       360
27.220       387
27.230       353
27.240       307
27.250       380
27.260       387
27.270       453
27.280       340
27.290       433
27.300       313
27.310       420
27.320       340
27.330       320
27.340       340
27.350       493
27.360       413
27.370       407
27.380       400
27.390       387
27.400       300
27.410       407
27.420       333
27.430       320
27.440       260
27.450       327
27.460       380
27.470       320
27.480       327
27.490       333
27.500       413
27.510       353
27.520       320
27.530       213
27.540       320
27.550       247
27.560       353
27.570       407
27.580       347
27.590       213
27.600       313
27.610       247
27.620       347
27.630       347
27.640       327
27.650       380
27.660       260
27.670       273
27.680       287
27.690       367
27.700       227
27.710       273
27.720       353
27.730       347
27.740       380
27.750       313
27.760       340
27.770       313
27.780       300
27.790       313
27.800       340
27.810       327
27.820       353
27.830       426
27.840       327
27.850       320
27.860       320
27.870       347
27.880       320
27.890       373
27.900       420
27.910       307
27.920       307
27.930       340
27.940       387
27.950       340
27.960       313
27.970       327
27.980       260
27.990       327
28.000       293
28.010       267
28.020       327
28.030       313
28.040       360
28.050       347
28.060       333
28.070       320
28.080       360
28.090       327
28.100       267
28.110       307
28.120       293
28.130       280
28.140       333
28.150       393
28.160       220
28.170       333
28.180       340
28.190       360
28.200       293
28.210       320
28.220       293
28.230       353
28.240       287
28.250       287
28.260       307
28.270       313
28.280       340
28.290       287
28.300       353
28.310       313
28.320       233
28.330       307
28.340       300
28.350       267
28.360       247
28.370       320
28.380       360
28.390       253
28.400       347
28.410       333
28.420       253
28.430       300
28.440       353
28.450       293
28.460       233
28.470       260
28.480       327
28.490       307
28.500       340
28.510       253
28.520       267
28.530       287
28.540       267
28.550       287
28.560       273
28.570       287
28.580       313
28.590       307
28.600       367
28.610       333
28.620       327
28.630       320
28.640       207
28.650       273
28.660       327
28.670       247
28.680       247
28.690       367
28.700       273
28.710       293
28.720       213
28.730       287
28.740       240
28.750       347
28.760       327
28.770       293
28.780       247
28.790       273
28.800       267
28.810       240
28.820       353
28.830       220
28.840       293
28.850       307
28.860       300
28.870       187
28.880       307
28.890       267
28.900       213
28.910       287
28.920       280
28.930       300
28.940       200
28.950       340
28.960       200
28.970       340
28.980       233
28.990       220
29.000       293
29.010       213
29.020       233
29.030       307
29.040       267
29.050       253
29.060       253
29.070       287
29.080       387
29.090       220
29.100       273
29.110       253
29.120       267
29.130       227
29.140       240
29.150       240
29.160       240
29.170       253
29.180       273
29.190       193
29.200       280
29.210       280
29.220       313
29.230       233
29.240       253
29.250       213
29.260       213
29.270       247
29.280       273
29.290       293
29.300       247
29.310       313
29.320       200
29.330       233
29.340       127
29.350       267
29.360       267
29.370       267
29.380       233
29.390       247
29.400       267
29.410       233
29.420       233
29.430       187
29.440       240
29.450       240
29.460       167
29.470       200
29.480       240
29.490       267
29.500       253
29.510       220
29.520       200
29.530       193
29.540       220
29.550       193
29.560       233
29.570       173
29.580       240
29.590       267
29.600       227
29.610       187
29.620       240
29.630       240
29.640       260
29.650       220
29.660       193
29.670       247
29.680       287
29.690       240
29.700       220
29.710       233
29.720       260
29.730       187
29.740       313
29.750       267
29.760       187
29.770       140
29.780       253
29.790       253
29.800       200
29.810       180
29.820       253
29.830       253
29.840       307
29.850       240
29.860       240
29.870       267
29.880       267
29.890       253
29.900       280
29.910       187
29.920       240
29.930       180
29.940       227
29.950       267
29.960       187
29.970       167
29.980       213
29.990       220
30.000       193
30.010       253
30.020       233
30.030       327
30.040       207
30.050       220
30.060       247
30.070       193
30.080       220
30.090       293
30.100       293
30.110       213
30.120       207
30.130       207
30.140       227
30.150       280
30.160       260
30.170       220
30.180       180
30.190       160
30.200       240
30.210       167
30.220       207
30.230       187
30.240       193
30.250       253
30.260       220
30.270       193
30.280       160
30.290       173
30.300       233
30.310       260
30.320       227
30.330       253
30.340       173
30.350       280
30.360       193
30.370       253
30.380       167
30.390       213
30.400       273
30.410       193
30.420       120
30.430       260
30.440       227
30.450       213
30.460       153
30.470       200
30.480       180
30.490       187
30.500       207
30.510       153
30.520       153
30.530       187
30.540       240
30.550       247
30.560       220
30.570       240
30.580       227
30.590       187
30.600       147
30.610       213
30.620       173
30.630       153
30.640       220
30.650       147
30.660       247
30.670       193
30.680       207
30.690       140
30.700       173
30.710       253
30.720       200
30.730       173
30.740       193
30.750       167
30.760       193
30.770       240
30.780       247
30.790       227
30.800       227
30.810       213
30.820       173
30.830       247
30.840       213
30.850       220
30.860       233
30.870       267
30.880       187
30.890       160
30.900       187
30.910       147
30.920       193
30.930       160
30.940       153
30.950       180
30.960       233
30.970       207
30.980       167
30.990       187
31.000       220
31.010       167
31.020       233
31.030       187
31.040       213
31.050       153
31.060       213
31.070       213
31.080       140
31.090       220
31.100       173
31.110       160
31.120       240
31.130       213
31.140       207
31.150       173
31.160       173
31.170       193
31.180       127
31.190       173
31.200       147
31.210       253
31.220       200
31.230       180
31.240       200
31.250       120
31.260       133
31.270       160
31.280       147
31.290       193
31.300       147
31.310       160
31.320       140
31.330       160
31.340       147
31.350       173
31.360       160
31.370       167
31.380       160
31.390       153
31.400       207
31.410       173
31.420       187
31.430       187
31.440       173
31.450       180
31.460       180
31.470       167
31.480        93
31.490       207
31.500       167
31.510       140
31.520       160
31.530       140
31.540       227
31.550       167
31.560       107
31.570       140
31.580       213
31.590       180
31.600       193
31.610       153
31.620       160
31.630       153
31.640       147
31.650       147
31.660       107
31.670       180
31.680       167
31.690       180
31.700       160
31.710       173
31.720       187
31.730       240
31.740       127
31.750       173
31.760       160
31.770       147
31.780       133
31.790       200
31.800       107
31.810       187
31.820       233
31.830       173
31.840       100
31.850       140
31.860       187
31.870       127
31.880       147
31.890       113
31.900       133
31.910       180
31.920       127
31.930       173
31.940       153
31.950       173
31.960       167
31.970       113
31.980       220
31.990       167
32.000       120
32.010       167
32.020       187
32.030       200
32.040       140
32.050       147
32.060       193
32.070       247
32.080       180
32.090       180
32.100       180
32.110       173
32.120       187
32.130       127
32.140       187
32.150       193
32.160       200
32.170       227
32.180       247
32.190       273
32.200       227
32.210       227
32.220       220
32.230       227
32.240       260
32.250       353
32.260       273
32.270       240
32.280       353
32.290       220
32.300       293
32.310       347
32.320       367
32.330       347
32.340       240
32.350       340
32.360       327
32.370       260
32.380       287
32.390       280
32.400       360
32.410       293
32.420       273
32.430       413
32.440       380
32.450       347
32.460       320
32.470       440
32.480       213
32.490       300
32.500       220
32.510       260
32.520       360
32.530       240
32.540       327
32.550       207
32.560       200
32.570       247
32.580       247
32.590       260
32.600       280
32.610       287
32.620       173
32.630       260
32.640       227
32.650       193
32.660       160
32.670       180
32.680       180
32.690       187
32.700       193
32.710       167
32.720       213
32.730       213
32.740       140
32.750       140
32.760       153
32.770       140
32.780       127
32.790       173
32.800       207
32.810       167
32.820       100
32.830       167
32.840       153
32.850       113
32.860       153
32.870       200
32.880       160
32.890       173
32.900       147
32.910       207
32.920       113
32.930       100
32.940       113
32.950       140
32.960       147
32.970       127
32.980       127
32.990       193
33.000       153
33.010       153
33.020       120
33.030       127
33.040       173
33.050       140
33.060       140
33.070       133
33.080       113
33.090       133
33.100       147
33.110       147
33.120       147
33.130       127
33.140        87
33.150       120
33.160        93
33.170       173
33.180       120
33.190       147
33.200       147
33.210       100
33.220       260
33.230       100
33.240       113
33.250       107
33.260        80
33.270       147
33.280       147
33.290       127
33.300       140
33.310       133
33.320        67
33.330       127
33.340       147
33.350       120
33.360       113
33.370        80
33.380        87
33.390       147
33.400       153
33.410       140
33.420       107
33.430       100
33.440       100
33.450       167
33.460        80
33.470       120
33.480       107
33.490        87
33.500        80
33.510        87
33.520        87
33.530       113
33.540       113
33.550       107
33.560       100
33.570        73
33.580       100
33.590       133
33.600       107
33.610        93
33.620       107
33.630       153
33.640       160
33.650       153
33.660        53
33.670       120
33.680        53
33.690        80
33.700        87
33.710        87
33.720       107
33.730        67
33.740        93
33.750       100
33.760       100
33.770       100
33.780       113
33.790       113
33.800        87
33.810       113
33.820        73
33.830       100
33.840       107
33.850       120
33.860       147
33.870        47
33.880        87
33.890       120
33.900       133
33.910        87
33.920       100
33.930       153
33.940        80
33.950       100
33.960       147
33.970       100
33.980        93
33.990       107
34.000       107
34.010       107
34.020       107
34.030       160
34.040       127
34.050        93
34.060        87
34.070        80
34.080        73
34.090        60
34.100       120
34.110       120
34.120       113
34.130       100
34.140       160
34.150       140
34.160       107
34.170       120
34.180        73
34.190       107
34.200       120
34.210       113
34.220       120
34.230        93
34.240        53
34.250       140
34.260       120
34.270        87
34.280        60
34.290       113
34.300       107
34.310        87
34.320        47
34.330       113
34.340        60
34.350        93
34.360       120
34.370       173
34.380       113
34.390       147
34.400        73
34.410       100
34.420        53
34.430        67
34.440       120
34.450        33
34.460        47
34.470       100
34.480        93
34.490        80
34.500        73
34.510        93
34.520        53
34.530        93
34.540       100
34.550        47
34.560        93
34.570        60
34.580        87
34.590       100
34.600        80
34.610       127
34.620        80
34.630        87
34.640       107
34.650        47
34.660        73
34.670       107
34.680       107
34.690        80
34.700       127
34.710        87
34.720        93
34.730        73
34.740        87
34.750       160
34.760       133
34.770        60
34.780        87
34.790       127
34.800        60
34.810        67
34.820       107
34.830        73
34.840       113
34.850       100
34.860        53
34.870        73
34.880       107
34.890        93
34.900       127
34.910       107
34.920        53
34.930        73
34.940        93
34.950       107
34.960        67
34.970        87
34.980        93
34.990        80
35.000        73
35.010        40
35.020        33
35.030       107
35.040       100
35.050        53
35.060        73
35.070       100
35.080        93
35.090       113
35.100        60
35.110       107
35.120       113
35.130        67
35.140        93
35.150       140
35.160        53
35.170        80
35.180       147
35.190        93
35.200        53
35.210        87
35.220        60
35.230       133
35.240        80
35.250        73
35.260       107
35.270        67
35.280        73
35.290        93
35.300       100
35.310        67
35.320        73
35.330        80
35.340        87
35.350        67
35.360        73
35.370        80
35.380        60
35.390        73
35.400        93
35.410        67
35.420        93
35.430       100
35.440        80
35.450       147
35.460        93
35.470        87
35.480        87
35.490        60
35.500        60
35.510        80
35.520        73
35.530        80
35.540       107
35.550        53
35.560        60
35.570        93
35.580        93
35.590       113
35.600        47
35.610        67
35.620        67
35.630        80
35.640        60
35.650        80
35.660       107
35.670        67
35.680        67
35.690        20
35.700        87
35.710        80
35.720        80
35.730       100
35.740       107
35.750        80
35.760        53
35.770        53
35.780       113
35.790        93
35.800        93
35.810        87
35.820        33
35.830       100
35.840       100
35.850        80
35.860        53
35.870        53
35.880        40
35.890        87
35.900        80
35.910        73
35.920        60
35.930       160
35.940        40
35.950        53
35.960        53
35.970        80
35.980        67
35.990        80
36.000        87
36.010       107
36.020        53
36.030        53
36.040        53
36.050        93
36.060        33
36.070        80
36.080        60
36.090        80
36.100       113
36.110        80
36.120        93
36.130       160
36.140        93
36.150       100
36.160        80
36.170        67
36.180        73
36.190        73
36.200        67
36.210       107
36.220        93
36.230        53
36.240        47
36.250       100
36.260       107
36.270        53
36.280        53
36.290        73
36.300        53
36.310        73
36.320        93
36.330        73
36.340        53
36.350        80
36.360        93
36.370        40
36.380        93
36.390        80
36.400        53
36.410        60
36.420        73
36.430        73
36.440        40
36.450        40
36.460        80
36.470        53
36.480        73
36.490        73
36.500        60
36.510        93
36.520        27
36.530        67
36.540        73
36.550        60
36.560        47
36.570        73
36.580        93
36.590        87
36.600        80
36.610        73
36.620        80
36.630        93
36.640        73
36.650        87
36.660        67
36.670       140
36.680        53
36.690        87
36.700        87
36.710        93
36.720        80
36.730        67
36.740        67
36.750        67
36.760        80
36.770        73
36.780       120
36.790        67
36.800        40
36.810       100
36.820        93
36.830       113
36.840        40
36.850        60
36.860        87
36.870        47
36.880        80
36.890        67
36.900        87
36.910        67
36.920        47
36.930        93
36.940        67
36.950        67
36.960        33
36.970        60
36.980        40
36.990        67
37.000        80
37.010        80
37.020        20
37.030        40
37.040        93
37.050        60
37.060        53
37.070        47
37.080        67
37.090        80
37.100        80
37.110        47
37.120        67
37.130        80
37.140        40
37.150        53
37.160        47
37.170        53
37.180        53
37.190        53
37.200        80
37.210        53
37.220        33
37.230        80
37.240        33
37.250        53
37.260        60
37.270        73
37.280        53
37.290        47
37.300        67
37.310        53
37.320        80
37.330        53
37.340        40
37.350        80
37.360        73
37.370        33
37.380        13
37.390        73
37.400        47
37.410        53
37.420        40
37.430        53
37.440        53
37.450        33
37.460        53
37.470        60
37.480        67
37.490        47
37.500        20
37.510        40
37.520        60
37.530        67
37.540        60
37.550        73
37.560        47
37.570        60
37.580        33
37.590        53
37.600        60
37.610        80
37.620        40
37.630        60
37.640        40
37.650        53
37.660        47
37.670        53
37.680        13
37.690        60
37.700        40
37.710        73
37.720        27
37.730        33
37.740        53
37.750        53
37.760       113
37.770        93
37.780        33
37.790        33
37.800        40
37.810        47
37.820        67
37.830        67
37.840        53
37.850        60
37.860        47
37.870        33
37.880        60
37.890        33
37.900        27
37.910        60
37.920        33
37.930        40
37.940        60
37.950        87
37.960        53
37.970        20
37.980        60
37.990        53
38.000        47
38.010        67
38.020        60
38.030        33
38.040        60
38.050        60
38.060        60
38.070        40
38.080        33
38.090        67
38.100        27
38.110        33
38.120        53
38.130        53
38.140        67
38.150        33
38.160        67
38.170        40
38.180        67
38.190        60
38.200        67
38.210        33
38.220        73
38.230        53
38.240        33
38.250        20
38.260        33
38.270        20
38.280        73
38.290        67
38.300        47
38.310        53
38.320        67
38.330        33
38.340        47
38.350        33
38.360        67
38.370        40
38.380       100
38.390        47
38.400        40
38.410       100
38.420        67
38.430        47
38.440        40
38.450        53
38.460        20
38.470        27
38.480        40
38.490        53
38.500        80
38.510        47
38.520        40
38.530        73
38.540        53
38.550        53
38.560        40
38.570        53
38.580        33
38.590        93
38.600        47
38.610        40
38.620        73
38.630        40
38.640        33
38.650        33
38.660        33
38.670        27
38.680        33
38.690        40
38.700        60
38.710        67
38.720        87
38.730        47
38.740        27
38.750        60
38.760        53
38.770        87
38.780        67
38.790        73
38.800        73
38.810        33
38.820        33
38.830        60
38.840        33
38.850        47
38.860        40
38.870        33
38.880        40
38.890        53
38.900        33
38.910        27
38.920        13
38.930        60
38.940        27
38.950        33
38.960        13
38.970        33
38.980        40
38.990        33
39.000        13
39.010        33
39.020        47
39.030        53
39.040        47
39.050        40
39.060        20
39.070        67
39.080        47
39.090        33
39.100        47
39.110        60
39.120        53
39.130        80
39.140        67
39.150        20
39.160        67
39.170        60
39.180        40
39.190        20
39.200        27
39.210        40
39.220        27
39.230        47
39.240        33
39.250        47
39.260        20
39.270        47
39.280        20
39.290        60
39.300        40
39.310        40
39.320        40
39.330        47
39.340        27
39.350        20
39.360        20
39.370        40
39.380        13
39.390        67
39.400        67
39.410        33
39.420        53
39.430        67
39.440        13
39.450        67
39.460        33
39.470        47
39.480        67
39.490        40
39.500        33
39.510        40
39.520        40
39.530        73
39.540        33
39.550        40
39.560        40
39.570        67
39.580        80
39.590        40
39.600        20
39.610        20
39.620        67
39.630        40
39.640        40
39.650        40
39.660        67
39.670        27
39.680        40
39.690        40
39.700        47
39.710        47
39.720        47
39.730        60
39.740        40
39.750        27
39.760        47
39.770        33
39.780        33
39.790        60
39.800        40
39.810        27
39.820        33
39.830        13
39.840        60
39.850        60
39.860        40
39.870        33
39.880        53
39.890        53
39.900        27
39.910        60
39.920        40
39.930        40
39.940        53
39.950        27
39.960        53
39.970        47
39.980        13
39.990        80
40.000        20
40.010        73
40.020        60
40.030        27
40.040        40
40.050        53
40.060        47
40.070        27
40.080        60
40.090        47
40.100        27
40.110        47
40.120         7
40.130        27
40.140        47
40.150        60
40.160        47
40.170        20
40.180        27
40.190        40
40.200        40
40.210        40
40.220        40
40.230        47
40.240        40
40.250        60
40.260        33
40.270        27
40.280        47
40.290        80
40.300        40
40.310        33
40.320        40
40.330        20
40.340        47
40.350        27
40.360        27
40.370        47
40.380        27
40.390        53
40.400        53
40.410        27
40.420        13
40.430        47
40.440        33
40.450        33
40.460        20
40.470        47
40.480        60
40.490        40
40.500        67
40.510        33
40.520        47
40.530        20
40.540        27
40.550        67
40.560        47
40.570        47
40.580        33
40.590        27
40.600        53
40.610        13
40.620        53
40.630        40
40.640        47
40.650        13
40.660        13
40.670        40
40.680        40
40.690        20
40.700        40
40.710        27
40.720        20
40.730        53
40.740        33
40.750        27
40.760        27
40.770        47
40.780        33
40.790        47
40.800        47
40.810        13
40.820        33
40.830        47
40.840        33
40.850        33
40.860        27
40.870        13
40.880        47
40.890        27
40.900        47
40.910        53
40.920        60
40.930        27
40.940        27
40.950        53
40.960        33
40.970        33
40.980        33
40.990        47
41.000        13
41.010        53
41.020        33
41.030        80
41.040        60
41.050        73
41.060        60
41.070        33
41.080        27
41.090        40
41.100        47
41.110        27
41.120        47
41.130        27
41.140        33
41.150        20
41.160        33
41.170        53
41.180        33
41.190        47
41.200        13
41.210        33
41.220        20
41.230        13
41.240        33
41.250        27
41.260        27
41.270        47
41.280        40
41.290        33
41.300        60
41.310        40
41.320        40
41.330        20
41.340        60
41.350        47
41.360        47
41.370        47
41.380        40
41.390        60
41.400        60
41.410        27
41.420        47
41.430        20
41.440        20
41.450        40
41.460        47
41.470        27
41.480        40
41.490        60
41.500        73
41.510        53
41.520        40
41.530        60
41.540        20
41.550        47
41.560        60
41.570        53
41.580        27
41.590        33
41.600        60
41.610        33
41.620        27
41.630        20
41.640        73
41.650        73
41.660        47
41.670        40
41.680        33
41.690        60
41.700        40
41.710        40
41.720        27
41.730        33
41.740        27
41.750        40
41.760        53
41.770        53
41.780        47
41.790        60
41.800        27
41.810        20
41.820        47
41.830        40
41.840        73
41.850        60
41.860         7
41.870        33
41.880        33
41.890        27
41.900        40
41.910        47
41.920        33
41.930        20
41.940        20
41.950        20
41.960        40
41.970        27
41.980        20
41.990        20
42.000        20
42.010        27
42.020        67
42.030        27
42.040        33
42.050        47
42.060        33
42.070        33
42.080        27
42.090        40
42.100        27
42.110        27
42.120        40
42.130        47
42.140        40
42.150        67
42.160        27
42.170        13
42.180        47
42.190         7
42.200        53
42.210         7
42.220        47
42.230        27
42.240        40
42.250        27
42.260        27
42.270        13
42.280        40
42.290        33
42.300        47
42.310        20
42.320        27
42.330        27
42.340        27
42.350        40
42.360        27
42.370        40
42.380        67
42.390        40
42.400        33
42.410        47
42.420        47
42.430        40
42.440        20
42.450        33
42.460        53
42.470        40
42.480        40
42.490        47
42.500        27
42.510        40
42.520        20
42.530        13
42.540        47
42.550        60
42.560        20
42.570        27
42.580        27
42.590        93
42.600         7
42.610        20
42.620        67
42.630        40
42.640        20
42.650        40
42.660        40
42.670        20
42.680        47
42.690        47
42.700        40
42.710        47
42.720        27
42.730        27
42.740        20
42.750        47
42.760         7
42.770         7
42.780        47
42.790        33
42.800        40
42.810        40
42.820        40
42.830        40
42.840        27
42.850        33
42.860        20
42.870        33
42.880        27
42.890        47
42.900        20
42.910        47
42.920        33
42.930        33
42.940        20
42.950        20
42.960        27
42.970        67
42.980        53
42.990        20
43.000        33
43.010        33
43.020        60
43.030        20
43.040        20
43.050        20
43.060        47
43.070        27
43.080       107
43.090        40
43.100        40
43.110        40
43.120        47
43.130        13
43.140        80
43.150        40
43.160        60
43.170        67
43.180        20
43.190        27
43.200        47
43.210         7
43.220        40
43.230        33
43.240        13
43.250        20
43.260        33
43.270        20
43.280        40
43.290        33
43.300        33
43.310        33
43.320        33
43.330        27
43.340        27
43.350        67
43.360        27
43.370        47
43.380        40
43.390        27
43.400        20
43.410        40
43.420        47
43.430         7
43.440        33
43.450        27
43.460        33
43.470        40
43.480        13
43.490        20
43.500        27
43.510        20
43.520        33
43.530        40
43.540        27
43.550        47
43.560        47
43.570        20
43.580        13
43.590        40
43.600        47
43.610        20
43.620        13
43.630        33
43.640        13
43.650        20
43.660        33
43.670        53
43.680        40
43.690        13
43.700        27
43.710        60
43.720        13
43.730        33
43.740        40
43.750        27
43.760        47
43.770        27
43.780        40
43.790        20
43.800        13
43.810        33
43.820        40
43.830        27
43.840        13
43.850        40
43.860        20
43.870        20
43.880        73
43.890        20
43.900        40
43.910        67
43.920        27
43.930        27
43.940        20
43.950        20
43.960        27
43.970        33
43.980        20
43.990        53
44.000        40
44.010         7
44.020        40
44.030        40
44.040        33
44.050        47
44.060        33
44.070        47
44.080        40
44.090        33
44.100        53
44.110        13
44.120        20
44.130        20
44.140        40
44.150        67
44.160        20
44.170        53
44.180        27
44.190        33
44.200        40
44.210        40
44.220        33
44.230        53
44.240        33
44.250        27
44.260        33
44.270        33
44.280        47
44.290         7
44.300         7
44.310        33
44.320        27
44.330        47
44.340        20
44.350        53
44.360        20
44.370        60
44.380        27
44.390        40
44.400        33
44.410        20
44.420        33
44.430        53
44.440        53
44.450        40
44.460        27
44.470        53
44.480        27
44.490        33
44.500        60
44.510        33
44.520        40
44.530        60
44.540        47
44.550        27
44.560        40
44.570        53
44.580        53
44.590        20
44.600        40
44.610        40
44.620        27
44.630        47
44.640        40
44.650        80
44.660        27
44.670        53
44.680        13
44.690        67
44.700        20
44.710        73
44.720        47
44.730        33
44.740        27
44.750        33
44.760        20
44.770        60
44.780        40
44.790        80
44.800        13
44.810        47
44.820        40
44.830        27
44.840        87
44.850        40
44.860        53
44.870        53
44.880        60
44.890        33
44.900        73
44.910        40
44.920        73
44.930        40
44.940        60
44.950        73
44.960        40
44.970        60
44.980        47
44.990        60
45.000        80
45.010        53
45.020        73
45.030        47
45.040        53
45.050        60
45.060       140
45.070        60
45.080        93
45.090        60
45.100        60
45.110        40
45.120        27
45.130        60
45.140        60
45.150        73
45.160        60
45.170        67
45.180        87
45.190        87
45.200        60
45.210        67
45.220       100
45.230        67
45.240        53
45.250       100
45.260        93
45.270        93
45.280       107
45.290        87
45.300        67
45.310       107
45.320       107
45.330       100
45.340        60
45.350       100
45.360        73
45.370        47
45.380       113
45.390        73
45.400        87
45.410        87
45.420        93
45.430        87
45.440       100
45.450       140
45.460        80
45.470       140
45.480       200
45.490       113
45.500        87
45.510       100
45.520       127
45.530       113
45.540       120
45.550       180
45.560       133
45.570       147
45.580       213
45.590       200
45.600       180
45.610       233
45.620       233
45.630       173
45.640       207
45.650       193
45.660       193
45.670       173
45.680       220
45.690       253
45.700       227
45.710       140
45.720       267
45.730       287
45.740       300
45.750       347
45.760       233
45.770       393
45.780       267
45.790       347
45.800       353
45.810       440
45.820       347
45.830       340
45.840       520
45.850       580
45.860       493
45.870       446
45.880       446
45.890       580
45.900       640
45.910       546
45.920       520
45.930       540
45.940       606
45.950       580
45.960       573
45.970       673
45.980       686
45.990       773
46.000       733
46.010       806
46.020       820
46.030       866
46.040       973
46.050       653
46.060       933
46.070       853
46.080       740
46.090       886
46.100       926
46.110       973
46.120       933
46.130       793
46.140      1106
46.150      1080
46.160      1146
46.170       986
46.180      1153
46.190      1160
46.200      1120
46.210      1193
46.220       986
46.230      1186
46.240      1100
46.250      1146
46.260      1140
46.270      1046
46.280      1053
46.290      1286
46.300      1140
46.310      1200
46.320      1086
46.330      1093
46.340      1060
46.350      1093
46.360      1106
46.370      1060
46.380       940
46.390      1013
46.400       960
46.410      1060
46.420       940
46.430      1033
46.440      1086
46.450       840
46.460       966
46.470       893
46.480       933
46.490       760
46.500       853
46.510       846
46.520       820
46.530       806
46.540       740
46.550       686
46.560       646
46.570       593
46.580       686
46.590       626
46.600       720
46.610       500
46.620       560
46.630       546
46.640       600
46.650       626
46.660       526
46.670       493
46.680       560
46.690       513
46.700       407
46.710       453
46.720       466
46.730       413
46.740       387
46.750       420
46.760       373
46.770       407
46.780       333
46.790       387
46.800       300
46.810       320
46.820       293
46.830       367
46.840       280
46.850       300
46.860       247
46.870       200
46.880       233
46.890       273
46.900       300
46.910       213
46.920       173
46.930       187
46.940       207
46.950       233
46.960       220
46.970       187
46.980       220
46.990       167
47.000       173
47.010       247
47.020       160
47.030       193
47.040       260
47.050       147
47.060       187
47.070       147
47.080       167
47.090       240
47.100       247
47.110       160
47.120       180
47.130       327
47.140       207
47.150       333
47.160       387
47.170       573
47.180       800
47.190       913
47.200      1080
47.210      1240
47.220      1266
47.230      1133
47.240      1040
47.250       760
47.260       673
47.270       520
47.280       466
47.290       353
47.300       233
47.310       220
47.320       227
47.330       153
47.340       240
47.350       213
47.360       167
47.370       120
47.380       100
47.390       120
47.400       147
47.410       100
47.420       153
47.430        67
47.440       107
47.450        87
47.460        67
47.470        93
47.480        87
47.490       120
47.500       100
47.510        80
47.520        80
47.530        73
47.540        93
47.550        60
47.560        87
47.570        93
47.580        47
47.590        93
47.600       120
47.610        67
47.620        80
47.630       147
47.640        87
47.650        73
47.660        93
47.670        67
47.680        93
47.690        47
47.700        87
47.710        67
47.720        87
47.730        60
47.740        93
47.750        47
47.760        47
47.770        93
47.780        60
47.790        73
47.800        80
47.810        73
47.820        60
47.830        40
47.840        33
47.850        73
47.860       100
47.870        67
47.880        73
47.890        60
47.900        53
47.910        33
47.920        33
47.930        33
47.940        47
47.950        27
47.960        33
47.970        40
47.980        53
47.990        47
48.000        53
48.010        53
48.020        33
48.030        53
48.040        67
48.050        60
48.060        47
48.070        20
48.080        53
48.090        53
48.100        33
48.110        40
48.120        73
48.130        40
48.140        20
48.150        40
48.160        27
48.170        33
48.180        80
48.190        67
48.200        87
48.210        53
48.220        80
48.230        33
48.240         7
48.250        47
48.260        73
48.270        47
48.280        53
48.290        47
48.300        33
48.310         0
48.320        47
48.330         7
48.340        40
48.350        33
48.360        40
48.370        33
48.380        27
48.390        27
48.400        40
48.410        67
48.420        67
48.430        27
48.440        60
48.450        67
48.460        67
48.470        47
48.480        53
48.490        53
48.500        13
48.510        20
48.520        47
48.530        53
48.540        53
48.550        40
48.560        60
48.570        20
48.580        53
48.590        40
48.600        47
48.610        67
48.620        27
48.630        27
48.640        53
48.650        33
48.660        47
48.670        27
48.680        53
48.690        33
48.700        60
48.710        40
48.720        27
48.730        60
48.740        53
48.750        40
48.760        53
48.770        47
48.780        60
48.790        20
48.800        67
48.810        73
48.820        20
48.830        13
48.840        67
48.850        60
48.860        73
48.870        47
48.880        60
48.890        33
48.900        27
48.910        20
48.920        73
48.930        40
48.940        20
48.950        20
48.960        47
48.970        27
48.980        13
48.990        73
49.000        27
49.010        67
49.020        27
49.030        53
49.040         7
49.050        67
49.060        60
49.070        27
49.080        53
49.090         7
49.100        27
49.110        40
49.120        27
49.130        33
49.140        47
49.150        47
49.160        47
49.170        47
49.180        33
49.190        27
49.200        33
49.210        60
49.220        47
49.230        40
49.240        60
49.250        60
49.260        27
49.270        27
49.280        53
49.290        67
49.300        20
49.310        40
49.320        53
49.330        60
49.340        40
49.350        47
49.360         7
49.370        20
49.380        33
49.390        27
49.400        53
49.410        40
49.420        33
49.430        47
49.440        53
49.450        20
49.460        20
49.470        20
49.480        20
49.490        40
49.500        27
49.510        20
49.520        60
49.530        13
49.540        40
49.550        40
49.560        33
49.570        40
49.580        40
49.590        33
49.600        27
49.610        53
49.620        27
49.630        27
49.640        40
49.650        20
49.660        53
49.670        73
49.680        33
49.690        73
49.700        33
49.710        60
49.720        27
49.730        47
49.740        53
49.750        33
49.760        40
49.770        33
49.780        47
49.790        67
49.800        33
49.810        40
49.820        33
49.830        33
49.840        60
49.850        53
49.860        67
49.870        60
49.880        27
49.890        47
49.900        13
49.910        60
49.920        20
49.930        67
49.940        40
49.950        27
49.960         7
49.970        67
49.980        33
49.990        13
50.000        40
50.010        27
50.020        73
50.030        33
50.040        47
50.050        20
50.060        27
50.070        47
50.080        60
50.090        27
50.100        27
50.110        53
50.120        40
50.130        33
50.140        27
50.150        33
50.160        40
50.170        67
50.180        33
50.190        53
50.200        67
50.210        33
50.220        27
50.230        33
50.240        40
50.250        33
50.260        40
50.270        13
50.280        73
50.290        20
50.300        27
50.310        13
50.320        27
50.330        40
50.340        40
50.350        80
50.360        20
50.370        47
50.380        40
50.390        13
50.400        47
50.410        53
50.420        53
50.430        27
50.440        27
50.450        27
50.460        67
50.470         7
50.480        67
50.490        47
50.500        53
50.510        27
50.520        20
50.530        27
50.540        47
50.550        47
50.560        73
50.570        40
50.580        27
50.590        47
50.600        27
50.610        40
50.620        67
50.630        80
50.640        93
50.650       100
50.660       133
50.670       140
50.680       173
50.690       140
50.700       220
50.710       247
50.720       213
50.730       247
50.740       313
50.750       273
50.760       347
50.770       293
50.780       313
50.790       340
50.800       260
50.810       320
50.820       380
50.830       367
50.840       307
50.850       307
50.860       307
50.870       253
50.880       280
50.890       267
50.900       300
50.910       260
50.920       213
50.930       233
50.940       373
50.950       273
50.960       293
50.970       287
50.980       313
50.990       260
51.000       360
51.010       320
51.020       313
51.030       327
51.040       333
51.050       347
51.060       187
51.070       407
51.080       273
51.090       307
51.100       233
51.110       300
51.120       227
51.130       273
51.140       367
51.150       273
51.160       360
51.170       273
51.180       293
51.190       287
51.200       353
51.210       320
51.220       340
51.230       333
51.240       287
51.250       320
51.260       233
51.270       173
51.280       300
51.290       353
51.300       320
51.310       287
51.320       327
51.330       320
51.340       340
51.350       353
51.360       260
51.370       267
51.380       293
51.390       307
51.400       367
51.410       380
51.420       233
51.430       387
51.440       313
51.450       200
51.460       293
51.470       320
51.480       347
51.490       313
51.500       293
51.510       367
51.520       347
51.530       313
51.540       393
51.550       373
51.560       347
51.570       313
51.580       393
51.590       333
51.600       333
51.610       387
51.620       347
51.630       347
51.640       333
51.650       293
51.660       353
51.670       426
51.680       353
51.690       393
51.700       380
51.710       360
51.720       313
51.730       253
51.740       353
51.750       300
51.760       420
51.770       213
51.780       413
51.790       340
51.800       433
51.810       307
51.820       353
51.830       260
51.840       333
51.850       426
51.860       387
51.870       420
51.880       313
51.890       373
51.900       253
51.910       333
51.920       453
51.930       440
51.940       453
51.950       373
51.960       540
51.970       393
51.980       426
51.990       433
52.000       473
52.010       407
52.020       446
52.030       393
52.040       393
52.050       407
52.060       500
52.070       380
52.080       407
52.090       473
52.100       387
52.110       506
52.120       520
52.130       573
52.140       580
52.150       553
52.160       560
52.170       580
52.180       573
52.190       673
52.200       653
52.210       746
52.220       726
52.230       786
52.240       900
52.250       720
52.260       920
52.270       860
52.280       986
52.290      1113
52.300      1313
52.310      1273
52.320      1533
52.330      1613
52.340      2006
52.350      2219
52.360      2519
52.370      2746
52.380      2419
52.390      2719
52.400      2965
52.410      3125
52.420      3125
52.430      3805
52.440      4292
52.450      4845
52.460      5458
52.470      6551
52.480      6831
52.490      7730
52.500      9123
52.510     10296
52.520     12695
52.530     14967
52.540     19779
52.550     30554
52.560     49574
52.570     76896
52.580    101633
52.590    122298
52.600    132527
52.610    140377
52.620    139664
52.630    128629
52.640    109523
52.650     81021
52.660     58523
52.670     39584
52.680     31967
52.690     30808
52.700     36959
52.710     48047
52.720     62282
52.730     71978
52.740     79621
52.750     80594
52.760     79975
52.770     74517
52.780     61755
52.790     45282
52.800     29855
52.810     19246
52.820     13641
52.830     10269
52.840      8243
52.850      7537
52.860      7037
52.870      5891
52.880      5444
52.890      4805
52.900      4298
52.910      3485
52.920      3285
52.930      2586
52.940      1886
52.950      1739
52.960      1586
52.970      1486
52.980      1479
52.990      1393
53.000      1180
53.010      1153
53.020      1040
53.030      1113
53.040       920
53.050      1006
53.060       840
53.070       860
53.080       873
53.090       780
53.100       700
53.110       653
53.120       626
53.130       646
53.140       660
53.150       586
53.160       586
53.170       526
53.180       560
53.190       593
53.200       633
53.210       520
53.220       546
53.230       480
53.240       606
53.250       526
53.260       613
53.270       473
53.280       506
53.290       486
53.300       580
53.310       460
53.320       560
53.330       486
53.340       533
53.350       446
53.360       480
53.370       453
53.380       433
53.390       486
53.400       486
53.410       433
53.420       520
53.430       566
53.440       506
53.450       320
53.460       387
53.470       413
53.480       353
53.490       407
53.500       340
53.510       340
53.520       387
53.530       367
53.540       313
53.550       293
53.560       313
53.570       220
53.580       353
53.590       426
53.600       353
53.610       393
53.620       280
53.630       407
53.640       307
53.650       287
53.660       327
53.670       300
53.680       380
53.690       353
53.700       347
53.710       380
53.720       280
53.730       360
53.740       307
53.750       267
53.760       293
53.770       327
53.780       426
53.790       313
53.800       387
53.810       240
53.820       327
53.830       340
53.840       300
53.850       260
53.860       260
53.870       327
53.880       287
53.890       340
53.900       300
53.910       293
53.920       313
53.930       267
53.940       287
53.950       280
53.960       173
53.970       233
53.980       313
53.990       260
54.000       333
54.010       307
54.020       300
54.030       167
54.040       180
54.050       267
54.060       247
54.070       273
54.080       187
54.090       247
54.100       227
54.110       280
54.120       133
54.130       307
54.140       253
54.150       180
54.160       307
54.170       267
54.180       300
54.190       253
54.200       253
54.210       153
54.220       247
54.230       287
54.240       200
54.250       273
54.260       227
54.270       193
54.280       247
54.290       293
54.300       193
54.310       293
54.320       207
54.330       240
54.340       300
54.350       267
54.360       233
54.370       247
54.380       140
54.390       253
54.400       293
54.410       227
54.420       193
54.430       173
54.440       180
54.450       200
54.460       280
54.470       247
54.480       253
54.490       247
54.500       260
54.510       247
54.520       227
54.530       220
54.540       160
54.550       253
54.560       213
54.570       253
54.580       227
54.590       253
54.600       227
54.610       207
54.620       180
54.630       293
54.640       240
54.650       233
54.660       213
54.670       200
54.680       313
54.690       153
54.700       153
54.710       200
54.720       187
54.730       247
54.740       213
54.750       253
54.760       227
54.770       207
54.780       180
54.790       187
54.800       260
54.810       253
54.820       247
54.830       193
54.840       207
54.850       247
54.860       167
54.870       207
54.880       207
54.890       173
54.900       187
54.910       193
54.920       247
54.930       233
54.940       193
54.950       187
54.960       173
54.970       240
54.980       107
54.990       207
55.000       173
55.010       253
55.020       233
55.030       207
55.040       207
55.050       120
55.060       127
55.070       253
55.080       240
55.090       160
55.100       173
55.110       173
55.120       180
55.130       247
55.140       287
55.150       247
55.160       180
55.170       227
55.180       147
55.190       193
55.200       220
55.210       227
55.220       240
55.230       193
55.240       180
55.250       187
55.260       153
55.270       187
55.280       147
55.290       207
55.300       180
55.310       147
55.320       180
55.330       140
55.340       200
55.350       220
55.360       240
55.370       253
55.380       253
55.390       227
55.400       207
55.410       233
55.420       127
55.430       187
55.440       207
55.450       133
55.460       153
55.470       200
55.480       113
55.490       153
55.500       187
55.510       147
55.520       167
55.530       247
55.540       240
55.550       227
55.560       193
55.570       160
55.580       160
55.590       160
55.600       153
55.610       153
55.620       187
55.630       233
55.640       207
55.650       173
55.660       207
55.670       220
55.680       213
55.690       180
55.700       160
55.710       187
55.720       180
55.730       173
55.740       180
55.750       167
55.760       220
55.770       207
55.780       153
55.790       207
55.800       187
55.810       180
55.820       207
55.830       133
55.840       180
55.850       153
55.860       167
55.870       213
55.880       200
55.890       113
55.900       140
55.910       220
55.920       200
55.930       133
55.940       187
55.950       160
55.960       213
55.970       173
55.980       147
55.990       193
56.000       180
56.010       200
56.020       187
56.030       147
56.040       167
56.050       187
56.060       233
56.070       133
56.080       120
56.090       133
56.100       173
56.110       280
56.120       220
56.130       193
56.140       147
56.150       140
56.160       160
56.170       167
56.180       167
56.190       180
56.200       147
56.210        80
56.220       107
56.230       167
56.240       193
56.250       180
56.260       133
56.270       200
56.280       173
56.290       140
56.300       153
56.310       227
56.320       227
56.330       153
56.340       187
56.350       160
56.360       167
56.370       127
56.380       187
56.390       140
56.400       193
56.410       153
56.420       180
56.430       140
56.440       153
56.450       113
56.460       200
56.470       140
56.480       167
56.490       167
56.500       180
56.510       193
56.520       200
56.530       167
56.540       147
56.550       113
56.560       133
56.570       140
56.580       167
56.590       173
56.600       200
56.610       133
56.620       107
56.630       153
56.640       113
56.650       153
56.660       187
56.670       113
56.680       167
56.690       153
56.700       127
56.710        93
56.720       167
56.730       140
56.740       160
56.750       120
56.760       153
56.770       160
56.780       113
56.790       140
56.800        93
56.810       193
56.820       160
56.830       133
56.840       127
56.850       133
56.860       127
56.870       167
56.880       167
56.890       147
56.900       140
56.910       160
56.920       160
56.930        87
56.940        80
56.950       127
56.960        93
56.970       133
56.980       180
56.990       160
57.000       193
57.010       107
57.020       173
57.030        87
57.040        93
57.050       160
57.060       160
57.070        87
57.080       133
57.090        87
57.100       140
57.110       140
57.120       127
57.130       200
57.140       100
57.150       167
57.160       113
57.170       127
57.180       113
57.190       140
57.200       153
57.210       127
57.220       107
57.230       180
57.240       127
57.250       100
57.260       147
57.270       127
57.280       160
57.290       180
57.300       133
57.310       140
57.320       133
57.330       133
57.340       153
57.350       153
57.360       147
57.370       173
57.380       140
57.390       167
57.400       173
57.410       147
57.420       153
57.430       147
57.440       147
57.450       133
57.460       147
57.470       173
57.480       127
57.490       167
57.500       153
57.510        67
57.520        80
57.530       120
57.540       120
57.550       153
57.560       147
57.570       147
57.580        93
57.590       140
57.600       127
57.610       147
57.620       107
57.630       127
57.640       147
57.650       133
57.660       193
57.670       113
57.680       220
57.690       180
57.700       167
57.710       180
57.720        93
57.730       127
57.740       120
57.750       107
57.760       133
57.770       140
57.780        67
57.790       133
57.800       153
57.810       133
57.820       140
57.830       153
57.840        87
57.850        87
57.860       173
57.870       107
57.880       153
57.890       140
57.900        73
57.910       140
57.920       160
57.930       120
57.940        87
57.950       113
57.960       160
57.970       127
57.980       140
57.990       127
58.000       153
58.010        80
58.020       140
58.030       120
58.040       147
58.050       120
58.060       153
58.070       113
58.080       100
58.090       100
58.100        93
58.110        73
58.120       133
58.130       147
58.140        93
58.150       127
58.160       147
58.170       120
58.180       133
58.190       127
58.200        80
58.210       107
58.220       147
58.230       140
58.240       107
58.250       120
58.260        87
58.270       147
58.280       120
58.290        87
58.300       107
58.310        93
58.320       113
58.330       147
58.340       120
58.350       113
58.360       147
58.370       107
58.380       120
58.390       180
58.400       140
58.410       133
58.420       120
58.430       120
58.440       147
58.450       127
58.460       127
58.470       120
58.480       147
58.490       120
58.500       120
58.510       140
58.520       113
58.530       147
58.540       113
58.550       127
58.560       153
58.570        87
58.580        87
58.590       140
58.600       127
58.610       113
58.620        53
58.630       127
58.640       100
58.650       133
58.660       100
58.670       107
58.680       187
58.690       140
58.700       147
58.710       147
58.720       147
58.730       153
58.740        93
58.750       153
58.760       160
58.770       180
58.780       100
58.790       113
58.800       113
58.810       127
58.820       160
58.830        73
58.840       120
58.850        93
58.860       120
58.870       127
58.880        80
58.890       120
58.900       120
58.910        87
58.920        87
58.930        67
58.940       133
58.950       167
58.960       120
58.970       113
58.980       173
58.990       120
59.000       133
59.010       100
59.020       133
59.030        73
59.040       127
59.050       113
59.060       107
59.070       140
59.080       127
59.090       127
59.100       153
59.110       127
59.120       107
59.130       140
59.140       120
59.150       100
59.160       133
59.170       107
59.180       127
59.190        87
59.200       127
59.210       220
59.220       113
59.230        93
59.240       113
59.250        80
59.260       127
59.270        93
59.280       113
59.290       120
59.300       133
59.310        73
59.320        80
59.330        87
59.340       107
59.350       113
59.360        53
59.370       127
59.380       107
59.390        93
59.400       107
59.410        93
59.420       107
59.430       113
59.440        53
59.450       113
59.460       107
59.470        80
59.480       153
59.490        80
59.500       107
59.510       140
59.520        73
59.530       107
59.540       133
59.550       120
59.560       113
59.570       120
59.580        80
59.590        73
59.600       120
59.610       127
59.620       127
59.630       113
59.640        87
59.650       100
59.660       133
59.670       107
59.680       147
59.690        67
59.700        73
59.710        73
59.720        80
59.730        73
59.740       107
59.750        67
59.760        80
59.770        80
59.780        93
59.790        93
59.800       100
59.810       153
59.820       113
59.830       120
59.840        80
59.850        47
59.860        73
59.870       133
59.880        60
59.890        80
59.900        93
59.910       200
59.920       107
59.930       107
59.940       120
59.950       107
59.960       113
59.970       107
59.980       167
59.990       127
60.000       100
