20.000        47
20.010        47
20.020        40
20.030        53
20.040        73
20.050        87
20.060        53
20.070        27
20.080        27
20.090        53
20.100        60
20.110        47
20.120        33
20.130        33
20.140        27
20.150        40
20.160        27
20.170        40
20.180        87
20.190        60
20.200        33
20.210        47
20.220        40
20.230        47
20.240        20
20.250        47
20.260        53
20.270       113
20.280        20
20.290        80
20.300        33
20.310        40
20.320        47
20.330        20
20.340        47
20.350        40
20.360        47
20.370        40
20.380        40
20.390        33
20.400        33
20.410        93
20.420        27
20.430        40
20.440        47
20.450        93
20.460        33
20.470        87
20.480        60
20.490        80
20.500        27
20.510        53
20.520        33
20.530        40
20.540        47
20.550        47
20.560        40
20.570        33
20.580        73
20.590        47
20.600        47
20.610        67
20.620        40
20.630        60
20.640        40
20.650        33
20.660        27
20.670        27
20.680        13
20.690        27
20.700        40
20.710        53
20.720        27
20.730        67
20.740        67
20.750        73
20.760         7
20.770        27
20.780        27
20.790        53
20.800        67
20.810        27
20.820        33
20.830        20
20.840        53
20.850        47
20.860        33
20.870        27
20.880        27
20.890        47
20.900        53
20.910        33
20.920        33
20.930        73
20.940        47
20.950        53
20.960        40
20.970        33
20.980        67
20.990        20
21.000        27
21.010        33
21.020        53
21.030        40
21.040        60
21.050        60
21.060        33
21.070        33
21.080        53
21.090        40
21.100        27
21.110        33
21.120        27
21.130        53
21.140        47
21.150        33
21.160        87
21.170        53
21.180        13
21.190        20
21.200        33
21.210        27
21.220        53
21.230        40
21.240        40
21.250        33
21.260        27
21.270        27
21.280        20
21.290        33
21.300        40
21.310        47
21.320        40
21.330        33
21.340        60
21.350        53
21.360        73
21.370        47
21.380        20
21.390        27
21.400        47
21.410        47
21.420        27
21.430        60
21.440        47
21.450        27
21.460        33
21.470        47
21.480        33
21.490        53
21.500        13
21.510        93
21.520        33
21.530        33
21.540        60
21.550        13
21.560        40
21.570        47
21.580        40
21.590        27
21.600        40
21.610        40
21.620        47
21.630        60
21.640        27
21.650        40
21.660        13
21.670        53
21.680        67
21.690        33
21.700        13
21.710        33
21.720        27
21.730        27
21.740        40
21.750        40
21.760        33
21.770        33
21.780        20
21.790        20
21.800        40
21.810        53
21.820        53
21.830        47
21.840        80
21.850        40
21.860        47
21.870        33
21.880        47
21.890        47
21.900        27
21.910        47
21.920        27
21.930        33
21.940        67
21.950        27
21.960        53
21.970        33
21.980        27
21.990        60
22.000        27
22.010        47
22.020        33
22.030        40
22.040        60
22.050        27
22.060        13
22.070        47
22.080        33
22.090        20
22.100        40
22.110        33
22.120        53
22.130         7
22.140        13
22.150        80
22.160        53
22.170        20
22.180        27
22.190        40
22.200        20
22.210        27
22.220        47
22.230        53
22.240        60
22.250        33
22.260        47
22.270        40
22.280        13
22.290        47
22.300        27
22.310        47
22.320        33
22.330        93
22.340        60
22.350        40
22.360        33
22.370        33
22.380        20
22.390        47
22.400        53
22.410        73
22.420        87
22.430        47
22.440        33
22.450        80
22.460        47
22.470        73
22.480        53
22.490        53
22.500       107
22.510       107
22.520        60
22.530        80
22.540       113
22.550        53
22.560       147
22.570        40
22.580        80
22.590       127
22.600       113
22.610        87
22.620        87
22.630       133
22.640       113
22.650       140
22.660        73
22.670        87
22.680       113
22.690       107
22.700       107
22.710       160
22.720       113
22.730       147
22.740       147
22.750       127
22.760       187
22.770       107
22.780       140
22.790       167
22.800       107
22.810        73
22.820       133
22.830        87
22.840        93
22.850        87
22.860       100
22.870       107
22.880        73
22.890        93
22.900        80
22.910        67
22.920        80
22.930        60
22.940        47
22.950        47
22.960        87
22.970        40
22.980        53
22.990        87
23.000        53
23.010        60
23.020        87
23.030        33
23.040        93
23.050       100
23.060        33
23.070       120
23.080        80
23.090       127
23.100       127
23.110       100
23.120        87
23.130        93
23.140        87
23.150        80
23.160        53
23.170        67
23.180        53
23.190        40
23.200        67
23.210        73
23.220        40
23.230        27
23.240        93
23.250        20
23.260        60
23.270        40
23.280        40
23.290        40
23.300        33
23.310        27
23.320        67
23.330        80
23.340        67
23.350        33
23.360        67
23.370        47
23.380        73
23.390        33
23.400        27
23.410        40
23.420        27
23.430        67
23.440        40
23.450        27
23.460        60
23.470        33
23.480        47
23.490        20
23.500        73
23.510        40
23.520        27
23.530        47
23.540        40
23.550        47
23.560        20
23.570        47
23.580        33
23.590        40
23.600        47
23.610        27
23.620        13
23.630        47
23.640        20
23.650        33
23.660        20
23.670        40
23.680        33
23.690        73
23.700        27
23.710        40
23.720        33
23.730        93
23.740        87
23.750        33
23.760        40
23.770        40
23.780        20
23.790        53
23.800        40
23.810        27
23.820        40
23.830        47
23.840        27
23.850        53
23.860        53
23.870        53
23.880        27
23.890        80
23.900        33
23.910        47
23.920        80
23.930        47
23.940        47
23.950        20
23.960        53
23.970        47
23.980        13
23.990        27
24.000        20
24.010        20
24.020        40
24.030        33
24.040        40
24.050        33
24.060        47
24.070        53
24.080        33
24.090        27
24.100        47
24.110        40
24.120        40
24.130        33
24.140        40
24.150        67
24.160        53
24.170        53
24.180        60
24.190        33
24.200        20
24.210        53
24.220        60
24.230        33
24.240        40
24.250        40
24.260        53
24.270        40
24.280        27
24.290        47
24.300        40
24.310        47
24.320        67
24.330        73
24.340        33
24.350        33
24.360        47
24.370        27
24.380        67
24.390        33
24.400        27
24.410        60
24.420        47
24.430        60
24.440        47
24.450        60
24.460        40
24.470        20
24.480        40
24.490        60
24.500        40
24.510        53
24.520        33
24.530        53
24.540        33
24.550        40
24.560        20
24.570        47
24.580        40
24.590        40
24.600        27
24.610        53
24.620        47
24.630        20
24.640        47
24.650        27
24.660        47
24.670        60
24.680        60
24.690        87
24.700        27
24.710        60
24.720        87
24.730        27
24.740        73
24.750       127
24.760        33
24.770        87
24.780       100
24.790        93
24.800        67
24.810       113
24.820       107
24.830        73
24.840        53
24.850        93
24.860        67
24.870        67
24.880       127
24.890        80
24.900        53
24.910       113
24.920        80
24.930        60
24.940       100
24.950        93
24.960        80
24.970        93
24.980       100
24.990       120
25.000        73
25.010       127
25.020       120
25.030       120
25.040       113
25.050       113
25.060        60
25.070       127
25.080       107
25.090        73
25.100        73
25.110       107
25.120        67
25.130       113
25.140       120
25.150        87
25.160       120
25.170       107
25.180       133
25.190        53
25.200       100
25.210       113
25.220       127
25.230        60
25.240       113
25.250       127
25.260       100
25.270       180
25.280       120
25.290       107
25.300       193
25.310        73
25.320       133
25.330       140
25.340       147
25.350       200
25.360       173
25.370       187
25.380       260
25.390       333
25.400       313
25.410       293
25.420       327
25.430       327
25.440       440
25.450       533
25.460       466
25.470       586
25.480       686
25.490       660
25.500       746
25.510       900
25.520       773
25.530      1060
25.540      1606
25.550      2586
25.560      3892
25.570      6297
25.580      8910
25.590     10143
25.600     11595
25.610     12688
25.620     12882
25.630     12502
25.640     10776
25.650      9156
25.660      8423
25.670      8123
25.680      8330
25.690      7950
25.700      6811
25.710      6284
25.720      4458
25.730      4185
25.740      3372
25.750      3279
25.760      2832
25.770      2712
25.780      2452
25.790      1979
25.800      1626
25.810      1313
25.820      1140
25.830       913
25.840       720
25.850       387
25.860       307
25.870       260
25.880       160
25.890       187
25.900       207
25.910       180
25.920       133
25.930       127
25.940       147
25.950       140
25.960       133
25.970       147
25.980        80
25.990       127
26.000       173
26.010       193
26.020       100
26.030       187
26.040       100
26.050       133
26.060       107
26.070       127
26.080       120
26.090        93
26.100       113
26.110       100
26.120       107
26.130        87
26.140       107
26.150        93
26.160        93
26.170       107
26.180       107
26.190        87
26.200       107
26.210        67
26.220       107
26.230       113
26.240        87
26.250        87
26.260        60
26.270        60
26.280       100
26.290        80
26.300        80
26.310        27
26.320       107
26.330        73
26.340        80
26.350        53
26.360       107
26.370       113
26.380        73
26.390       100
26.400        93
26.410       100
26.420        73
26.430        93
26.440        67
26.450       127
26.460       113
26.470        87
26.480        87
26.490        87
26.500        67
26.510        80
26.520        93
26.530        93
26.540        47
26.550        87
26.560       100
26.570        40
26.580       120
26.590        67
26.600        47
26.610        47
26.620        93
26.630       107
26.640        60
26.650       100
26.660       100
26.670        73
26.680        27
26.690        80
26.700        87
26.710        53
26.720        87
26.730       113
26.740        67
26.750        60
26.760        53
26.770       107
26.780        40
26.790       133
26.800       107
26.810        73
26.820        73
26.830       100
26.840        60
26.850        73
26.860        93
26.870        67
26.880       113
26.890        53
26.900        53
26.910        73
26.920        67
26.930       107
26.940        53
26.950        73
26.960       113
26.970        53
26.980       100
26.990        33
27.000        67
27.010        53
27.020        87
27.030        67
27.040       120
27.050        80
27.060        53
27.070        93
27.080       113
27.090       107
27.100       107
27.110        73
27.120        93
27.130       120
27.140        47
27.150        93
27.160       100
27.170        93
27.180        60
27.190        73
27.200        73
27.210       100
27.220        80
27.230        67
27.240        87
27.250       107
27.260        80
27.270       100
27.280        60
27.290        60
27.300        53
27.310        73
27.320        73
27.330        93
27.340        60
27.350       113
27.360       100
27.370       100
27.380        53
27.390        60
27.400        80
27.410        73
27.420       107
27.430        80
27.440        73
27.450       100
27.460        40
27.470        47
27.480        87
27.490        60
27.500        80
27.510        40
27.520        53
27.530        60
27.540        67
27.550        80
27.560       107
27.570        67
27.580       113
27.590        67
27.600        60
27.610        40
27.620        53
27.630        67
27.640        73
27.650        47
27.660        73
27.670       113
27.680        73
27.690        73
27.700       107
27.710       107
27.720        60
27.730       113
27.740        67
27.750        67
27.760        80
27.770       107
27.780        80
27.790        53
27.800        53
27.810       133
27.820        73
27.830        60
27.840        60
27.850        40
27.860       113
27.870        40
27.880        80
27.890        53
27.900        53
27.910        80
27.920        73
27.930        67
27.940        67
27.950        47
27.960        53
27.970        80
27.980        60
27.990        80
28.000        33
28.010        80
28.020        60
28.030        40
28.040        67
28.050        47
28.060        80
28.070        53
28.080        53
28.090        87
28.100        67
28.110       100
28.120        53
28.130        40
28.140        40
28.150        53
28.160        87
28.170       113
28.180        67
28.190        87
28.200        60
28.210        53
28.220        53
28.230        40
28.240        73
28.250        87
28.260       107
28.270        47
28.280        33
28.290        80
28.300        60
28.310        73
28.320       113
28.330        47
28.340        93
28.350        80
28.360        67
28.370        73
28.380        93
28.390       100
28.400        73
28.410        53
28.420        47
28.430        53
28.440        53
28.450        27
28.460        87
28.470        67
28.480        60
28.490        73
28.500        73
28.510        87
28.520        67
28.530        60
28.540        67
28.550       107
28.560        60
28.570        93
28.580        47
28.590       120
28.600        73
28.610        53
28.620        60
28.630        87
28.640        47
28.650        40
28.660        67
28.670        73
28.680        80
28.690        60
28.700        67
28.710        53
28.720        73
28.730        73
28.740        93
28.750        73
28.760        73
28.770        67
28.780        27
28.790        93
28.800        60
28.810        67
28.820        47
28.830        67
28.840        60
28.850        87
28.860        67
28.870        67
28.880        67
28.890       100
28.900        53
28.910        60
28.920        80
28.930        87
28.940        67
28.950        87
28.960        27
28.970        40
28.980        80
28.990        73
29.000        80
29.010        40
29.020        67
29.030        80
29.040        80
29.050        20
29.060        47
29.070        87
29.080       100
29.090        40
29.100        87
29.110        60
29.120        53
29.130       120
29.140        67
29.150        73
29.160        67
29.170        33
29.180        73
29.190        73
29.200        60
29.210        40
29.220        93
29.230        93
29.240        73
29.250        73
29.260        60
29.270       107
29.280        87
29.290       100
29.300        47
29.310       127
29.320        27
29.330        53
29.340        40
29.350       100
29.360        53
29.370        47
29.380        73
29.390        80
29.400       100
29.410        47
29.420        73
29.430        87
29.440       120
29.450        47
29.460       133
29.470        33
29.480        60
29.490       107
29.500       107
29.510        67
29.520        47
29.530        80
29.540       100
29.550       107
29.560        67
29.570        60
29.580        60
29.590        80
29.600        40
29.610       113
29.620        93
29.630        60
29.640        53
29.650        73
29.660        47
29.670        53
29.680        33
29.690       100
29.700        67
29.710       113
29.720        93
29.730        73
29.740        60
29.750        93
29.760        53
29.770        33
29.780       107
29.790        87
29.800        80
29.810       100
29.820       127
29.830        40
29.840        93
29.850       100
29.860        87
29.870        93
29.880       107
29.890       113
29.900        93
29.910        87
29.920        67
29.930        53
29.940       120
29.950       107
29.960        67
29.970       107
29.980        87
29.990        53
30.000       113
30.010        67
30.020        80
30.030        80
30.040        80
30.050        47
30.060        67
30.070        53
30.080        87
30.090        67
30.100        60
30.110        53
30.120        53
30.130       100
30.140        33
30.150        73
30.160        93
30.170       133
30.180        87
30.190        47
30.200        93
30.210        53
30.220        60
30.230        33
30.240        93
30.250        87
30.260        93
30.270        73
30.280       113
30.290        53
30.300       100
30.310        73
30.320        67
30.330        80
30.340       100
30.350        53
30.360        60
30.370        40
30.380        60
30.390        73
30.400       100
30.410        87
30.420       100
30.430       100
30.440        73
30.450        73
30.460        87
30.470        73
30.480        87
30.490        67
30.500        47
30.510       107
30.520        87
30.530        67
30.540        93
30.550        53
30.560        67
30.570        80
30.580       100
30.590        73
30.600        60
30.610        47
30.620        93
30.630       100
30.640        80
30.650        53
30.660       100
30.670        73
30.680        73
30.690        93
30.700        67
30.710        93
30.720        73
30.730        67
30.740        67
30.750       107
30.760       100
30.770        67
30.780        73
30.790        87
30.800        73
30.810        93
30.820        87
30.830        80
30.840        87
30.850        93
30.860        33
30.870       100
30.880        93
30.890        60
30.900        93
30.910        60
30.920        67
30.930        93
30.940        80
30.950        67
30.960        93
30.970        73
30.980       100
30.990        87
31.000       120
31.010       107
31.020        67
31.030        40
31.040        53
31.050       107
31.060        93
31.070       140
31.080        87
31.090        80
31.100        60
31.110        67
31.120       120
31.130       107
31.140        93
31.150        80
31.160        53
31.170        87
31.180       133
31.190       113
31.200       113
31.210        80
31.220        73
31.230       100
31.240        47
31.250        60
31.260       133
31.270        67
31.280       127
31.290        73
31.300        87
31.310        73
31.320       113
31.330        47
31.340       113
31.350        73
31.360        53
31.370       153
31.380       127
31.390        80
31.400        47
31.410       100
31.420        80
31.430        87
31.440       113
31.450        67
31.460        53
31.470        87
31.480        67
31.490        93
31.500        87
31.510        40
31.520        60
31.530        33
31.540        60
31.550        53
31.560        47
31.570        80
31.580        53
31.590        67
31.600        80
31.610        67
31.620        87
31.630        67
31.640        53
31.650        67
31.660       107
31.670        47
31.680        73
31.690        80
31.700       127
31.710        87
31.720        73
31.730        93
31.740        73
31.750        80
31.760       113
31.770        33
31.780        27
31.790        53
31.800        87
31.810        93
31.820        53
31.830       120
31.840        80
31.850        60
31.860        47
31.870        60
31.880        80
31.890       100
31.900       107
31.910        67
31.920        93
31.930        93
31.940       113
31.950        53
31.960       127
31.970       100
31.980        93
31.990        60
32.000        67
32.010       107
32.020        93
32.030       120
32.040        53
32.050       120
32.060        93
32.070       113
32.080        93
32.090        93
32.100       140
32.110       140
32.120       100
32.130        80
32.140        60
32.150        87
32.160       133
32.170       113
32.180       153
32.190        73
32.200       167
32.210       100
32.220       173
32.230       100
32.240       120
32.250       140
32.260        93
32.270       107
32.280       187
32.290       200
32.300       160
32.310       180
32.320       133
32.330       160
32.340       207
32.350       167
32.360       187
32.370       207
32.380       180
32.390       167
32.400       200
32.410       193
32.420       227
32.430       140
32.440       180
32.450       140
32.460       240
32.470       153
32.480       147
32.490       233
32.500       113
32.510       140
32.520       140
32.530       120
32.540       167
32.550       147
32.560       140
32.570       133
32.580       113
32.590       113
32.600       147
32.610       127
32.620       153
32.630       107
32.640       160
32.650       153
32.660        87
32.670        73
32.680       107
32.690       133
32.700       120
32.710        80
32.720       127
32.730       100
32.740       100
32.750        80
32.760       127
32.770       153
32.780        80
32.790        93
32.800        80
32.810        80
32.820       113
32.830        93
32.840        67
32.850       133
32.860        73
32.870       113
32.880        73
32.890        87
32.900       100
32.910        47
32.920        87
32.930       113
32.940        93
32.950        73
32.960        93
32.970       120
32.980        80
32.990        93
33.000       133
33.010       120
33.020        73
33.030        73
33.040        60
33.050        93
33.060        87
33.070       107
33.080        93
33.090        67
33.100        60
33.110        93
33.120        93
33.130       127
33.140        87
33.150       120
33.160        73
33.170       120
33.180       113
33.190        80
33.200        80
33.210        93
33.220        40
33.230        80
33.240       100
33.250        47
33.260        87
33.270       120
33.280        67
33.290        93
33.300        87
33.310        87
33.320       100
33.330       147
33.340        60
33.350       107
33.360        67
33.370        73
33.380        80
33.390       127
33.400        80
33.410       147
33.420       120
33.430       113
33.440        33
33.450        93
33.460       120
33.470       120
33.480       127
33.490       107
33.500        87
33.510       107
33.520       107
33.530        93
33.540       100
33.550        60
33.560       113
33.570        53
33.580       133
33.590        73
33.600        73
33.610        80
33.620        40
33.630        87
33.640        73
33.650       120
33.660        33
33.670        93
33.680        53
33.690        47
33.700        87
33.710       113
33.720       120
33.730       113
33.740        93
33.750       113
33.760        87
33.770        73
33.780       107
33.790        67
33.800        80
33.810       100
33.820        53
33.830       100
33.840        93
33.850       107
33.860        93
33.870       133
33.880       120
33.890        80
33.900       113
33.910        73
33.920       113
33.930       100
33.940        73
33.950        93
33.960        93
33.970        93
33.980        53
33.990       107
34.000        73
34.010        73
34.020        87
34.030        67
34.040       140
34.050       100
34.060       107
34.070       120
34.080       100
34.090        93
34.100        73
34.110        73
34.120       127
34.130        93
34.140        60
34.150        93
34.160        67
34.170        73
34.180        67
34.190       113
34.200        67
34.210        60
34.220       100
34.230        93
34.240        67
34.250        93
34.260       113
34.270       127
34.280       100
34.290       100
34.300       100
34.310        60
34.320        73
34.330        73
34.340        67
34.350        87
34.360        80
34.370        60
34.380       100
34.390        67
34.400        67
34.410        73
34.420       107
34.430       100
34.440        73
34.450        60
34.460        60
34.470        93
34.480        93
34.490        40
34.500       120
34.510       100
34.520        67
34.530        73
34.540        73
34.550        93
34.560       107
34.570       100
34.580        80
34.590        87
34.600        73
34.610        93
34.620        73
34.630        67
34.640        87
34.650        67
34.660        93
34.670        53
34.680       100
34.690        80
34.700        53
34.710        87
34.720       113
34.730        33
34.740        73
34.750       127
34.760        67
34.770       107
34.780        67
34.790       120
34.800       107
34.810        80
34.820       107
34.830        93
34.840        73
34.850        93
34.860       120
34.870        73
34.880        93
34.890        80
34.900        47
34.910       100
34.920        80
34.930        67
34.940        60
34.950        93
34.960        80
34.970       147
34.980        73
34.990        93
35.000        73
35.010        87
35.020        93
35.030        60
35.040        53
35.050       133
35.060        73
35.070        67
35.080        73
35.090        60
35.100       100
35.110        47
35.120        87
35.130       113
35.140       107
35.150        87
35.160        67
35.170       113
35.180        67
35.190        87
35.200        93
35.210       113
35.220       100
35.230        80
35.240        73
35.250       100
35.260        67
35.270        80
35.280        67
35.290        67
35.300        87
35.310        80
35.320        80
35.330        80
35.340        93
35.350        47
35.360       107
35.370        73
35.380        67
35.390        53
35.400        60
35.410        67
35.420        73
35.430        67
35.440        53
35.450        60
35.460       133
35.470        60
35.480        67
35.490        80
35.500       113
35.510       120
35.520        80
35.530        93
35.540        93
35.550       100
35.560        60
35.570        80
35.580        73
35.590        93
35.600        53
35.610       133
35.620        60
35.630        73
35.640       107
35.650        87
35.660        60
35.670        87
35.680        53
35.690        60
35.700        80
35.710        80
35.720       100
35.730       113
35.740        73
35.750        53
35.760       113
35.770        87
35.780        93
35.790       100
35.800        47
35.810        60
35.820        47
35.830        67
35.840        60
35.850        60
35.860        93
35.870       100
35.880        73
35.890        60
35.900       107
35.910        73
35.920       107
35.930       107
35.940        73
35.950        73
35.960        80
35.970        67
35.980        80
35.990        73
36.000        73
36.010        40
36.020        47
36.030        53
36.040       113
36.050        80
36.060       107
36.070        87
36.080        80
36.090        60
36.100        80
36.110        87
36.120        80
36.130        80
36.140        67
36.150        40
36.160        73
36.170        60
36.180        80
36.190        67
36.200        40
36.210        67
36.220        73
36.230        60
36.240        40
36.250        53
36.260        80
36.270        67
36.280        93
36.290        87
36.300        47
36.310        80
36.320        47
36.330       120
36.340        93
36.350        60
36.360        27
36.370        60
36.380        67
36.390        93
36.400        53
36.410        33
36.420        53
36.430        93
36.440        87
36.450        73
36.460        27
36.470        47
36.480        47
36.490       100
36.500        80
36.510        67
36.520        67
36.530        73
36.540        67
36.550        67
36.560        73
36.570        33
36.580        47
36.590        67
36.600        33
36.610        67
36.620        53
36.630        60
36.640        67
36.650        67
36.660        53
36.670        73
36.680        47
36.690        60
36.700        87
36.710        40
36.720        53
36.730        47
36.740        47
36.750        53
36.760        40
36.770        80
36.780        80
36.790        33
36.800        53
36.810        60
36.820        67
36.830        73
36.840        33
36.850        27
36.860        53
36.870        60
36.880        60
36.890        60
36.900        73
36.910        80
36.920        60
36.930        33
36.940        53
36.950        60
36.960        80
36.970        53
36.980        27
36.990        40
37.000        60
37.010        60
37.020        60
37.030        53
37.040        47
37.050        47
37.060        93
37.070        87
37.080        67
37.090        60
37.100        47
37.110        67
37.120        73
37.130        53
37.140        40
37.150        93
37.160        33
37.170       120
37.180        67
37.190        60
37.200        20
37.210        80
37.220        33
37.230        87
37.240        47
37.250        93
37.260        33
37.270        67
37.280        40
37.290        67
37.300        87
37.310        60
37.320        53
37.330        60
37.340        33
37.350        27
37.360        40
37.370        53
37.380        20
37.390        73
37.400        33
37.410        73
37.420        67
37.430        93
37.440        80
37.450        53
37.460        67
37.470        33
37.480        73
37.490        53
37.500        33
37.510        27
37.520        53
37.530        73
37.540        53
37.550        47
37.560        47
37.570        60
37.580        47
37.590       107
37.600        60
37.610        60
37.620        60
37.630        60
37.640        47
37.650        53
37.660        53
37.670        60
37.680        67
37.690        47
37.700        53
37.710        73
37.720        60
37.730        33
37.740        53
37.750        33
37.760        80
37.770        60
37.780        60
37.790        53
37.800        47
37.810        47
37.820        60
37.830        33
37.840        67
37.850        53
37.860        40
37.870        80
37.880        40
37.890        87
37.900        67
37.910        27
37.920        80
37.930        27
37.940        67
37.950       107
37.960        87
37.970        87
37.980        47
37.990        33
38.000        60
38.010        47
38.020        73
38.030        67
38.040        93
38.050        73
38.060        47
38.070        67
38.080        33
38.090        47
38.100        47
38.110        13
38.120        27
38.130        67
38.140        60
38.150        53
38.160        33
38.170        40
38.180        73
38.190        60
38.200        27
38.210        33
38.220        33
38.230        67
38.240        60
38.250        67
38.260        47
38.270        87
38.280        67
38.290        53
38.300        87
38.310        40
38.320        33
38.330        40
38.340        60
38.350        87
38.360        40
38.370        60
38.380        40
38.390        60
38.400        47
38.410        67
38.420        67
38.430        60
38.440        73
38.450        53
38.460        27
38.470        67
38.480        80
38.490        47
38.500        20
38.510        47
38.520        67
38.530        27
38.540        60
38.550        13
38.560        60
38.570        67
38.580        47
38.590        20
38.600        53
38.610        53
38.620        27
38.630        33
38.640        40
38.650        60
38.660       100
38.670        40
38.680        73
38.690        53
38.700        40
38.710        53
38.720        40
38.730        47
38.740        20
38.750        27
38.760        53
38.770        33
38.780        80
38.790        40
38.800        53
38.810         7
38.820        47
38.830        73
38.840        33
38.850        60
38.860        33
38.870        47
38.880        47
38.890        47
38.900        87
38.910        33
38.920        33
38.930        73
38.940        40
38.950        60
38.960        60
38.970        40
38.980        27
38.990        33
39.000        27
39.010        27
39.020        33
39.030        73
39.040        40
39.050        67
39.060        80
39.070        47
39.080        73
39.090        93
39.100        60
39.110        27
39.120        20
39.130        60
39.140        40
39.150        47
39.160        27
39.170       113
39.180        87
39.190        60
39.200        13
39.210        80
39.220        40
39.230        27
39.240        53
39.250        80
39.260        60
39.270        47
39.280        33
39.290        60
39.300        53
39.310        33
39.320        20
39.330        60
39.340        47
39.350        33
39.360        40
39.370        40
39.380        33
39.390        67
39.400        47
39.410        40
39.420        20
39.430        93
39.440        60
39.450        33
39.460        33
39.470        40
39.480        40
39.490        33
39.500        53
39.510        53
39.520        67
39.530        40
39.540        47
39.550        40
39.560        33
39.570        40
39.580        53
39.590        60
39.600        33
39.610        40
39.620        47
39.630        20
39.640        27
39.650        87
39.660        20
39.670        53
39.680        27
39.690        33
39.700        47
39.710        27
39.720        53
39.730        53
39.740        47
39.750        60
39.760        33
39.770        33
39.780        27
39.790        53
39.800        53
39.810        53
39.820        53
39.830        53
39.840        53
39.850        40
39.860        27
39.870        60
39.880        13
39.890        40
39.900        33
39.910        60
39.920        40
39.930        67
39.940        40
39.950        33
39.960        20
39.970        40
39.980        73
39.990        53
40.000        27
40.010        60
40.020        20
40.030        47
40.040        53
40.050       100
40.060        33
40.070        33
40.080        47
40.090        93
40.100        33
40.110        33
40.120        33
40.130        53
40.140        20
40.150        53
40.160        60
40.170        47
40.180        33
40.190        27
40.200        33
40.210        67
40.220        47
40.230        27
40.240         7
40.250        53
40.260        53
40.270        47
40.280        53
40.290        40
40.300        47
40.310        13
40.320        33
40.330        40
40.340        33
40.350        20
40.360        40
40.370        27
40.380        33
40.390        60
40.400        60
40.410        47
40.420        27
40.430        20
40.440        40
40.450        40
40.460        20
40.470        40
40.480        27
40.490        27
40.500        47
40.510        53
40.520        33
40.530        53
40.540        20
40.550        67
40.560        47
40.570        40
40.580        33
40.590        47
40.600        40
40.610        73
40.620        53
40.630        47
40.640        47
40.650        13
40.660        27
40.670        73
40.680        53
40.690        40
40.700        20
40.710        33
40.720        47
40.730        20
40.740        47
40.750        60
40.760        33
40.770        40
40.780        40
40.790        40
40.800        20
40.810        40
40.820        47
40.830        27
40.840        53
40.850        47
40.860        33
40.870        47
40.880        47
40.890        33
40.900        40
40.910        33
40.920        80
40.930        13
40.940        20
40.950        27
40.960        33
40.970        60
40.980        40
40.990        33
41.000        73
41.010        40
41.020        47
41.030        47
41.040        20
41.050        33
41.060        20
41.070        47
41.080        60
41.090        60
41.100        40
41.110        67
41.120        20
41.130        47
41.140        40
41.150        13
41.160        33
41.170         7
41.180        40
41.190        13
41.200        53
41.210        20
41.220        47
41.230        60
41.240        20
41.250        27
41.260        27
41.270        47
41.280        47
41.290        67
41.300        47
41.310        47
41.320        27
41.330        53
41.340        47
41.350        33
41.360        47
41.370        40
41.380        33
41.390        20
41.400        60
41.410        27
41.420        40
41.430        67
41.440        33
41.450        33
41.460        40
41.470        47
41.480        40
41.490        47
41.500        47
41.510        27
41.520        33
41.530        47
41.540        40
41.550        47
41.560        47
41.570        40
41.580        40
41.590        53
41.600        47
41.610        27
41.620        40
41.630        33
41.640        67
41.650        60
41.660        80
41.670        53
41.680        47
41.690        27
41.700        27
41.710        33
41.720        47
41.730        53
41.740        53
41.750        60
41.760        47
41.770        47
41.780        60
41.790        27
41.800        47
41.810        27
41.820        27
41.830        27
41.840        40
41.850        53
41.860        40
41.870       107
41.880        73
41.890        60
41.900        40
41.910        20
41.920        47
41.930        20
41.940        47
41.950        33
41.960        20
41.970        53
41.980        80
41.990        27
42.000        20
42.010        33
42.020        40
42.030        40
42.040        73
42.050        27
42.060        53
42.070        40
42.080        27
42.090        53
42.100        27
42.110        53
42.120        80
42.130        73
42.140        47
42.150        40
42.160        67
42.170        40
42.180        20
42.190        13
42.200        20
42.210        47
42.220        40
42.230        60
42.240       100
42.250        47
42.260        33
42.270        53
42.280        53
42.290        33
42.300        27
42.310        40
42.320        33
42.330        40
42.340        53
42.350        53
42.360        33
42.370        20
42.380        27
42.390        73
42.400        40
42.410        47
42.420        47
42.430        47
42.440        33
42.450        60
42.460        47
42.470        27
42.480        33
42.490        33
42.500        47
42.510        40
42.520        13
42.530        40
42.540        20
42.550        40
42.560        47
42.570        33
42.580        40
42.590        67
42.600        47
42.610        47
42.620        60
42.630        47
42.640        20
42.650        47
42.660        33
42.670        33
42.680        53
42.690        47
42.700        47
42.710        40
42.720        47
42.730        47
42.740        87
42.750        33
42.760        27
42.770        40
42.780        33
42.790        27
42.800        20
42.810        40
42.820        47
42.830        47
42.840        60
42.850        27
42.860        40
42.870        87
42.880        40
42.890        67
42.900        60
42.910        33
42.920        53
42.930        27
42.940        13
42.950        40
42.960        33
42.970        53
42.980        40
42.990        67
43.000        40
43.010        67
43.020        33
43.030        73
43.040        73
43.050        13
43.060        33
43.070        20
43.080        33
43.090        13
43.100        33
43.110        47
43.120        53
43.130        60
43.140        47
43.150        40
43.160        40
43.170        20
43.180        47
43.190        27
43.200        33
43.210        53
43.220        47
43.230        33
43.240        47
43.250        53
43.260        27
43.270        40
43.280        67
43.290        40
43.300        53
43.310        80
43.320        27
43.330        53
43.340        33
43.350        33
43.360        47
43.370        33
43.380        60
43.390        60
43.400        80
43.410        33
43.420        20
43.430        27
43.440        40
43.450        33
43.460        80
43.470        47
43.480        47
43.490        53
43.500        47
43.510        67
43.520        33
43.530        47
43.540        53
43.550        13
43.560        40
43.570        53
43.580        40
43.590        73
43.600        47
43.610        67
43.620        27
43.630        40
43.640        33
43.650        87
43.660        47
43.670        33
43.680        33
43.690        40
43.700        53
43.710        53
43.720        27
43.730        47
43.740        47
43.750        40
43.760        40
43.770        33
43.780        87
43.790        20
43.800        27
43.810        40
43.820        40
43.830        53
43.840        40
43.850        47
43.860        33
43.870        53
43.880        20
43.890        33
43.900        40
43.910        47
43.920        47
43.930        40
43.940        33
43.950        27
43.960        27
43.970        47
43.980        20
43.990        33
44.000        33
44.010        40
44.020        67
44.030        60
44.040        27
44.050        40
44.060        33
44.070        47
44.080        47
44.090        40
44.100        53
44.110        27
44.120        27
44.130        27
44.140        67
44.150        47
44.160        40
44.170        53
44.180        40
44.190        20
44.200        47
44.210        33
44.220        27
44.230        27
44.240        40
44.250       113
44.260        40
44.270        33
44.280        33
44.290        40
44.300        20
44.310         7
44.320        40
44.330        47
44.340        20
44.350        67
44.360        40
44.370        27
44.380        47
44.390        47
44.400        33
44.410        47
44.420        33
44.430        47
44.440        47
44.450        73
44.460        40
44.470        47
44.480        40
44.490        73
44.500        67
44.510        40
44.520        40
44.530        33
44.540        47
44.550        73
44.560        60
44.570        60
44.580        53
44.590        27
44.600        33
44.610        53
44.620        73
44.630        47
44.640        73
44.650        40
44.660        67
44.670        67
44.680        47
44.690        40
44.700        53
44.710        53
44.720        47
44.730        47
44.740        67
44.750        47
44.760        60
44.770        47
44.780        60
44.790        67
44.800        47
44.810        67
44.820        40
44.830        67
44.840        87
44.850       107
44.860        93
44.870        73
44.880        87
44.890        67
44.900        40
44.910        47
44.920        53
44.930        73
44.940        93
44.950        73
44.960        80
44.970        67
44.980        40
44.990        40
45.000        53
45.010        47
45.020        60
45.030        53
45.040        47
45.050        40
45.060        40
45.070        33
45.080        67
45.090        53
45.100        47
45.110        47
45.120        73
45.130        53
45.140        67
45.150        33
45.160        67
45.170        47
45.180        73
45.190        80
45.200        40
45.210        67
45.220        53
45.230        53
45.240        73
45.250        73
45.260        73
45.270        80
45.280        47
45.290        60
45.300        53
45.310        40
45.320        73
45.330        67
45.340        73
45.350        73
45.360        47
45.370        73
45.380        60
45.390        67
45.400        67
45.410        40
45.420        53
45.430        80
45.440        87
45.450       127
45.460        93
45.470       113
45.480        87
45.490        80
45.500        80
45.510        93
45.520       113
45.530        87
45.540        80
45.550       100
45.560        87
45.570       100
45.580       133
45.590       100
45.600       147
45.610       113
45.620       100
45.630       133
45.640       173
45.650       153
45.660       153
45.670       107
45.680       160
45.690       100
45.700       187
45.710       147
45.720       207
45.730       147
45.740       140
45.750       173
45.760       147
45.770       180
45.780       260
45.790       180
45.800       227
45.810       280
45.820       187
45.830       207
45.840       287
45.850       273
45.860       227
45.870       360
45.880       307
45.890       213
45.900       160
45.910       340
45.920       347
45.930       287
45.940       387
45.950       307
45.960       387
45.970       413
45.980       433
45.990       367
46.000       506
46.010       433
46.020       440
46.030       433
46.040       446
46.050       460
46.060       453
46.070       506
46.080       586
46.090       580
46.100       686
46.110       573
46.120       653
46.130       586
46.140       626
46.150       566
46.160       740
46.170       740
46.180       693
46.190       626
46.200       646
46.210       760
46.220       666
46.230       773
46.240       786
46.250       700
46.260       733
46.270       733
46.280       846
46.290       740
46.300       780
46.310       680
46.320       760
46.330       733
46.340       806
46.350       766
46.360       753
46.370       626
46.380       760
46.390       620
46.400       726
46.410       666
46.420       766
46.430       726
46.440       680
46.450       673
46.460       573
46.470       606
46.480       613
46.490       633
46.500       513
46.510       653
46.520       640
46.530       540
46.540       560
46.550       593
46.560       573
46.570       433
46.580       553
46.590       446
46.600       413
46.610       486
46.620       440
46.630       413
46.640       367
46.650       460
46.660       327
46.670       333
46.680       287
46.690       273
46.700       353
46.710       167
46.720       307
46.730       260
46.740       267
46.750       233
46.760       287
46.770       280
46.780       240
46.790       207
46.800       300
46.810       287
46.820       267
46.830       247
46.840       233
46.850       233
46.860       220
46.870       213
46.880       167
46.890       200
46.900       213
46.910       207
46.920       133
46.930       207
46.940       113
46.950       187
46.960       140
46.970       167
46.980       193
46.990       147
47.000       147
47.010       127
47.020       160
47.030       120
47.040       173
47.050       220
47.060       247
47.070       187
47.080       187
47.090       193
47.100       267
47.110       353
47.120       446
47.130       473
47.140       760
47.150       740
47.160      1319
47.170      1539
47.180      1699
47.190      1746
47.200      1606
47.210      1666
47.220      1366
47.230       933
47.240       666
47.250       640
47.260       407
47.270       393
47.280       327
47.290       187
47.300       253
47.310       187
47.320       260
47.330       227
47.340       127
47.350       167
47.360       160
47.370        93
47.380       113
47.390       147
47.400        80
47.410        67
47.420        80
47.430       113
47.440        60
47.450       100
47.460        73
47.470       133
47.480       107
47.490        93
47.500       107
47.510        67
47.520       107
47.530       100
47.540        73
47.550        53
47.560       100
47.570       107
47.580       100
47.590        80
47.600       120
47.610       113
47.620        80
47.630        67
47.640       100
47.650        40
47.660        73
47.670        67
47.680        87
47.690        67
47.700        40
47.710        73
47.720        87
47.730        47
47.740        60
47.750       113
47.760       100
47.770        60
47.780       100
47.790        93
47.800        67
47.810       100
47.820        93
47.830        67
47.840        67
47.850       100
47.860        87
47.870        47
47.880        93
47.890        60
47.900        60
47.910        93
47.920        67
47.930       120
47.940        53
47.950        53
47.960        20
47.970        53
47.980        80
47.990        87
48.000        53
48.010        93
48.020        33
48.030        27
48.040        73
48.050        47
48.060        60
48.070        60
48.080        60
48.090        53
48.100        47
48.110        47
48.120        40
48.130        47
48.140        67
48.150        60
48.160        53
48.170        67
48.180        53
48.190        80
48.200        67
48.210        53
48.220        73
48.230        60
48.240        73
48.250        60
48.260        67
48.270        20
48.280       107
48.290        93
48.300        47
48.310       100
48.320        67
48.330        60
48.340        60
48.350        80
48.360        53
48.370        60
48.380        53
48.390        67
48.400        60
48.410       113
48.420       107
48.430        73
48.440        47
48.450        47
48.460        47
48.470        47
48.480        73
48.490       107
48.500        67
48.510        40
48.520        13
48.530        33
48.540        73
48.550        53
48.560        47
48.570        40
48.580       100
48.590        47
48.600        80
48.610        33
48.620        33
48.630        27
48.640        33
48.650        67
48.660        67
48.670        87
48.680        53
48.690        27
48.700        87
48.710        67
48.720        40
48.730        47
48.740        47
48.750        60
48.760        80
48.770        67
48.780        33
48.790        47
48.800        33
48.810        47
48.820        47
48.830        33
48.840        33
48.850        33
48.860        67
48.870        67
48.880        93
48.890        47
48.900        80
48.910        40
48.920        73
48.930        47
48.940        60
48.950        67
48.960        47
48.970        40
48.980        27
48.990        40
49.000        53
49.010        53
49.020        47
49.030        87
49.040        47
49.050        67
49.060        53
49.070        67
49.080        27
49.090        67
49.100        80
49.110        47
49.120        47
49.130        20
49.140        47
49.150        53
49.160        67
49.170        67
49.180        53
49.190        80
49.200        93
49.210        60
49.220        53
49.230        60
49.240        47
49.250       100
49.260        40
49.270        53
49.280        73
49.290        67
49.300        67
49.310        53
49.320        47
49.330        53
49.340        60
49.350        40
49.360        80
49.370        80
49.380        67
49.390        53
49.400        40
49.410        47
49.420        93
49.430       107
49.440        20
49.450        20
49.460        33
49.470        47
49.480        80
49.490        27
49.500        80
49.510        67
49.520        27
49.530        33
49.540        40
49.550        47
49.560        47
49.570       100
49.580        33
49.590        40
49.600        27
49.610        40
49.620        40
49.630        40
49.640        40
49.650        53
49.660        53
49.670        67
49.680        40
49.690        60
49.700        60
49.710        53
49.720        53
49.730        40
49.740        87
49.750        47
49.760        60
49.770        67
49.780        13
49.790        53
49.800        73
49.810        40
49.820        27
49.830        60
49.840        67
49.850        47
49.860        67
49.870        27
49.880        33
49.890        53
49.900        93
49.910        60
49.920        47
49.930        80
49.940        60
49.950        80
49.960        73
49.970        53
49.980        40
49.990        53
50.000        33
50.010        47
50.020        80
50.030        60
50.040        47
50.050        60
50.060        47
50.070        33
50.080        40
50.090        40
50.100        73
50.110        60
50.120        40
50.130        40
50.140        27
50.150        87
50.160        60
50.170        53
50.180        53
50.190        67
50.200        53
50.210        33
50.220        47
50.230        60
50.240        60
50.250        33
50.260        47
50.270        33
50.280        53
50.290        73
50.300        60
50.310        13
50.320        27
50.330        33
50.340        27
50.350        53
50.360        40
50.370        73
50.380        60
50.390        13
50.400        33
50.410        67
50.420        60
50.430        20
50.440        53
50.450        73
50.460        60
50.470        60
50.480        67
50.490        73
50.500        40
50.510        67
50.520        73
50.530        47
50.540        60
50.550        87
50.560        60
50.570        47
50.580        93
50.590        60
50.600        80
50.610        67
50.620       113
50.630       127
50.640       153
50.650       147
50.660       140
50.670       293
50.680       300
50.690       240
50.700       300
50.710       373
50.720       347
50.730       340
50.740       413
50.750       307
50.760       426
50.770       446
50.780       420
50.790       413
50.800       233
50.810       400
50.820       380
50.830       313
50.840       426
50.850       473
50.860       513
50.870       367
50.880       393
50.890       360
50.900       340
50.910       353
50.920       380
50.930       320
50.940       367
50.950       360
50.960       300
50.970       333
50.980       360
50.990       380
51.000       400
51.010       393
51.020       347
51.030       380
51.040       367
51.050       426
51.060       360
51.070       400
51.080       273
51.090       453
51.100       413
51.110       300
51.120       400
51.130       413
51.140       426
51.150       293
51.160       347
51.170       360
51.180       460
51.190       320
51.200       407
51.210       433
51.220       387
51.230       347
51.240       407
51.250       426
51.260       347
51.270       360
51.280       313
51.290       340
51.300       446
51.310       420
51.320       387
51.330       307
51.340       460
51.350       400
51.360       407
51.370       360
51.380       267
51.390       307
51.400       380
51.410       400
51.420       347
51.430       440
51.440       320
51.450       340
51.460       460
51.470       360
51.480       353
51.490       446
51.500       373
51.510       407
51.520       393
51.530       360
51.540       340
51.550       307
51.560       327
51.570       387
51.580       360
51.590       460
51.600       353
51.610       353
51.620       413
51.630       440
51.640       313
51.650       327
51.660       367
51.670       440
51.680       360
51.690       407
51.700       393
51.710       460
51.720       307
51.730       460
51.740       380
51.750       360
51.760       513
51.770       413
51.780       420
51.790       333
51.800       426
51.810       440
51.820       446
51.830       413
51.840       440
51.850       566
51.860       553
51.870       440
51.880       440
51.890       420
51.900       493
51.910       340
51.920       520
51.930       453
51.940       593
51.950       426
51.960       420
51.970       433
51.980       440
51.990       473
52.000       500
52.010       433
52.020       520
52.030       606
52.040       426
52.050       426
52.060       586
52.070       600
52.080       506
52.090       493
52.100       580
52.110       706
52.120       580
52.130       653
52.140       726
52.150       720
52.160       713
52.170       586
52.180       853
52.190       800
52.200       853
52.210       840
52.220       900
52.230       973
52.240       926
52.250      1100
52.260      1273
52.270      1413
52.280      1359
52.290      1779
52.300      1833
52.310      1793
52.320      2386
52.330      2559
52.340      2786
52.350      2945
52.360      2945
52.370      2959
52.380      3125
52.390      3079
52.400      2999
52.410      2965
52.420      3532
52.430      3832
52.440      4325
52.450      5051
52.460      6044
52.470      7124
52.480      8643
52.490     10469
52.500     13794
52.510     17700
52.520     24697
52.530     37812
52.540     58843
52.550     87192
52.560    116327
52.570    139391
52.580    149913
52.590    155891
52.600    155484
52.610    145808
52.620    126309
52.630     95968
52.640     65847
52.650     44622
52.660     35159
52.670     35213
52.680     44016
52.690     56977
52.700     72178
52.710     83567
52.720     89398
52.730     90331
52.740     88984
52.750     81747
52.760     65947
52.770     49913
52.780     33660
52.790     21825
52.800     15214
52.810     10782
52.820      8623
52.830      8043
52.840      6964
52.850      6377
52.860      5818
52.870      4918
52.880      4512
52.890      3485
52.900      3145
52.910      2732
52.920      2092
52.930      1953
52.940      1686
52.950      1653
52.960      1439
52.970      1153
52.980      1286
52.990      1279
53.000      1120
53.010      1113
53.020      1073
53.030       940
53.040      1053
53.050       993
53.060       733
53.070       813
53.080       906
53.090       853
53.100       653
53.110       666
53.120       733
53.130       673
53.140       686
53.150       666
53.160       693
53.170       573
53.180       740
53.190       680
53.200       553
53.210       566
53.220       480
53.230       600
53.240       480
53.250       500
53.260       566
53.270       640
53.280       520
53.290       653
53.300       480
53.310       480
53.320       520
53.330       553
53.340       513
53.350       506
53.360       440
53.370       573
53.380       493
53.390       626
53.400       426
53.410       500
53.420       453
53.430       367
53.440       493
53.450       546
53.460       440
53.470       440
53.480       407
53.490       413
53.500       426
53.510       426
53.520       446
53.530       367
53.540       380
53.550       440
53.560       387
53.570       360
53.580       313
53.590       307
53.600       293
53.610       400
53.620       347
53.630       393
53.640       313
53.650       400
53.660       380
53.670       373
53.680       460
53.690       253
53.700       360
53.710       360
53.720       340
53.730       253
53.740       307
53.750       340
53.760       307
53.770       407
53.780       413
53.790       393
53.800       367
53.810       347
53.820       407
53.830       300
53.840       247
53.850       307
53.860       340
53.870       267
53.880       373
53.890       267
53.900       287
53.910       233
53.920       327
53.930       333
53.940       320
53.950       287
53.960       300
53.970       367
53.980       320
53.990       247
54.000       220
54.010       287
54.020       293
54.030       267
54.040       273
54.050       327
54.060       247
54.070       247
54.080       287
54.090       247
54.100       307
54.110       307
54.120       327
54.130       380
54.140       360
54.150       213
54.160       313
54.170       200
54.180       307
54.190       300
54.200       207
54.210       227
54.220       273
54.230       233
54.240       280
54.250       293
54.260       347
54.270       233
54.280       273
54.290       267
54.300       287
54.310       247
54.320       287
54.330       220
54.340       280
54.350       220
54.360       220
54.370       247
54.380       260
54.390       327
54.400       307
54.410       273
54.420       267
54.430       300
54.440       313
54.450       293
54.460       240
54.470       300
54.480       307
54.490       273
54.500       333
54.510       220
54.520       213
54.530       327
54.540       287
54.550       227
54.560       267
54.570       260
54.580       273
54.590       167
54.600       287
54.610       273
54.620       247
54.630       247
54.640       180
54.650       187
54.660       173
54.670       293
54.680       227
54.690       200
54.700       213
54.710       253
54.720       247
54.730       247
54.740       213
54.750       247
54.760       213
54.770       180
54.780       233
54.790       227
54.800       267
54.810       253
54.820       267
54.830       233
54.840       180
54.850       227
54.860       213
54.870       140
54.880       160
54.890       193
54.900       280
54.910       233
54.920       180
54.930       173
54.940       220
54.950       213
54.960       240
54.970       167
54.980       193
54.990       233
55.000       227
55.010       240
55.020       187
55.030       167
55.040       187
55.050       220
55.060       193
55.070       273
55.080       187
55.090       220
55.100       187
55.110       207
55.120       147
55.130       227
55.140       253
55.150       207
55.160       247
55.170       240
55.180       247
55.190       260
55.200       287
55.210       187
55.220       227
55.230       233
55.240       167
55.250       213
55.260       233
55.270       193
55.280       180
55.290       200
55.300       213
55.310       180
55.320       213
55.330       227
55.340       233
55.350       240
55.360       180
55.370       280
55.380       187
55.390       233
55.400       213
55.410       147
55.420       247
55.430       233
55.440       287
55.450       200
55.460       167
55.470       227
55.480       140
55.490       167
55.500       180
55.510       180
55.520       140
55.530       207
55.540       233
55.550       267
55.560       200
55.570       193
55.580       193
55.590       147
55.600       167
55.610       200
55.620       253
55.630       187
55.640       167
55.650       240
55.660       160
55.670       173
55.680       193
55.690       153
55.700       233
55.710       213
55.720       207
55.730       180
55.740       200
55.750       233
55.760       160
55.770       200
55.780       220
55.790       213
55.800       213
55.810       140
55.820       187
55.830       147
55.840       207
55.850       207
55.860       187
55.870       220
55.880       213
55.890       140
55.900       147
55.910       153
55.920       220
55.930       213
55.940       247
55.950       187
55.960       213
55.970       147
55.980       180
55.990       160
56.000       180
56.010       173
56.020       200
56.030       140
56.040       187
56.050       213
56.060       193
56.070       180
56.080       200
56.090       147
56.100       160
56.110       167
56.120       187
56.130       173
56.140       200
56.150       153
56.160       173
56.170       160
56.180       153
56.190       167
56.200       207
56.210       167
56.220       127
56.230       120
56.240       160
56.250       193
56.260       147
56.270       173
56.280       247
56.290       160
56.300       153
56.310       193
56.320       127
56.330       173
56.340       127
56.350       200
56.360       100
56.370       147
56.380       173
56.390       173
56.400       193
56.410       167
56.420       167
56.430       220
56.440       127
56.450       213
56.460       213
56.470       180
56.480       213
56.490       187
56.500       140
56.510       153
56.520       127
56.530       193
56.540       233
56.550       160
56.560       220
56.570       193
56.580       153
56.590       120
56.600       173
56.610       147
56.620       200
56.630       180
56.640       140
56.650       180
56.660       233
56.670       173
56.680       140
56.690       120
56.700       220
56.710       153
56.720       120
56.730       187
56.740       140
56.750       213
56.760       173
56.770       173
56.780       153
56.790       147
56.800       173
56.810       180
56.820       120
56.830       153
56.840       127
56.850       187
56.860       127
56.870       107
56.880       147
56.890       193
56.900       127
56.910       187
56.920       167
56.930       147
56.940       160
56.950       187
56.960       180
56.970       200
56.980       187
56.990       173
57.000       173
57.010       107
57.020       173
57.030       193
57.040       147
57.050       133
57.060        87
57.070       213
57.080        93
57.090       187
57.100        93
57.110       140
57.120       167
57.130       140
57.140       140
57.150       120
57.160       167
57.170       180
57.180       147
57.190       187
57.200       147
57.210       167
57.220       113
57.230       160
57.240       153
57.250       200
57.260       167
57.270        93
57.280       160
57.290       173
57.300       147
57.310       153
57.320        93
57.330       173
57.340       120
57.350       120
57.360       180
57.370       147
57.380       160
57.390       140
57.400       127
57.410       113
57.420       133
57.430       200
57.440       147
57.450       153
57.460       153
57.470       207
57.480       153
57.490       200
57.500       173
57.510       120
57.520       153
57.530       167
57.540       127
57.550       173
57.560       147
57.570       153
57.580       200
57.590       120
57.600       173
57.610       173
57.620       187
57.630       167
57.640       180
57.650       173
57.660       153
57.670       133
57.680       107
57.690       173
57.700       140
57.710       113
57.720       207
57.730       187
57.740       120
57.750       113
57.760       180
57.770       127
57.780       167
57.790       167
57.800       133
57.810       153
57.820       160
57.830       180
57.840       180
57.850       147
57.860       147
57.870       167
57.880       147
57.890       147
57.900       213
57.910       127
57.920       133
57.930       147
57.940       153
57.950       133
57.960       173
57.970       120
57.980       127
57.990       133
58.000        87
58.010       113
58.020       173
58.030       133
58.040       140
58.050       160
58.060       153
58.070       147
58.080       133
58.090       107
58.100        73
58.110       193
58.120       147
58.130       120
58.140       180
58.150       187
58.160       113
58.170       127
58.180       133
58.190       167
58.200       140
58.210       100
58.220       133
58.230       120
58.240       160
58.250       153
58.260       107
58.270       127
58.280        93
58.290       187
58.300       193
58.310       147
58.320       107
58.330       120
58.340       180
58.350       140
58.360       160
58.370        93
58.380        87
58.390       113
58.400       107
58.410       100
58.420       120
58.430       127
58.440       173
58.450       100
58.460       153
58.470       107
58.480       113
58.490       187
58.500       167
58.510       127
58.520       140
58.530       127
58.540       107
58.550       113
58.560       113
58.570       127
58.580       133
58.590        93
58.600       133
58.610       100
58.620       147
58.630       140
58.640       180
58.650       133
58.660       160
58.670       140
58.680       133
58.690       107
58.700       193
58.710       207
58.720       120
58.730       180
58.740       100
58.750       153
58.760       160
58.770       113
58.780       173
58.790       113
58.800        87
58.810       120
58.820       187
58.830       127
58.840       133
58.850       140
58.860       107
58.870       120
58.880       107
58.890       120
58.900       133
58.910       187
58.920       140
58.930       180
58.940       100
58.950       147
58.960       120
58.970       120
58.980        80
58.990       133
59.000        93
59.010       100
59.020       120
59.030       113
59.040        93
59.050       133
59.060        73
59.070       113
59.080        93
59.090       127
59.100       180
59.110        93
59.120       140
59.130        80
59.140       113
59.150       167
59.160       127
59.170       140
59.180        73
59.190       167
59.200       167
59.210       107
59.220       127
59.230       100
59.240       167
59.250       153
59.260       113
59.270       120
59.280       153
59.290       107
59.300       113
59.310        80
59.320       120
59.330       120
59.340       107
59.350       147
59.360       140
59.370       120
59.380       140
59.390       120
59.400       140
59.410       140
59.420       127
59.430       153
59.440        60
59.450        93
59.460       107
59.470        67
59.480       100
59.490        67
59.500       127
59.510       113
59.520       140
59.530       127
59.540       127
59.550        60
59.560       113
59.570       140
59.580       180
59.590       113
59.600       107
59.610        93
59.620       127
59.630       100
59.640       107
59.650       113
59.660       133
59.670       153
59.680       180
59.690       113
59.700        67
59.710        93
59.720       113
59.730        73
59.740       107
59.750       113
59.760       160
59.770       107
59.780       120
59.790       100
59.800       113
59.810        80
59.820       133
59.830        47
59.840       153
59.850        87
59.860       127
59.870       107
59.880       153
59.890       107
59.900       200
59.910       113
59.920        73
59.930       133
59.940       167
59.950       140
59.960       133
59.970       100
59.980       127
59.990        67
60.000       133
