20.000         0
20.010         0
20.020        47
20.030        33
20.040        47
20.050        60
20.060        40
20.070        27
20.080        47
20.090        53
20.100        27
20.110        47
20.120        27
20.130        27
20.140        60
20.150        27
20.160        40
20.170        67
20.180        73
20.190         0
20.200        33
20.210        20
20.220         7
20.230        47
20.240        53
20.250        73
20.260        53
20.270        47
20.280        33
20.290        40
20.300        20
20.310        47
20.320        80
20.330        27
20.340        27
20.350        47
20.360        27
20.370        40
20.380        33
20.390        67
20.400        47
20.410        60
20.420        47
20.430        40
20.440        20
20.450        53
20.460        33
20.470        33
20.480        20
20.490        27
20.500        47
20.510        33
20.520        13
20.530        47
20.540        33
20.550        80
20.560        40
20.570        73
20.580        40
20.590       167
20.600        40
20.610        27
20.620        47
20.630        33
20.640        40
20.650        27
20.660        53
20.670        60
20.680        47
20.690        47
20.700        13
20.710        40
20.720        47
20.730        33
20.740        20
20.750        80
20.760        47
20.770        40
20.780        60
20.790        47
20.800         0
20.810        67
20.820        27
20.830        67
20.840        40
20.850        33
20.860        40
20.870         7
20.880        60
20.890        27
20.900        27
20.910        33
20.920        20
20.930        60
20.940        60
20.950        47
20.960        47
20.970        33
20.980        67
20.990        60
21.000        40
21.010        40
21.020        53
21.030        33
21.040        80
21.050        33
21.060        53
21.070        40
21.080        20
21.090        40
21.100        33
21.110        27
21.120        40
21.130        20
21.140        33
21.150        33
21.160        13
21.170        67
21.180        60
21.190         7
21.200        53
21.210        47
21.220        67
21.230        60
21.240        53
21.250        40
21.260        33
21.270        47
21.280        33
21.290        20
21.300        13
21.310        47
21.320        53
21.330        33
21.340        53
21.350        60
21.360        20
21.370        53
21.380         7
21.390        73
21.400        33
21.410        33
21.420        47
21.430        33
21.440        40
21.450        27
21.460        53
21.470        60
21.480        80
21.490        20
21.500        40
21.510        20
21.520        53
21.530        27
21.540        13
21.550        53
21.560        27
21.570        60
21.580        67
21.590        60
21.600        47
21.610        40
21.620        40
21.630        53
21.640        27
21.650        33
21.660        27
21.670        20
21.680        40
21.690        27
21.700        67
21.710        13
21.720        13
21.730        20
21.740        27
21.750        47
21.760        13
21.770        40
21.780        20
21.790        47
21.800        20
21.810        33
21.820        47
21.830        40
21.840         7
21.850        27
21.860        47
21.870        33
21.880        40
21.890        33
21.900        60
21.910        27
21.920        47
21.930        60
21.940         7
21.950        53
21.960        20
21.970        47
21.980        47
21.990        40
22.000        73
22.010        67
22.020        40
22.030        80
22.040        53
22.050        67
22.060        60
22.070        40
22.080        33
22.090        40
22.100        73
22.110        47
22.120        33
22.130        27
22.140        20
22.150        67
22.160        60
22.170        53
22.180        20
22.190        33
22.200        20
22.210        33
22.220        47
22.230        40
22.240        60
22.250        27
22.260        13
22.270        27
22.280        13
22.290        13
22.300        60
22.310        27
22.320        20
22.330        27
22.340        20
22.350        27
22.360        20
22.370        33
22.380        20
22.390        33
22.400        33
22.410        47
22.420        27
22.430        27
22.440        33
22.450        40
22.460        47
22.470        20
22.480        47
22.490        27
22.500        40
22.510        40
22.520        33
22.530        40
22.540        73
22.550        27
22.560        33
22.570        47
22.580        47
22.590        53
22.600        40
22.610         7
22.620        53
22.630        40
22.640        27
22.650        40
22.660        40
22.670        33
22.680        53
22.690        20
22.700        13
22.710        33
22.720        60
22.730        13
22.740        27
22.750        40
22.760        27
22.770        27
22.780        27
22.790        47
22.800        27
22.810        40
22.820        20
22.830        47
22.840        13
22.850        33
22.860        80
22.870        20
22.880        40
22.890        40
22.900        20
22.910        13
22.920        33
22.930        47
22.940        40
22.950        47
22.960        20
22.970        40
22.980        20
22.990        27
23.000        73
23.010        40
23.020        53
23.030        27
23.040        53
23.050        13
23.060        60
23.070        53
23.080        20
23.090        47
23.100        27
23.110        20
23.120        27
23.130        53
23.140        73
23.150        13
23.160        20
23.170        20
23.180        40
23.190        33
23.200        40
23.210        40
23.220        13
23.230        47
23.240        33
23.250        13
23.260        40
23.270        27
23.280        13
23.290        67
23.300        20
23.310        20
23.320        33
23.330        27
23.340        40
23.350        27
23.360        20
23.370        27
23.380        47
23.390        47
23.400        27
23.410        20
23.420        13
23.430        40
23.440        33
23.450        40
23.460        40
23.470        40
23.480        33
23.490        20
23.500        60
23.510        20
23.520        40
23.530        33
23.540        73
23.550        40
23.560        27
23.570        20
23.580        27
23.590        13
23.600        20
23.610        47
23.620        27
23.630        67
23.640        40
23.650        40
23.660        53
23.670        33
23.680        27
23.690        53
23.700         7
23.710        27
23.720        60
23.730        47
23.740        40
23.750        67
23.760        40
23.770        33
23.780        20
23.790        80
23.800        13
23.810        53
23.820        60
23.830        27
23.840        53
23.850        40
23.860        53
23.870        53
23.880        20
23.890        33
23.900        27
23.910        40
23.920        33
23.930        20
23.940         0
23.950        33
23.960        47
23.970        40
23.980        13
23.990        40
24.000        33
24.010        27
24.020        47
24.030        47
24.040        47
24.050        20
24.060        40
24.070        40
24.080        20
24.090        47
24.100        20
24.110        33
24.120        40
24.130         7
24.140         7
24.150        13
24.160        13
24.170        33
24.180        20
24.190        33
24.200        27
24.210        27
24.220        20
24.230        27
24.240        27
24.250        27
24.260        53
24.270        53
24.280        53
24.290        33
24.300        33
24.310        53
24.320        40
24.330        13
24.340        13
24.350        47
24.360        40
24.370        33
24.380        27
24.390        60
24.400        40
24.410        53
24.420        40
24.430        33
24.440        27
24.450        20
24.460        40
24.470        53
24.480        13
24.490        20
24.500        33
24.510        13
24.520        13
24.530        20
24.540        20
24.550        33
24.560        47
24.570        40
24.580        33
24.590        13
24.600        27
24.610        20
24.620        13
24.630        53
24.640        53
24.650        33
24.660        40
24.670        33
24.680        47
24.690        27
24.700        33
24.710        80
24.720        53
24.730        47
24.740        53
24.750        13
24.760        40
24.770        40
24.780        33
24.790        40
24.800        60
24.810        33
24.820        47
24.830        20
24.840        27
24.850        33
24.860        53
24.870        60
24.880        53
24.890        47
24.900        20
24.910        33
24.920        40
24.930        47
24.940        33
24.950        60
24.960        47
24.970        47
24.980        73
24.990        47
25.000        13
25.010        20
25.020        27
25.030        33
25.040        53
25.050        40
25.060        20
25.070        27
25.080        33
25.090        13
25.100        47
25.110        13
25.120        13
25.130        20
25.140        33
25.150        47
25.160        40
25.170        20
25.180        20
25.190        53
25.200        40
25.210        33
25.220        33
25.230        33
25.240        13
25.250        40
25.260        13
25.270        40
25.280        33
25.290        40
25.300        40
25.310        40
25.320        27
25.330         7
25.340        20
25.350        20
25.360         7
25.370        40
25.380        27
25.390        53
25.400        33
25.410        33
25.420        40
25.430        33
25.440        47
25.450        33
25.460        13
25.470        27
25.480        27
25.490        33
25.500        20
25.510        20
25.520        13
25.530        33
25.540        33
25.550        27
25.560        33
25.570         7
25.580        33
25.590        27
25.600        60
25.610        27
25.620        13
25.630        33
25.640        20
25.650        53
25.660        53
25.670        27
25.680         7
25.690        27
25.700        20
25.710        60
25.720        27
25.730        13
25.740        13
25.750         7
25.760        40
25.770        27
25.780        67
25.790         7
25.800        20
25.810        13
25.820        40
25.830        33
25.840        27
25.850        27
25.860        33
25.870        20
25.880         0
25.890        33
25.900        40
25.910        27
25.920        20
25.930        20
25.940        20
25.950        27
25.960        27
25.970        20
25.980        20
25.990        33
26.000        33
26.010        13
26.020        13
26.030        47
26.040        40
26.050        67
26.060        27
26.070        60
26.080        27
26.090        27
26.100        27
26.110        20
26.120        53
26.130        20
26.140         7
26.150         7
26.160        33
26.170         7
26.180        20
26.190        47
26.200        33
26.210         0
26.220        47
26.230        20
26.240        33
26.250        13
26.260        33
26.270        40
26.280        27
26.290        47
26.300        60
26.310        27
26.320        33
26.330        33
26.340         7
26.350        20
26.360        20
26.370         7
26.380        20
26.390        20
26.400        20
26.410        13
26.420        40
26.430        13
26.440         7
26.450        13
26.460        40
26.470        27
26.480        60
26.490        27
26.500        33
26.510        20
26.520        60
26.530        27
26.540         7
26.550        13
26.560        20
26.570        33
26.580        40
26.590        60
26.600        27
26.610         7
26.620        27
26.630        27
26.640        13
26.650        40
26.660         0
26.670        20
26.680        27
26.690        33
26.700        27
26.710        27
26.720        13
26.730        40
26.740        13
26.750        20
26.760        33
26.770        27
26.780        47
26.790        20
26.800         7
26.810        27
26.820         7
26.830        13
26.840         7
26.850        47
26.860        40
26.870        13
26.880        13
26.890        40
26.900        33
26.910        40
26.920         7
26.930        33
26.940        13
26.950        40
26.960         0
26.970        40
26.980        13
26.990        40
27.000        27
27.010         7
27.020         7
27.030        20
27.040        40
27.050        20
27.060        20
27.070        53
27.080        13
27.090        20
27.100        20
27.110        13
27.120        27
27.130        20
27.140        33
27.150        20
27.160        20
27.170         7
27.180        20
27.190        13
27.200        20
27.210        27
27.220        27
27.230        27
27.240        13
27.250        27
27.260         7
27.270        20
27.280        53
27.290         7
27.300        20
27.310        13
27.320        13
27.330        27
27.340        40
27.350         0
27.360        33
27.370        13
27.380        27
27.390        20
27.400        33
27.410        20
27.420        27
27.430        53
27.440        27
27.450        20
27.460        20
27.470        20
27.480        27
27.490        20
27.500        33
27.510        40
27.520        13
27.530         7
27.540        13
27.550        13
27.560         7
27.570        33
27.580        27
27.590        13
27.600        13
27.610        27
27.620        20
27.630        20
27.640        27
27.650         0
27.660        27
27.670        27
27.680        20
27.690        27
27.700        33
27.710        27
27.720        27
27.730        20
27.740        40
27.750        27
27.760        20
27.770        27
27.780        27
27.790         7
27.800        40
27.810        40
27.820        20
27.830        47
27.840        33
27.850        20
27.860        40
27.870        27
27.880        20
27.890        27
27.900         7
27.910         7
27.920        27
27.930        40
27.940        13
27.950        40
27.960        47
27.970        33
27.980        40
27.990        47
28.000        20
28.010        33
28.020        27
28.030        47
28.040        33
28.050         7
28.060        27
28.070        47
28.080        33
28.090        27
28.100        80
28.110        47
28.120        40
28.130        33
28.140        53
28.150        27
28.160        53
28.170        60
28.180        33
28.190        47
28.200        40
28.210        40
28.220        53
28.230        20
28.240         7
28.250        53
28.260        40
28.270        40
28.280        13
28.290        53
28.300        27
28.310        13
28.320        27
28.330        13
28.340        33
28.350        20
28.360        13
28.370        60
28.380        33
28.390        40
28.400        47
28.410        33
28.420        20
28.430         0
28.440        40
28.450        53
28.460        20
28.470         7
28.480        47
28.490        20
28.500        27
28.510        13
28.520        20
28.530        27
28.540        20
28.550        27
28.560        33
28.570        20
28.580        33
28.590        33
28.600        20
28.610        20
28.620        53
28.630        27
28.640        60
28.650        40
28.660        13
28.670        27
28.680        33
28.690        20
28.700        33
28.710        27
28.720        33
28.730        53
28.740        13
28.750        27
28.760        27
28.770        20
28.780        13
28.790        27
28.800         7
28.810        47
28.820        33
28.830         7
28.840        20
28.850        27
28.860        13
28.870        33
28.880        20
28.890        27
28.900        13
28.910        20
28.920         7
28.930        40
28.940        40
28.950        27
28.960        33
28.970        33
28.980        40
28.990        40
29.000        33
29.010        33
29.020        27
29.030         7
29.040        20
29.050        27
29.060        20
29.070        47
29.080        33
29.090        40
29.100        33
29.110        27
29.120        13
29.130        27
29.140        27
29.150        67
29.160        13
29.170        27
29.180        27
29.190        33
29.200        47
29.210        47
29.220        20
29.230        40
29.240        47
29.250        33
29.260        60
29.270         0
29.280        47
29.290        27
29.300        40
29.310        53
29.320        27
29.330        40
29.340        27
29.350        67
29.360        60
29.370        33
29.380        60
29.390        53
29.400        93
29.410        73
29.420        40
29.430        80
29.440        53
29.450        40
29.460        60
29.470        87
29.480        40
29.490        47
29.500        27
29.510        67
29.520        60
29.530        33
29.540        27
29.550        60
29.560        20
29.570        20
29.580        27
29.590        27
29.600        27
29.610        33
29.620        13
29.630        53
29.640        40
29.650        33
29.660        20
29.670        20
29.680        13
29.690        33
29.700        33
29.710        33
29.720         7
29.730        13
29.740        33
29.750         7
29.760        20
29.770        27
29.780        47
29.790        20
29.800        47
29.810        20
29.820        27
29.830        13
29.840        13
29.850        27
29.860        27
29.870        20
29.880        27
29.890        20
29.900        13
29.910        13
29.920        40
29.930        40
29.940        47
29.950        27
29.960        20
29.970        33
29.980        13
29.990        27
30.000        20
30.010         7
30.020        27
30.030        47
30.040         7
30.050        20
30.060        27
30.070        53
30.080        13
30.090        33
30.100        27
30.110         7
30.120        40
30.130        53
30.140        67
30.150        20
30.160        53
30.170        53
30.180        20
30.190        53
30.200        33
30.210        47
30.220        20
30.230        40
30.240        33
30.250        47
30.260        47
30.270         7
30.280        60
30.290        13
30.300        60
30.310        33
30.320        33
30.330        40
30.340        53
30.350        47
30.360        67
30.370        27
30.380        53
30.390        53
30.400        33
30.410        47
30.420        53
30.430        27
30.440        40
30.450        87
30.460        40
30.470        27
30.480        53
30.490        60
30.500        47
30.510        53
30.520        53
30.530        47
30.540        60
30.550        53
30.560        33
30.570        27
30.580        47
30.590        47
30.600        87
30.610        67
30.620        60
30.630        33
30.640        33
30.650        53
30.660        80
30.670        47
30.680        33
30.690        40
30.700        40
30.710        27
30.720        40
30.730        67
30.740        60
30.750        47
30.760        60
30.770        67
30.780        33
30.790        80
30.800        27
30.810       107
30.820        73
30.830        67
30.840       100
30.850        47
30.860        93
30.870        87
30.880        80
30.890        67
30.900        87
30.910        67
30.920        73
30.930       173
30.940       100
30.950       127
30.960       153
30.970       153
30.980       127
30.990       180
31.000       267
31.010       220
31.020       313
31.030       313
31.040       347
31.050       373
31.060       466
31.070       473
31.080       620
31.090       586
31.100       793
31.110       966
31.120      1033
31.130      1046
31.140      1373
31.150      1486
31.160      1799
31.170      1999
31.180      2272
31.190      2506
31.200      2466
31.210      2919
31.220      3232
31.230      3539
31.240      3758
31.250      3705
31.260      3645
31.270      3452
31.280      3225
31.290      3305
31.300      3272
31.310      2979
31.320      3159
31.330      2639
31.340      2566
31.350      2526
31.360      1999
31.370      1886
31.380      1866
31.390      1486
31.400      1153
31.410      1093
31.420      1140
31.430       993
31.440       706
31.450       626
31.460       593
31.470       493
31.480       380
31.490       347
31.500       393
31.510       273
31.520       267
31.530       187
31.540       220
31.550       207
31.560       200
31.570       127
31.580       147
31.590       153
31.600       120
31.610        87
31.620       140
31.630        80
31.640        87
31.650        73
31.660        93
31.670       127
31.680       107
31.690        87
31.700        93
31.710        80
31.720        73
31.730       100
31.740        60
31.750       113
31.760        80
31.770        53
31.780        60
31.790        80
31.800        47
31.810        73
31.820        73
31.830        27
31.840        73
31.850        13
31.860        33
31.870        93
31.880        80
31.890        80
31.900        80
31.910        73
31.920        40
31.930        47
31.940        67
31.950        40
31.960        53
31.970        40
31.980        60
31.990        87
32.000        93
32.010        40
32.020        53
32.030        93
32.040        47
32.050        47
32.060        53
32.070        33
32.080        53
32.090        53
32.100        67
32.110        60
32.120        47
32.130        67
32.140        60
32.150        67
32.160        33
32.170        27
32.180        67
32.190        47
32.200        60
32.210        47
32.220        33
32.230        73
32.240        53
32.250        33
32.260        73
32.270        33
32.280        27
32.290        60
32.300        33
32.310        40
32.320        53
32.330        27
32.340        13
32.350        60
32.360        53
32.370        73
32.380        53
32.390        40
32.400        40
32.410        33
32.420        20
32.430        53
32.440        53
32.450        87
32.460        33
32.470        53
32.480        47
32.490        53
32.500        27
32.510        40
32.520        33
32.530        33
32.540        40
32.550        20
32.560        33
32.570        40
32.580        60
32.590        53
32.600        27
32.610        60
32.620        13
32.630        47
32.640        40
32.650        53
32.660        67
32.670        27
32.680        20
32.690        20
32.700        40
32.710        27
32.720        27
32.730        33
32.740        27
32.750         7
32.760        20
32.770        27
32.780        27
32.790        20
32.800        27
32.810        33
32.820        27
32.830        33
32.840        40
32.850        47
32.860        27
32.870        47
32.880        53
32.890        60
32.900        33
32.910         7
32.920        27
32.930        33
32.940        33
32.950        13
32.960        20
32.970         7
32.980        47
32.990        33
33.000        27
33.010        20
33.020        53
33.030        27
33.040        47
33.050        33
33.060        27
33.070        27
33.080        47
33.090        20
33.100        33
33.110        60
33.120        13
33.130        20
33.140        27
33.150        13
33.160        20
33.170        20
33.180        40
33.190        33
33.200        40
33.210        20
33.220        47
33.230        20
33.240        33
33.250        33
33.260        27
33.270        67
33.280        20
33.290        40
33.300        27
33.310        20
33.320        13
33.330        33
33.340        20
33.350         7
33.360        40
33.370         0
33.380        13
33.390         7
33.400        13
33.410        47
33.420        27
33.430         7
33.440        27
33.450        33
33.460        20
33.470        47
33.480        47
33.490        27
33.500        33
33.510        33
33.520        13
33.530        40
33.540        20
33.550        40
33.560        13
33.570        33
33.580        40
33.590        40
33.600        47
33.610        13
33.620        40
33.630        40
33.640         0
33.650        40
33.660        20
33.670        27
33.680        33
33.690         7
33.700        40
33.710        27
33.720        47
33.730        40
33.740        47
33.750        47
33.760        33
33.770        40
33.780        40
33.790        13
33.800         0
33.810        27
33.820        33
33.830        33
33.840        40
33.850        27
33.860        20
33.870         7
33.880        60
33.890        20
33.900        33
33.910        53
33.920        33
33.930        20
33.940        33
33.950        33
33.960        20
33.970        27
33.980        47
33.990        40
34.000        33
34.010        13
34.020        20
34.030        20
34.040        27
34.050        27
34.060        47
34.070        27
34.080        20
34.090        20
34.100        13
34.110        40
34.120        20
34.130        20
34.140        40
34.150        13
34.160        20
34.170        20
34.180        27
34.190        47
34.200         7
34.210        20
34.220        47
34.230        13
34.240        13
34.250        27
34.260        40
34.270        33
34.280        20
34.290        33
34.300        27
34.310         7
34.320        40
34.330         7
34.340        27
34.350        33
34.360        33
34.370        40
34.380        20
34.390        27
34.400        20
34.410        27
34.420        27
34.430        33
34.440        40
34.450        40
34.460         7
34.470        20
34.480        27
34.490        20
34.500        33
34.510        27
34.520         7
34.530        27
34.540        20
34.550        20
34.560        33
34.570        20
34.580         7
34.590        40
34.600        40
34.610        53
34.620        20
34.630        20
34.640        13
34.650        13
34.660        20
34.670        20
34.680         0
34.690        40
34.700         7
34.710        60
34.720        13
34.730        20
34.740        20
34.750        27
34.760        27
34.770        40
34.780        13
34.790        27
34.800        20
34.810        40
34.820        27
34.830        33
34.840        13
34.850        33
34.860        67
34.870        47
34.880         7
34.890        27
34.900        13
34.910        13
34.920        20
34.930        13
34.940        13
34.950        47
34.960        27
34.970        20
34.980        27
34.990        27
35.000        47
35.010        33
35.020        27
35.030        53
35.040        27
35.050        13
35.060        73
35.070        47
35.080        40
35.090        40
35.100        13
35.110        33
35.120        27
35.130        33
35.140        47
35.150        33
35.160        53
35.170        40
35.180        47
35.190        33
35.200        47
35.210        47
35.220        60
35.230        40
35.240        33
35.250        47
35.260        67
35.270        67
35.280        47
35.290        33
35.300        53
35.310        20
35.320        27
35.330        13
35.340        27
35.350        27
35.360         7
35.370        33
35.380        27
35.390        13
35.400        47
35.410        33
35.420         7
35.430        33
35.440        27
35.450        53
35.460        20
35.470        40
35.480        40
35.490        20
35.500        53
35.510        47
35.520        20
35.530         0
35.540        20
35.550        27
35.560        13
35.570        40
35.580         7
35.590        27
35.600        27
35.610        60
35.620        33
35.630        33
35.640         7
35.650        27
35.660        33
35.670        40
35.680         0
35.690        73
35.700        27
35.710        33
35.720        20
35.730        27
35.740        27
35.750        33
35.760        13
35.770        60
35.780        40
35.790        47
35.800        20
35.810        27
35.820        20
35.830        20
35.840        27
35.850        33
35.860         7
35.870        33
35.880         7
35.890        27
35.900        60
35.910        33
35.920        40
35.930        13
35.940        40
35.950        47
35.960        13
35.970        47
35.980        40
35.990        53
36.000        33
36.010        40
36.020        40
36.030         7
36.040        47
36.050        33
36.060        20
36.070         7
36.080        53
36.090        20
36.100        27
36.110         7
36.120        27
36.130        27
36.140        20
36.150        20
36.160        20
36.170         7
36.180        20
36.190        13
36.200        27
36.210        20
36.220        27
36.230         7
36.240        27
36.250        27
36.260        33
36.270         7
36.280        13
36.290        40
36.300        27
36.310        27
36.320         7
36.330        40
36.340        13
36.350        33
36.360        13
36.370        40
36.380        47
36.390        13
36.400        27
36.410        27
36.420        27
36.430         7
36.440        20
36.450        27
36.460        13
36.470        13
36.480        20
36.490        20
36.500        13
36.510        47
36.520        33
36.530        20
36.540        47
36.550        20
36.560        40
36.570        27
36.580        27
36.590        33
36.600        13
36.610        13
36.620        33
36.630        40
36.640        20
36.650        27
36.660         7
36.670        20
36.680        27
36.690        33
36.700        53
36.710        20
36.720        20
36.730        40
36.740         0
36.750        47
36.760        47
36.770        13
36.780        13
36.790        27
36.800        20
36.810         7
36.820        40
36.830        13
36.840        13
36.850        33
36.860        33
36.870        40
36.880        27
36.890        33
36.900        13
36.910        27
36.920        13
36.930        53
36.940        20
36.950        13
36.960         7
36.970        47
36.980        33
36.990        27
37.000        33
37.010         7
37.020        20
37.030         7
37.040        27
37.050        40
37.060         7
37.070        27
37.080        27
37.090        33
37.100        13
37.110        13
37.120        13
37.130        20
37.140        33
37.150        20
37.160        40
37.170        27
37.180        20
37.190        20
37.200        33
37.210        20
37.220        27
37.230        20
37.240        20
37.250        60
37.260        27
37.270        27
37.280        20
37.290        13
37.300        13
37.310        47
37.320        27
37.330         7
37.340        13
37.350        27
37.360        33
37.370        47
37.380        27
37.390        13
37.400         7
37.410        33
37.420        20
37.430        40
37.440        27
37.450        20
37.460        20
37.470        40
37.480        13
37.490        20
37.500        27
37.510        13
37.520        20
37.530        20
37.540        13
37.550        33
37.560         7
37.570         7
37.580        27
37.590        13
37.600        13
37.610         7
37.620        20
37.630        47
37.640        40
37.650         0
37.660        13
37.670        33
37.680        27
37.690        27
37.700        20
37.710        20
37.720        13
37.730        40
37.740        27
37.750        33
37.760        20
37.770        20
37.780        47
37.790        20
37.800        40
37.810         0
37.820        13
37.830        20
37.840        27
37.850        33
37.860        40
37.870        13
37.880        33
37.890         7
37.900         7
37.910        13
37.920        20
37.930        33
37.940        27
37.950        27
37.960        20
37.970        47
37.980         7
37.990        13
38.000        27
38.010         7
38.020        33
38.030         7
38.040         7
38.050        27
38.060        20
38.070        33
38.080        13
38.090        27
38.100        53
38.110        27
38.120        27
38.130        20
38.140        13
38.150        27
38.160        20
38.170        40
38.180        40
38.190        33
38.200        33
38.210        13
38.220        27
38.230        20
38.240        27
38.250        40
38.260        33
38.270        33
38.280        33
38.290        40
38.300        47
38.310        27
38.320        47
38.330        13
38.340        20
38.350        27
38.360        27
38.370        40
38.380        40
38.390        40
38.400        20
38.410        47
38.420        53
38.430        20
38.440        33
38.450        73
38.460        20
38.470        20
38.480        20
38.490        27
38.500        13
38.510        33
38.520        40
38.530        40
38.540        27
38.550        40
38.560        40
38.570        33
38.580        73
38.590        33
38.600        47
38.610        13
38.620        47
38.630        33
38.640        67
38.650        27
38.660        27
38.670        67
38.680        40
38.690        60
38.700        53
38.710        67
38.720        27
38.730        33
38.740        53
38.750        40
38.760        47
38.770        47
38.780        20
38.790        33
38.800        60
38.810        13
38.820        33
38.830        20
38.840        20
38.850        47
38.860        20
38.870        27
38.880        47
38.890        53
38.900        53
38.910         7
38.920        20
38.930        20
38.940        20
38.950        20
38.960        40
38.970        27
38.980        20
38.990        33
39.000        40
39.010        60
39.020        40
39.030        27
39.040        20
39.050        13
39.060        33
39.070        20
39.080        27
39.090        13
39.100        27
39.110        27
39.120        13
39.130        20
39.140        33
39.150        40
39.160        27
39.170        27
39.180        13
39.190         7
39.200        27
39.210        20
39.220        40
39.230        27
39.240        27
39.250        47
39.260        33
39.270        33
39.280        20
39.290         7
39.300        20
39.310        47
39.320        33
39.330        13
39.340         7
39.350        33
39.360        13
39.370        67
39.380        40
39.390        27
39.400        27
39.410        33
39.420        33
39.430        20
39.440        33
39.450        20
39.460        20
39.470        33
39.480         7
39.490         0
39.500        47
39.510        33
39.520        13
39.530        53
39.540         7
39.550        47
39.560        27
39.570        20
39.580        13
39.590        27
39.600        40
39.610        20
39.620        13
39.630        20
39.640        20
39.650        27
39.660         0
39.670        33
39.680        33
39.690        20
39.700        13
39.710         7
39.720        13
39.730        20
39.740        33
39.750         7
39.760        40
39.770        27
39.780        13
39.790        13
39.800        40
39.810        20
39.820        20
39.830        27
39.840        13
39.850        20
39.860        20
39.870         7
39.880        27
39.890        20
39.900        27
39.910        20
39.920        13
39.930        27
39.940        27
39.950        33
39.960        13
39.970        13
39.980        27
39.990        27
40.000        13
40.010        27
40.020        47
40.030        53
40.040        40
40.050        20
40.060        20
40.070        20
40.080        27
40.090        33
40.100        27
40.110        27
40.120        40
40.130         7
40.140        27
40.150        27
40.160        20
40.170        20
40.180        33
40.190         7
40.200        20
40.210        13
40.220        20
40.230        33
40.240        27
40.250        13
40.260        13
40.270        33
40.280         7
40.290         0
40.300        13
40.310        47
40.320         7
40.330        27
40.340        40
40.350        40
40.360        33
40.370        20
40.380        40
40.390        67
40.400        13
40.410        40
40.420        13
40.430        33
40.440        27
40.450        20
40.460        33
40.470        13
40.480        13
40.490        27
40.500        13
40.510         7
40.520         7
40.530         7
40.540        20
40.550         7
40.560        33
40.570        20
40.580        27
40.590        20
40.600        20
40.610         0
40.620        27
40.630        33
40.640         7
40.650        27
40.660        40
40.670        27
40.680        20
40.690         7
40.700        47
40.710        13
40.720        20
40.730        20
40.740        20
40.750        13
40.760        27
40.770        40
40.780        13
40.790        13
40.800        13
40.810        13
40.820        27
40.830        27
40.840        13
40.850        27
40.860        20
40.870        20
40.880        13
40.890        13
40.900        20
40.910        13
40.920        33
40.930        13
40.940        13
40.950        40
40.960         7
40.970        40
40.980        40
40.990        40
41.000        20
41.010        33
41.020         7
41.030        27
41.040        13
41.050        33
41.060        13
41.070        20
41.080        33
41.090        13
41.100        20
41.110        33
41.120        13
41.130        27
41.140        33
41.150        27
41.160         7
41.170        27
41.180        13
41.190        27
41.200        27
41.210        13
41.220        20
41.230         7
41.240        33
41.250        20
41.260        20
41.270         7
41.280        27
41.290        27
41.300        53
41.310        13
41.320        33
41.330        20
41.340        20
41.350         7
41.360        47
41.370        27
41.380        13
41.390         7
41.400        13
41.410         7
41.420        27
41.430        33
41.440        13
41.450        20
41.460        13
41.470        27
41.480        13
41.490        13
41.500         7
41.510        20
41.520        33
41.530         7
41.540        13
41.550        13
41.560        27
41.570        13
41.580        20
41.590        47
41.600        40
41.610         7
41.620        20
41.630        13
41.640        27
41.650        47
41.660        33
41.670        13
41.680        80
41.690        80
41.700        80
41.710        53
41.720        47
41.730        87
41.740        80
41.750        73
41.760        53
41.770        73
41.780        40
41.790        20
41.800        53
41.810        47
41.820        40
41.830        27
41.840        40
41.850        33
41.860        20
41.870        13
41.880        53
41.890        53
41.900        53
41.910        20
41.920        40
41.930        20
41.940         0
41.950        27
41.960        33
41.970        40
41.980        20
41.990        13
42.000         7
42.010        27
42.020        20
42.030        33
42.040        47
42.050        20
42.060        13
42.070        27
42.080        27
42.090        13
42.100        13
42.110         7
42.120         7
42.130        13
42.140        20
42.150        13
42.160         7
42.170        27
42.180        27
42.190         7
42.200         0
42.210        40
42.220         0
42.230        13
42.240         0
42.250         7
42.260        20
42.270         0
42.280        20
42.290        33
42.300        27
42.310        27
42.320         7
42.330        20
42.340        20
42.350        13
42.360        20
42.370        27
42.380        20
42.390         7
42.400        20
42.410        13
42.420        40
42.430         7
42.440        20
42.450        13
42.460        33
42.470        20
42.480        27
42.490        20
42.500        20
42.510        13
42.520         7
42.530        20
42.540        20
42.550        20
42.560        20
42.570         7
42.580        33
42.590        27
42.600         7
42.610        20
42.620        40
42.630        13
42.640        13
42.650        13
42.660        13
42.670         0
42.680         7
42.690        27
42.700         7
42.710        13
42.720        20
42.730        20
42.740        47
42.750        47
42.760        13
42.770        27
42.780        20
42.790        20
42.800         7
42.810        27
42.820        33
42.830        27
42.840         7
42.850        13
42.860         7
42.870        13
42.880        40
42.890        27
42.900        27
42.910        20
42.920         0
42.930        40
42.940        20
42.950        27
42.960         7
42.970        13
42.980         7
42.990        13
43.000        33
43.010        27
43.020        27
43.030        27
43.040        33
43.050        20
43.060        13
43.070        33
43.080        40
43.090        20
43.100        13
43.110        60
43.120        33
43.130        33
43.140        20
43.150        47
43.160        13
43.170        40
43.180        20
43.190        13
43.200        13
43.210        13
43.220        40
43.230        20
43.240        33
43.250        27
43.260        20
43.270        20
43.280        27
43.290        33
43.300        20
43.310         7
43.320        13
43.330        47
43.340        53
43.350        47
43.360        67
43.370       107
43.380        53
43.390        53
43.400        87
43.410        93
43.420        87
43.430        67
43.440        60
43.450        80
43.460        40
43.470        73
43.480        47
43.490        80
43.500        27
43.510        47
43.520        60
43.530        67
43.540        27
43.550        73
43.560        40
43.570        47
43.580        53
43.590        27
43.600        20
43.610        33
43.620        20
43.630         7
43.640        20
43.650         0
43.660         0
43.670        47
43.680         0
43.690        33
43.700        20
43.710         0
43.720        13
43.730         7
43.740        20
43.750        20
43.760         7
43.770        33
43.780         7
43.790         7
43.800        20
43.810        13
43.820        20
43.830        20
43.840        33
43.850         7
43.860         7
43.870        13
43.880         7
43.890        13
43.900        13
43.910        27
43.920        20
43.930        13
43.940        33
43.950        20
43.960        20
43.970        13
43.980        33
43.990         7
44.000        33
44.010         0
44.020         7
44.030        27
44.040        13
44.050         7
44.060        20
44.070        13
44.080        27
44.090         7
44.100        13
44.110        20
44.120        13
44.130         7
44.140        13
44.150        20
44.160        13
44.170        27
44.180        20
44.190        20
44.200        20
44.210        60
44.220        27
44.230         7
44.240        40
44.250        27
44.260        20
44.270        27
44.280        13
44.290        33
44.300         7
44.310        33
44.320        27
44.330        20
44.340        33
44.350        20
44.360        27
44.370        20
44.380        27
44.390        20
44.400        13
44.410         7
44.420        20
44.430         0
44.440        27
44.450        27
44.460        20
44.470        13
44.480        20
44.490         7
44.500         7
44.510        33
44.520        20
44.530        27
44.540        53
44.550         7
44.560        27
44.570        27
44.580        20
44.590        40
44.600        20
44.610        60
44.620        20
44.630        20
44.640        13
44.650        53
44.660        33
44.670        33
44.680        33
44.690        27
44.700        47
44.710        47
44.720        20
44.730        27
44.740        73
44.750        47
44.760        33
44.770        33
44.780        60
44.790        40
44.800        27
44.810        40
44.820        47
44.830        20
44.840        47
44.850        60
44.860        40
44.870        27
44.880        60
44.890        87
44.900        33
44.910        40
44.920        40
44.930        33
44.940        93
44.950        67
44.960        13
44.970        47
44.980        40
44.990        60
45.000        33
45.010        33
45.020        33
45.030        47
45.040        20
45.050         7
45.060        60
45.070        47
45.080        33
45.090        40
45.100        13
45.110        20
45.120        33
45.130        27
45.140        40
45.150        33
45.160        13
45.170        40
45.180        47
45.190        53
45.200         7
45.210         7
45.220        20
45.230        33
45.240        27
45.250        27
45.260        20
45.270         0
45.280        20
45.290        33
45.300        20
45.310        47
45.320         7
45.330        20
45.340        27
45.350        13
45.360         0
45.370        20
45.380        20
45.390        27
45.400         0
45.410        13
45.420        20
45.430        13
45.440        27
45.450        27
45.460        20
45.470        53
45.480        33
45.490        33
45.500        13
45.510        33
45.520        27
45.530        33
45.540        27
45.550        13
45.560        33
45.570         7
45.580         7
45.590        13
45.600        13
45.610        33
45.620        13
45.630        53
45.640        20
45.650        13
45.660        27
45.670         7
45.680         7
45.690        27
45.700        27
45.710        20
45.720        20
45.730        13
45.740        20
45.750        27
45.760        27
45.770        13
45.780        13
45.790        47
45.800        13
45.810        33
45.820        13
45.830         7
45.840        33
45.850        27
45.860        20
45.870         7
45.880        40
45.890         7
45.900         7
45.910        13
45.920        33
45.930        33
45.940         7
45.950        33
45.960        13
45.970        20
45.980        40
45.990        27
46.000        13
46.010        27
46.020        20
46.030        40
46.040         7
46.050        27
46.060        20
46.070        20
46.080        53
46.090        13
46.100        27
46.110        13
46.120         7
46.130        33
46.140        20
46.150         7
46.160        33
46.170        20
46.180        27
46.190        20
46.200        13
46.210        13
46.220        13
46.230        40
46.240        13
46.250        33
46.260        33
46.270        13
46.280        20
46.290        47
46.300        13
46.310        27
46.320        13
46.330        20
46.340        20
46.350        20
46.360        20
46.370        20
46.380        33
46.390        13
46.400         0
46.410        33
46.420        13
46.430         7
46.440        13
46.450         7
46.460         7
46.470        13
46.480        13
46.490         7
46.500        20
46.510        13
46.520        40
46.530        13
46.540        27
46.550         7
46.560         7
46.570        13
46.580        13
46.590        53
46.600        20
46.610        20
46.620        20
46.630        27
46.640        27
46.650        27
46.660         7
46.670        20
46.680        33
46.690        47
46.700        20
46.710         0
46.720        33
46.730        27
46.740        20
46.750        33
46.760        33
46.770        13
46.780        13
46.790        27
46.800        27
46.810         7
46.820        33
46.830        13
46.840         0
46.850         7
46.860        27
46.870        40
46.880        27
46.890        13
46.900        33
46.910        13
46.920        33
46.930        20
46.940        13
46.950        13
46.960        13
46.970        53
46.980        33
46.990        33
47.000        27
47.010         7
47.020        40
47.030        20
47.040        20
47.050        13
47.060        13
47.070        27
47.080        33
47.090        20
47.100        40
47.110        27
47.120         7
47.130        20
47.140        47
47.150        33
47.160         7
47.170        27
47.180        13
47.190        40
47.200        13
47.210        33
47.220        33
47.230        53
47.240        13
47.250        27
47.260         7
47.270        33
47.280        33
47.290        33
47.300         7
47.310        60
47.320        13
47.330        33
47.340        33
47.350        27
47.360        40
47.370        13
47.380        13
47.390        13
47.400         7
47.410        20
47.420        13
47.430        20
47.440        13
47.450        20
47.460        40
47.470        27
47.480        33
47.490        20
47.500         7
47.510        33
47.520        20
47.530        40
47.540        33
47.550        20
47.560        40
47.570        20
47.580        20
47.590        53
47.600        20
47.610         7
47.620        47
47.630        20
47.640         7
47.650        20
47.660        40
47.670        20
47.680        13
47.690        20
47.700         7
47.710         7
47.720         7
47.730        20
47.740        13
47.750         7
47.760         7
47.770        20
47.780        33
47.790        13
47.800        20
47.810        33
47.820         7
47.830         7
47.840        20
47.850        27
47.860        20
47.870         7
47.880        13
47.890        13
47.900        20
47.910        27
47.920        27
47.930        20
47.940        13
47.950        13
47.960        33
47.970        13
47.980         7
47.990         0
48.000        33
48.010         7
48.020         7
48.030         7
48.040        13
48.050         0
48.060        27
48.070        20
48.080        33
48.090        13
48.100        20
48.110        33
48.120        20
48.130         7
48.140         7
48.150        27
48.160        27
48.170        13
48.180         7
48.190        13
48.200        20
48.210        33
48.220        27
48.230         0
48.240        33
48.250        13
48.260        27
48.270        13
48.280        13
48.290        13
48.300        27
48.310        20
48.320        27
48.330        27
48.340         7
48.350        20
48.360         7
48.370        33
48.380        33
48.390        20
48.400        20
48.410        13
48.420        27
48.430        13
48.440        27
48.450        20
48.460        27
48.470        33
48.480        13
48.490        40
48.500        13
48.510         7
48.520        47
48.530        20
48.540        27
48.550        33
48.560        33
48.570        40
48.580        20
48.590        13
48.600        13
48.610        13
48.620        27
48.630        27
48.640         7
48.650        20
48.660        20
48.670        20
48.680         7
48.690        53
48.700         7
48.710        13
48.720        13
48.730        53
48.740        27
48.750         7
48.760         0
48.770         7
48.780        27
48.790        13
48.800         0
48.810         7
48.820        13
48.830        13
48.840        27
48.850        13
48.860        20
48.870         7
48.880        33
48.890        20
48.900        27
48.910        27
48.920         0
48.930        20
48.940         0
48.950        13
48.960        13
48.970        33
48.980        20
48.990         7
49.000         7
49.010        27
49.020        27
49.030         7
49.040        40
49.050        20
49.060        13
49.070        27
49.080         7
49.090        13
49.100         7
49.110         7
49.120        13
49.130        13
49.140         7
49.150        27
49.160        20
49.170         0
49.180        13
49.190        20
49.200        20
49.210         7
49.220         7
49.230         0
49.240         7
49.250        33
49.260        13
49.270        27
49.280        33
49.290         7
49.300         7
49.310         7
49.320        20
49.330        27
49.340        13
49.350        20
49.360         7
49.370        27
49.380        13
49.390        33
49.400         7
49.410         7
49.420        27
49.430        20
49.440         7
49.450        20
49.460        27
49.470         0
49.480        13
49.490        33
49.500        33
49.510        13
49.520         7
49.530        20
49.540        13
49.550        13
49.560        27
49.570        13
49.580        13
49.590         7
49.600         7
49.610        20
49.620         7
49.630        33
49.640        13
49.650        40
49.660        20
49.670        13
49.680        33
49.690         7
49.700        13
49.710         7
49.720        33
49.730        20
49.740        33
49.750        20
49.760        20
49.770         7
49.780        33
49.790        20
49.800        27
49.810        33
49.820        33
49.830        20
49.840        13
49.850        20
49.860        13
49.870         7
49.880        27
49.890        13
49.900        13
49.910        27
49.920        20
49.930        13
49.940        20
49.950        20
49.960        13
49.970        20
49.980         7
49.990        13
50.000        20
50.010        40
50.020        27
50.030         0
50.040         7
50.050         0
50.060         7
50.070        13
50.080         0
50.090         7
50.100         0
50.110        13
50.120        13
50.130        13
50.140        20
50.150        20
50.160         0
50.170        13
50.180         0
50.190         0
50.200        13
50.210         7
50.220        20
50.230         0
50.240         7
50.250         0
50.260        20
50.270        27
50.280        20
50.290        13
50.300        33
50.310        27
50.320         0
50.330        20
50.340        20
50.350         7
50.360         7
50.370         7
50.380        40
50.390         7
50.400        27
50.410        27
50.420        20
50.430        20
50.440        33
50.450        20
50.460        13
50.470         0
50.480        27
50.490         7
50.500        40
50.510        27
50.520         0
50.530        27
50.540         7
50.550         0
50.560        13
50.570         0
50.580        13
50.590        60
50.600        13
50.610         7
50.620        53
50.630        40
50.640        33
50.650         7
50.660        13
50.670        20
50.680         0
50.690        20
50.700        13
50.710         7
50.720        33
50.730         7
50.740         7
50.750        20
50.760        20
50.770        13
50.780        13
50.790         7
50.800        27
50.810        47
50.820        40
50.830        13
50.840        20
50.850        20
50.860         0
50.870        20
50.880        20
50.890        13
50.900        13
50.910        20
50.920         7
50.930        20
50.940        20
50.950        53
50.960        33
50.970        33
50.980        27
50.990        27
51.000        20
51.010        33
51.020        20
51.030        13
51.040        33
51.050        20
51.060         7
51.070        13
51.080        20
51.090        20
51.100        13
51.110        13
51.120        33
51.130         0
51.140         7
51.150        33
51.160        13
51.170         7
51.180        40
51.190        20
51.200         0
51.210         7
51.220         7
51.230        27
51.240        13
51.250         7
51.260        13
51.270        13
51.280        13
51.290        13
51.300        13
51.310         7
51.320         7
51.330         0
51.340         0
51.350        33
51.360        33
51.370         0
51.380         0
51.390        13
51.400         7
51.410        20
51.420        20
51.430        13
51.440         7
51.450         7
51.460         7
51.470        20
51.480         7
51.490         7
51.500         7
51.510        20
51.520        13
51.530         7
51.540        20
51.550         0
51.560        20
51.570        20
51.580        13
51.590        13
51.600         7
51.610        20
51.620        13
51.630        13
51.640        20
51.650        20
51.660        20
51.670        20
51.680         0
51.690        27
51.700        27
51.710         7
51.720         0
51.730        13
51.740         0
51.750         7
51.760        20
51.770         0
51.780         7
51.790        20
51.800        20
51.810        13
51.820         0
51.830        13
51.840        40
51.850         7
51.860         7
51.870        27
51.880         7
51.890         7
51.900        20
51.910         7
51.920         7
51.930        13
51.940         0
51.950        20
51.960        20
51.970         0
51.980         7
51.990        13
52.000        13
52.010        20
52.020         7
52.030        20
52.040        27
52.050        20
52.060        20
52.070         0
52.080         0
52.090         7
52.100         7
52.110        53
52.120         7
52.130        13
52.140         7
52.150        20
52.160         7
52.170         7
52.180        27
52.190        20
52.200        27
52.210        27
52.220        13
52.230        13
52.240        27
52.250        27
52.260        20
52.270        13
52.280        33
52.290         0
52.300         0
52.310        13
52.320        20
52.330         7
52.340        20
52.350        13
52.360        20
52.370        33
52.380        20
52.390        13
52.400        20
52.410         0
52.420        33
52.430        13
52.440         0
52.450        13
52.460         7
52.470        20
52.480        13
52.490        27
52.500         7
52.510        13
52.520        20
52.530        20
52.540        13
52.550        47
52.560       133
52.570        20
52.580        27
52.590        13
52.600         7
52.610        33
52.620        40
52.630        33
52.640        20
52.650        27
52.660        13
52.670         7
52.680        13
52.690         7
52.700        13
52.710        27
52.720        13
52.730        27
52.740        13
52.750        20
52.760        33
52.770        53
52.780         0
52.790         7
52.800        20
52.810        27
52.820        13
52.830        20
52.840         0
52.850        20
52.860        20
52.870         7
52.880        27
52.890        13
52.900        20
52.910         7
52.920         0
52.930        40
52.940         7
52.950        47
52.960        13
52.970        20
52.980         7
52.990        27
53.000         7
53.010        20
53.020        27
53.030        27
53.040        27
53.050         7
53.060        13
53.070        13
53.080        13
53.090        20
53.100        13
53.110        20
53.120        20
53.130        20
53.140        13
53.150        40
53.160        13
53.170         7
53.180        13
53.190        27
53.200        13
53.210         0
53.220         7
53.230        27
53.240         7
53.250        27
53.260        20
53.270         7
53.280        13
53.290        13
53.300         7
53.310         7
53.320        20
53.330         7
53.340        20
53.350        27
53.360         7
53.370        13
53.380        33
53.390        13
53.400        33
53.410         7
53.420        20
53.430        13
53.440        13
53.450        20
53.460        20
53.470        27
53.480        20
53.490        13
53.500        13
53.510        13
53.520        20
53.530         7
53.540        13
53.550        13
53.560        13
53.570        13
53.580        27
53.590        13
53.600        13
53.610        20
53.620        27
53.630        27
53.640         7
53.650        20
53.660        20
53.670         7
53.680         7
53.690        13
53.700        13
53.710        20
53.720        20
53.730        27
53.740        27
53.750        13
53.760        33
53.770        13
53.780        33
53.790        13
53.800         0
53.810        27
53.820         0
53.830         0
53.840        20
53.850         7
53.860         7
53.870        20
53.880        20
53.890         7
53.900        13
53.910        40
53.920         7
53.930        20
53.940        20
53.950        13
53.960        20
53.970         0
53.980         0
53.990         7
54.000         0
54.010         7
54.020         7
54.030        33
54.040         0
54.050         0
54.060         0
54.070        27
54.080        40
54.090        33
54.100        27
54.110         7
54.120        40
54.130        13
54.140         7
54.150        27
54.160        33
54.170         7
54.180        20
54.190         7
54.200        27
54.210        13
54.220         7
54.230         0
54.240        13
54.250         0
54.260         7
54.270        27
54.280        13
54.290        13
54.300        13
54.310         7
54.320        20
54.330        13
54.340        13
54.350        20
54.360        13
54.370        27
54.380         0
54.390         0
54.400        13
54.410        20
54.420         0
54.430        20
54.440         0
54.450        27
54.460        13
54.470         7
54.480        27
54.490        13
54.500        20
54.510         7
54.520        33
54.530        33
54.540        13
54.550        20
54.560         0
54.570        13
54.580        27
54.590        60
54.600        47
54.610        20
54.620        27
54.630         7
54.640         0
54.650        20
54.660        20
54.670         0
54.680        13
54.690         7
54.700        40
54.710        13
54.720         7
54.730         7
54.740        33
54.750        33
54.760        27
54.770        27
54.780        20
54.790        27
54.800         7
54.810         0
54.820         0
54.830         0
54.840         7
54.850        13
54.860        20
54.870         7
54.880        13
54.890        20
54.900         7
54.910        13
54.920        13
54.930         0
54.940        13
54.950        20
54.960        13
54.970        13
54.980         7
54.990        40
55.000        20
55.010        20
55.020        20
55.030        20
55.040         7
55.050        27
55.060         7
55.070        27
55.080        33
55.090        33
55.100        27
55.110        20
55.120        13
55.130        13
55.140        20
55.150        27
55.160         7
55.170        20
55.180        27
55.190        33
55.200         7
55.210        27
55.220        27
55.230        27
55.240        27
55.250        27
55.260        20
55.270        20
55.280        20
55.290        40
55.300        20
55.310        20
55.320        13
55.330        33
55.340        20
55.350        33
55.360        67
55.370        20
55.380        53
55.390        27
55.400        47
55.410         7
55.420         7
55.430        20
55.440        27
55.450        53
55.460        47
55.470        53
55.480        73
55.490        20
55.500        47
55.510        60
55.520        33
55.530        73
55.540        87
55.550        73
55.560        53
55.570        47
55.580        73
55.590        47
55.600        47
55.610        60
55.620        73
55.630        27
55.640        67
55.650        73
55.660       107
55.670        80
55.680        87
55.690        73
55.700       127
55.710        87
55.720       107
55.730       100
55.740       113
55.750        93
55.760        73
55.770       100
55.780       147
55.790       100
55.800       100
55.810       113
55.820        87
55.830       127
55.840        67
55.850       107
55.860        67
55.870        87
55.880        47
55.890       127
55.900        60
55.910       107
55.920       120
55.930        60
55.940        93
55.950       113
55.960        67
55.970        40
55.980        20
55.990        67
56.000        87
56.010        20
56.020        47
56.030        40
56.040        33
56.050        27
56.060        47
56.070        33
56.080        20
56.090        13
56.100        47
56.110        27
56.120         7
56.130        20
56.140         7
56.150        60
56.160        20
56.170        13
56.180        20
56.190         0
56.200        20
56.210        20
56.220        13
56.230         7
56.240        20
56.250        13
56.260        33
56.270         7
56.280        13
56.290         7
56.300        47
56.310         0
56.320        33
56.330         0
56.340         0
56.350        20
56.360        20
56.370        60
56.380        20
56.390         7
56.400        20
56.410         7
56.420        47
56.430        13
56.440        20
56.450        13
56.460         7
56.470        13
56.480        13
56.490        20
56.500         7
56.510        13
56.520        20
56.530        13
56.540         7
56.550        40
56.560        20
56.570        40
56.580        13
56.590        27
56.600        40
56.610         7
56.620        20
56.630        20
56.640        27
56.650        20
56.660         7
56.670        33
56.680        13
56.690        13
56.700        27
56.710        13
56.720        27
56.730        13
56.740         7
56.750         7
56.760        13
56.770        13
56.780        13
56.790        40
56.800        27
56.810        13
56.820        20
56.830         0
56.840        33
56.850        27
56.860         7
56.870        13
56.880         7
56.890        27
56.900        13
56.910        20
56.920         7
56.930         0
56.940         7
56.950         7
56.960        27
56.970        13
56.980        13
56.990        20
57.000        20
57.010        27
57.020         7
57.030        13
57.040        20
57.050         7
57.060        27
57.070         0
57.080        20
57.090        27
57.100        20
57.110         0
57.120        20
57.130        13
57.140        20
57.150        33
57.160        13
57.170        20
57.180        33
57.190        13
57.200         0
57.210        27
57.220        20
57.230        27
57.240        20
57.250        20
57.260        33
57.270        13
57.280        13
57.290        20
57.300        13
57.310        33
57.320        13
57.330        20
57.340         7
57.350        20
57.360        20
57.370        20
57.380        13
57.390        20
57.400        13
57.410        20
57.420        27
57.430        33
57.440        33
57.450        13
57.460        27
57.470        27
57.480        13
57.490        33
57.500        47
57.510        33
57.520        33
57.530        47
57.540        80
57.550        20
57.560        80
57.570        60
57.580        47
57.590        47
57.600         7
57.610        33
57.620        27
57.630        33
57.640        40
57.650        60
57.660        40
57.670        47
57.680        40
57.690        40
57.700        40
57.710        27
57.720        13
57.730        27
57.740        13
57.750         0
57.760        27
57.770        33
57.780        20
57.790         7
57.800         7
57.810        20
57.820         7
57.830         7
57.840        33
57.850        20
57.860        47
57.870         0
57.880        20
57.890        13
57.900        13
57.910         0
57.920         7
57.930        27
57.940        13
57.950        13
57.960        40
57.970        13
57.980         0
57.990        13
58.000        13
58.010        13
58.020         7
58.030         0
58.040         7
58.050         7
58.060         7
58.070        13
58.080         7
58.090        13
58.100        13
58.110        13
58.120         0
58.130        33
58.140        20
58.150         0
58.160        13
58.170        13
58.180         0
58.190        20
58.200        27
58.210        13
58.220        13
58.230        13
58.240         7
58.250        27
58.260         7
58.270        20
58.280         0
58.290        13
58.300         7
58.310         0
58.320         7
58.330         7
58.340         7
58.350        20
58.360        20
58.370        20
58.380         7
58.390        27
58.400        13
58.410        20
58.420        13
58.430         0
58.440        13
58.450        20
58.460        13
58.470        13
58.480         0
58.490        20
58.500        20
58.510        13
58.520         0
58.530        20
58.540        20
58.550        27
58.560        13
58.570        20
58.580        13
58.590        33
58.600         7
58.610        13
58.620         7
58.630        13
58.640        13
58.650         0
58.660        13
58.670         7
58.680         7
58.690         7
58.700         7
58.710         7
58.720        27
58.730        20
58.740        13
58.750        20
58.760         7
58.770        13
58.780        13
58.790         7
58.800         0
58.810        13
58.820         7
58.830         7
58.840        13
58.850        13
58.860         0
58.870        20
58.880        13
58.890        13
58.900        13
58.910        13
58.920         0
58.930        27
58.940         7
58.950        40
58.960        13
58.970        27
58.980        20
58.990         7
59.000         0
59.010        20
59.020        13
59.030        27
59.040        20
59.050        20
59.060        13
59.070        33
59.080         7
59.090         7
59.100        20
59.110         0
59.120        20
59.130         7
59.140        20
59.150        20
59.160         0
59.170        20
59.180        20
59.190        13
59.200        20
59.210         7
59.220         0
59.230         7
59.240        13
59.250        13
59.260        13
59.270        13
59.280        20
59.290         0
59.300        20
59.310         0
59.320        13
59.330        20
59.340         7
59.350         7
59.360        13
59.370        47
59.380        53
59.390        13
59.400         7
59.410        13
59.420        13
59.430        27
59.440        13
59.450        13
59.460        20
59.470        13
59.480         7
59.490         0
59.500        20
59.510        13
59.520         7
59.530        13
59.540        20
59.550         7
59.560         7
59.570        20
59.580        13
59.590        20
59.600         0
59.610        33
59.620         7
59.630        13
59.640         7
59.650        13
59.660         7
59.670        20
59.680        20
59.690        27
59.700        13
59.710         7
59.720        20
59.730        13
59.740         0
59.750        27
59.760         7
59.770        13
59.780        13
59.790         7
59.800        27
59.810        20
59.820        13
59.830        13
59.840         7
59.850        33
59.860        33
59.870        20
59.880        20
59.890        13
59.900        13
59.910        40
59.920         7
59.930         7
59.940        20
59.950        20
59.960        20
59.970         0
59.980         7
59.990         0
60.000         0
