20.000        33
20.010        33
20.020        60
20.030        67
20.040        40
20.050        13
20.060        47
20.070        47
20.080        13
20.090        40
20.100        20
20.110        47
20.120        53
20.130        20
20.140        20
20.150        47
20.160        27
20.170        33
20.180        13
20.190        33
20.200        73
20.210        13
20.220        40
20.230        27
20.240        40
20.250        47
20.260        67
20.270        27
20.280        67
20.290        20
20.300        27
20.310        47
20.320        47
20.330        53
20.340        20
20.350        20
20.360        20
20.370        60
20.380        40
20.390        27
20.400        47
20.410        40
20.420        67
20.430        33
20.440        33
20.450        60
20.460        20
20.470        40
20.480        47
20.490        47
20.500        53
20.510        60
20.520        40
20.530        27
20.540        53
20.550        40
20.560        13
20.570        47
20.580        53
20.590        47
20.600        33
20.610        40
20.620        60
20.630        40
20.640        33
20.650        13
20.660        47
20.670        47
20.680        33
20.690        53
20.700        40
20.710        53
20.720        27
20.730        47
20.740        67
20.750        47
20.760        40
20.770        47
20.780        40
20.790        47
20.800        60
20.810        47
20.820        27
20.830        27
20.840        33
20.850        20
20.860        27
20.870        67
20.880        60
20.890        20
20.900        53
20.910        33
20.920        60
20.930        53
20.940        40
20.950        20
20.960        60
20.970        27
20.980        27
20.990        67
21.000        13
21.010         0
21.020        47
21.030        40
21.040        53
21.050        60
21.060        60
21.070        40
21.080        47
21.090        40
21.100        20
21.110        33
21.120        60
21.130        53
21.140        20
21.150         7
21.160        33
21.170        33
21.180        33
21.190        20
21.200        20
21.210        73
21.220        60
21.230        20
21.240        33
21.250        27
21.260        40
21.270        40
21.280        33
21.290        27
21.300        40
21.310        33
21.320        53
21.330        33
21.340        20
21.350        47
21.360        13
21.370        33
21.380        60
21.390        33
21.400        33
21.410        40
21.420        40
21.430        33
21.440        33
21.450        40
21.460        20
21.470        47
21.480        47
21.490        60
21.500        20
21.510        27
21.520         7
21.530        47
21.540        33
21.550        27
21.560         0
21.570        53
21.580        20
21.590        47
21.600        20
21.610        27
21.620        27
21.630        33
21.640        33
21.650        33
21.660        47
21.670        67
21.680        60
21.690        67
21.700        47
21.710        47
21.720        27
21.730        27
21.740        20
21.750        73
21.760        27
21.770        40
21.780        33
21.790        53
21.800        53
21.810        33
21.820         7
21.830        20
21.840        27
21.850        40
21.860        60
21.870        40
21.880        40
21.890        20
21.900         7
21.910        40
21.920        13
21.930        40
21.940        60
21.950        40
21.960        40
21.970        27
21.980        40
21.990        20
22.000        47
22.010        27
22.020        13
22.030        40
22.040        33
22.050        40
22.060        33
22.070        27
22.080        13
22.090        20
22.100        13
22.110        27
22.120        40
22.130        60
22.140        47
22.150        40
22.160        47
22.170        33
22.180        40
22.190        27
22.200        27
22.210         7
22.220        27
22.230         7
22.240        20
22.250        20
22.260        80
22.270        40
22.280        20
22.290        40
22.300        60
22.310        40
22.320        47
22.330        40
22.340        27
22.350        27
22.360        47
22.370        93
22.380        67
22.390        87
22.400        60
22.410        27
22.420        47
22.430        73
22.440        47
22.450        73
22.460        87
22.470        93
22.480       113
22.490        80
22.500        80
22.510       147
22.520       113
22.530        87
22.540        87
22.550       107
22.560        93
22.570        80
22.580       113
22.590        93
22.600       153
22.610       187
22.620        80
22.630        67
22.640       120
22.650       133
22.660       107
22.670       147
22.680       100
22.690        53
22.700       100
22.710       100
22.720        40
22.730        73
22.740       100
22.750        73
22.760       153
22.770       113
22.780       133
22.790       193
22.800       187
22.810       200
22.820       260
22.830       233
22.840       233
22.850       240
22.860       220
22.870       293
22.880       287
22.890       273
22.900       327
22.910       300
22.920       320
22.930       253
22.940       293
22.950       273
22.960       180
22.970       167
22.980       160
22.990       153
23.000       140
23.010       127
23.020       173
23.030       140
23.040        87
23.050        93
23.060        60
23.070        33
23.080        87
23.090        40
23.100        53
23.110        40
23.120        60
23.130        27
23.140        13
23.150        47
23.160         7
23.170        40
23.180        60
23.190        13
23.200        53
23.210        27
23.220        73
23.230        33
23.240        40
23.250        47
23.260        27
23.270        27
23.280        67
23.290        40
23.300        33
23.310        53
23.320        33
23.330        13
23.340        47
23.350        33
23.360         7
23.370        60
23.380        20
23.390        53
23.400        67
23.410        27
23.420        33
23.430        33
23.440        20
23.450        40
23.460        53
23.470        47
23.480         7
23.490        60
23.500        27
23.510        33
23.520        33
23.530        53
23.540        73
23.550        33
23.560        33
23.570        20
23.580        27
23.590        33
23.600        20
23.610        27
23.620        60
23.630        27
23.640        53
23.650        33
23.660        13
23.670        27
23.680        47
23.690        33
23.700        47
23.710        33
23.720        27
23.730        33
23.740        20
23.750        53
23.760        53
23.770        27
23.780         7
23.790        40
23.800        60
23.810        13
23.820        33
23.830        20
23.840        33
23.850        80
23.860        47
23.870        33
23.880        40
23.890        27
23.900        27
23.910        33
23.920        27
23.930        33
23.940        33
23.950        47
23.960        27
23.970        80
23.980        27
23.990        60
24.000        47
24.010        40
24.020        53
24.030        53
24.040        40
24.050        20
24.060        27
24.070        40
24.080        27
24.090        33
24.100        13
24.110        27
24.120        20
24.130        53
24.140        20
24.150        33
24.160        33
24.170        27
24.180        53
24.190        13
24.200        20
24.210        40
24.220         7
24.230        27
24.240         7
24.250        33
24.260        33
24.270        27
24.280        33
24.290        40
24.300        33
24.310        33
24.320        60
24.330        13
24.340        27
24.350        33
24.360        27
24.370        27
24.380        13
24.390        47
24.400        33
24.410        20
24.420        27
24.430        33
24.440         7
24.450        40
24.460        27
24.470        40
24.480        53
24.490        33
24.500        47
24.510        20
24.520        40
24.530        33
24.540        20
24.550        27
24.560        13
24.570        33
24.580        20
24.590        73
24.600         7
24.610        47
24.620        20
24.630        47
24.640        60
24.650        13
24.660        27
24.670        20
24.680        27
24.690        40
24.700        20
24.710        20
24.720        20
24.730        33
24.740        40
24.750        47
24.760        27
24.770        13
24.780        60
24.790        27
24.800        20
24.810        27
24.820        13
24.830        40
24.840        27
24.850        13
24.860        13
24.870        33
24.880        20
24.890        53
24.900        53
24.910        53
24.920        53
24.930        47
24.940         7
24.950        33
24.960        40
24.970        20
24.980        20
24.990         7
25.000        33
25.010        13
25.020        20
25.030        53
25.040        47
25.050        53
25.060        47
25.070        53
25.080        27
25.090        13
25.100        27
25.110        53
25.120        20
25.130        13
25.140        53
25.150        33
25.160        40
25.170        33
25.180        47
25.190        27
25.200        33
25.210        33
25.220        20
25.230        40
25.240        27
25.250        13
25.260        20
25.270        20
25.280        13
25.290        40
25.300        33
25.310        87
25.320        33
25.330        20
25.340        73
25.350        53
25.360        47
25.370        40
25.380        40
25.390        60
25.400        27
25.410         0
25.420        33
25.430        40
25.440        27
25.450        33
25.460        40
25.470        20
25.480        33
25.490        33
25.500        47
25.510        27
25.520        53
25.530        33
25.540        40
25.550        53
25.560        73
25.570        80
25.580        80
25.590        53
25.600        60
25.610       100
25.620       120
25.630        73
25.640       113
25.650        67
25.660       113
25.670       100
25.680        47
25.690        87
25.700        53
25.710        47
25.720        40
25.730        53
25.740        40
25.750        33
25.760        53
25.770        67
25.780        33
25.790        47
25.800        53
25.810        40
25.820        47
25.830        13
25.840        53
25.850        53
25.860        53
25.870        40
25.880        40
25.890        40
25.900        40
25.910        40
25.920        47
25.930        20
25.940        20
25.950        20
25.960        20
25.970        40
25.980        40
25.990        67
26.000        53
26.010        13
26.020        33
26.030        27
26.040        47
26.050        27
26.060        40
26.070        47
26.080        27
26.090        27
26.100        47
26.110        33
26.120        20
26.130        20
26.140        33
26.150        20
26.160        27
26.170        87
26.180        20
26.190        20
26.200        33
26.210        47
26.220        33
26.230        27
26.240        13
26.250        40
26.260        20
26.270        73
26.280        27
26.290        40
26.300        40
26.310         7
26.320        27
26.330        40
26.340        20
26.350        40
26.360        27
26.370        33
26.380        27
26.390        60
26.400        33
26.410        33
26.420        47
26.430        20
26.440        20
26.450        53
26.460        27
26.470        27
26.480        27
26.490        13
26.500        40
26.510        40
26.520        13
26.530         7
26.540        40
26.550        13
26.560        20
26.570        20
26.580        33
26.590        13
26.600        13
26.610         7
26.620        27
26.630        13
26.640        40
26.650        27
26.660         7
26.670        40
26.680        33
26.690        33
26.700        27
26.710        20
26.720        33
26.730         7
26.740        20
26.750        20
26.760        20
26.770        27
26.780        33
26.790        33
26.800        13
26.810        53
26.820        27
26.830        33
26.840         7
26.850        47
26.860        60
26.870        27
26.880        13
26.890        33
26.900        40
26.910        20
26.920        20
26.930        13
26.940        33
26.950        40
26.960         7
26.970        33
26.980        27
26.990        47
27.000        33
27.010        33
27.020        13
27.030        47
27.040        27
27.050        47
27.060        27
27.070        40
27.080        33
27.090        53
27.100        33
27.110        40
27.120        27
27.130         0
27.140        67
27.150         7
27.160        33
27.170        27
27.180        27
27.190        13
27.200        60
27.210        47
27.220        47
27.230        20
27.240        33
27.250        20
27.260        47
27.270        67
27.280        33
27.290        53
27.300        60
27.310        53
27.320         7
27.330        27
27.340        33
27.350        27
27.360        40
27.370        27
27.380        33
27.390        27
27.400        33
27.410        27
27.420        60
27.430        13
27.440        20
27.450        27
27.460         7
27.470        20
27.480        27
27.490        20
27.500        20
27.510        47
27.520        33
27.530        20
27.540        40
27.550        67
27.560        27
27.570        53
27.580        40
27.590        13
27.600        53
27.610        60
27.620        40
27.630        67
27.640        80
27.650        73
27.660        47
27.670        53
27.680        60
27.690        93
27.700        87
27.710        47
27.720        67
27.730        87
27.740        67
27.750       120
27.760        80
27.770        87
27.780        73
27.790        53
27.800        40
27.810        80
27.820        47
27.830        60
27.840        27
27.850        60
27.860        40
27.870        60
27.880        53
27.890        33
27.900        53
27.910        47
27.920        53
27.930        40
27.940        40
27.950        53
27.960        73
27.970        27
27.980        60
27.990        60
28.000        53
28.010        47
28.020        40
28.030        47
28.040        33
28.050        40
28.060        73
28.070        53
28.080        40
28.090        40
28.100        53
28.110        13
28.120        47
28.130        53
28.140        27
28.150        53
28.160        53
28.170        47
28.180        27
28.190        33
28.200        40
28.210        60
28.220        47
28.230        33
28.240        73
28.250        33
28.260        47
28.270        67
28.280        33
28.290        27
28.300        53
28.310        60
28.320        80
28.330        33
28.340        20
28.350        40
28.360        33
28.370        73
28.380        27
28.390        33
28.400        47
28.410        27
28.420        40
28.430        60
28.440        40
28.450        40
28.460        73
28.470        47
28.480        27
28.490        53
28.500        73
28.510        60
28.520        73
28.530        27
28.540        53
28.550        80
28.560        40
28.570        53
28.580        80
28.590        93
28.600        80
28.610        73
28.620        47
28.630        80
28.640        47
28.650        53
28.660       100
28.670        60
28.680        73
28.690        40
28.700       107
28.710       120
28.720        73
28.730        73
28.740        80
28.750        93
28.760       147
28.770       133
28.780        80
28.790       140
28.800       140
28.810       147
28.820       153
28.830       133
28.840       180
28.850       140
28.860       233
28.870       173
28.880       173
28.890       247
28.900       207
28.910       167
28.920       127
28.930       173
28.940       160
28.950       200
28.960       233
28.970       273
28.980       227
28.990       167
29.000       180
29.010       167
29.020       180
29.030       133
29.040       173
29.050       120
29.060       193
29.070       160
29.080       147
29.090        93
29.100       140
29.110       107
29.120       133
29.130       127
29.140       120
29.150        93
29.160       153
29.170       120
29.180       133
29.190        93
29.200        80
29.210       100
29.220        80
29.230        87
29.240        87
29.250        87
29.260        60
29.270        60
29.280        27
29.290        33
29.300        87
29.310        20
29.320        67
29.330        53
29.340        53
29.350        53
29.360        40
29.370        53
29.380        27
29.390        60
29.400        33
29.410        60
29.420        47
29.430        80
29.440        67
29.450        47
29.460        53
29.470        27
29.480        47
29.490        27
29.500        33
29.510        73
29.520        60
29.530        73
29.540        47
29.550        40
29.560        47
29.570        53
29.580        27
29.590        27
29.600        67
29.610        27
29.620        40
29.630        47
29.640        33
29.650        67
29.660        33
29.670        53
29.680        33
29.690        27
29.700        40
29.710        13
29.720        53
29.730         7
29.740        53
29.750        40
29.760        40
29.770        20
29.780        27
29.790        27
29.800        40
29.810        20
29.820        53
29.830        27
29.840        47
29.850        53
29.860        27
29.870        33
29.880        60
29.890        27
29.900        27
29.910        20
29.920        27
29.930        27
29.940        33
29.950        27
29.960        13
29.970        33
29.980        33
29.990        20
30.000        40
30.010        13
30.020        40
30.030        27
30.040        40
30.050        20
30.060        13
30.070        27
30.080        40
30.090         7
30.100        20
30.110        27
30.120        47
30.130        27
30.140        13
30.150        27
30.160        40
30.170        47
30.180        27
30.190         7
30.200        33
30.210        33
30.220        13
30.230        33
30.240        13
30.250        40
30.260        27
30.270        13
30.280        40
30.290        40
30.300        33
30.310        13
30.320         0
30.330        20
30.340        47
30.350        33
30.360        40
30.370        33
30.380        40
30.390        40
30.400        27
30.410         7
30.420        60
30.430        67
30.440        80
30.450        53
30.460        27
30.470        27
30.480        47
30.490        73
30.500        27
30.510        33
30.520        47
30.530        40
30.540        27
30.550        13
30.560        40
30.570        33
30.580        40
30.590        40
30.600        13
30.610        13
30.620        27
30.630         7
30.640        40
30.650        27
30.660        27
30.670        27
30.680        40
30.690        47
30.700        20
30.710        27
30.720        33
30.730        27
30.740        27
30.750        20
30.760        33
30.770        33
30.780        53
30.790        33
30.800        27
30.810        13
30.820         0
30.830        20
30.840        40
30.850        40
30.860        27
30.870        13
30.880        27
30.890        20
30.900        20
30.910        20
30.920        40
30.930        13
30.940        13
30.950         7
30.960        40
30.970        27
30.980        27
30.990        40
31.000        27
31.010        40
31.020         0
31.030        47
31.040        13
31.050         0
31.060         7
31.070        47
31.080        27
31.090        27
31.100        27
31.110        40
31.120        33
31.130        27
31.140        33
31.150        13
31.160        33
31.170        13
31.180        33
31.190        20
31.200        20
31.210        27
31.220        13
31.230        20
31.240        20
31.250        40
31.260        33
31.270        27
31.280        27
31.290        47
31.300        20
31.310        40
31.320        47
31.330         7
31.340        40
31.350        13
31.360        13
31.370        27
31.380         7
31.390        27
31.400        27
31.410        13
31.420        33
31.430        40
31.440        33
31.450        27
31.460        20
31.470        20
31.480        27
31.490        33
31.500        33
31.510        27
31.520        27
31.530        13
31.540        27
31.550        33
31.560        13
31.570        40
31.580        27
31.590        27
31.600         7
31.610        20
31.620         7
31.630        40
31.640        40
31.650        53
31.660        20
31.670        13
31.680        20
31.690        53
31.700        27
31.710        20
31.720        20
31.730        27
31.740        27
31.750        20
31.760        27
31.770        33
31.780        20
31.790        13
31.800         7
31.810        27
31.820        47
31.830        33
31.840        13
31.850        27
31.860        20
31.870        40
31.880        33
31.890        20
31.900        33
31.910        60
31.920        27
31.930        33
31.940        40
31.950        40
31.960        47
31.970        40
31.980        60
31.990        40
32.000        73
32.010        33
32.020        67
32.030        33
32.040        27
32.050        53
32.060        33
32.070        87
32.080        73
32.090       120
32.100        80
32.110        60
32.120        73
32.130        80
32.140        87
32.150        67
32.160        47
32.170        60
32.180        33
32.190        67
32.200        53
32.210        53
32.220        47
32.230        87
32.240        27
32.250        73
32.260        47
32.270        40
32.280        40
32.290        13
32.300        33
32.310        20
32.320        20
32.330        47
32.340        40
32.350        27
32.360        13
32.370        27
32.380        13
32.390        20
32.400        27
32.410        33
32.420        33
32.430        60
32.440        47
32.450        60
32.460        13
32.470        27
32.480        33
32.490        20
32.500        47
32.510        13
32.520        27
32.530        27
32.540        13
32.550        13
32.560         7
32.570        40
32.580        33
32.590         7
32.600        40
32.610        33
32.620        20
32.630        13
32.640         7
32.650         7
32.660        40
32.670        33
32.680        53
32.690        27
32.700        33
32.710         0
32.720        20
32.730        33
32.740        27
32.750        47
32.760        27
32.770        33
32.780        27
32.790        20
32.800        27
32.810         7
32.820        33
32.830        33
32.840        33
32.850        27
32.860        20
32.870        27
32.880        13
32.890         0
32.900         7
32.910        33
32.920        20
32.930        53
32.940        27
32.950        20
32.960        13
32.970        20
32.980        13
32.990         7
33.000        20
33.010        33
33.020        27
33.030        13
33.040        13
33.050         7
33.060        40
33.070        27
33.080        13
33.090        33
33.100        13
33.110        20
33.120        40
33.130        40
33.140        33
33.150        20
33.160        13
33.170        47
33.180        20
33.190        20
33.200        27
33.210        27
33.220        27
33.230         7
33.240        20
33.250        40
33.260        33
33.270        13
33.280         0
33.290         7
33.300        13
33.310         7
33.320        33
33.330        13
33.340        27
33.350        40
33.360        40
33.370         7
33.380        13
33.390        47
33.400        20
33.410        27
33.420        20
33.430        33
33.440        27
33.450        20
33.460        13
33.470         7
33.480        33
33.490         7
33.500        27
33.510        20
33.520        13
33.530         7
33.540        20
33.550        40
33.560        27
33.570         7
33.580        47
33.590        20
33.600         7
33.610        13
33.620        20
33.630        27
33.640        33
33.650         0
33.660        27
33.670         7
33.680        27
33.690        27
33.700        47
33.710        13
33.720        47
33.730        40
33.740        13
33.750        20
33.760        13
33.770        27
33.780         7
33.790         0
33.800         0
33.810         7
33.820        20
33.830        20
33.840         7
33.850        27
33.860        33
33.870        13
33.880        33
33.890        20
33.900        27
33.910        13
33.920        13
33.930        47
33.940         0
33.950        53
33.960        20
33.970        27
33.980         7
33.990        33
34.000         7
34.010        33
34.020        40
34.030        13
34.040        27
34.050        13
34.060        20
34.070        33
34.080        13
34.090        27
34.100        13
34.110        13
34.120        40
34.130         0
34.140        20
34.150        13
34.160         7
34.170        27
34.180         0
34.190        53
34.200        33
34.210        13
34.220         7
34.230        27
34.240        13
34.250        13
34.260        13
34.270        20
34.280         7
34.290        20
34.300        27
34.310         7
34.320        13
34.330        33
34.340        33
34.350        33
34.360        40
34.370        27
34.380        27
34.390         0
34.400        27
34.410        20
34.420        33
34.430        13
34.440        20
34.450        47
34.460        53
34.470        27
34.480        47
34.490        40
34.500        13
34.510        27
34.520        20
34.530        47
34.540        20
34.550        27
34.560        53
34.570        33
34.580        60
34.590        33
34.600        27
34.610        27
34.620        53
34.630        40
34.640        33
34.650        20
34.660        27
34.670        33
34.680         7
34.690        20
34.700        27
34.710        40
34.720        20
34.730         0
34.740        27
34.750         7
34.760        33
34.770        27
34.780        40
34.790        27
34.800        20
34.810        13
34.820        20
34.830         7
34.840        27
34.850        33
34.860        33
34.870        27
34.880         0
34.890        13
34.900        67
34.910        40
34.920        20
34.930        40
34.940        27
34.950        13
34.960        13
34.970        47
34.980        27
34.990        47
35.000        20
35.010        27
35.020        33
35.030        13
35.040        40
35.050        47
35.060        93
35.070        40
35.080        87
35.090        67
35.100       133
35.110        93
35.120        60
35.130       127
35.140        73
35.150        60
35.160        33
35.170        47
35.180        47
35.190        60
35.200        27
35.210       100
35.220        67
35.230        73
35.240        33
35.250        40
35.260        47
35.270        40
35.280        33
35.290        40
35.300        27
35.310        20
35.320        40
35.330         0
35.340        47
35.350        40
35.360        40
35.370        40
35.380        33
35.390         0
35.400         0
35.410        53
35.420         7
35.430        33
35.440        27
35.450        33
35.460        13
35.470        20
35.480        20
35.490        13
35.500        33
35.510        33
35.520        13
35.530        13
35.540        27
35.550        20
35.560        27
35.570         7
35.580         0
35.590        40
35.600        40
35.610         7
35.620        20
35.630         0
35.640        20
35.650        27
35.660        13
35.670        27
35.680        33
35.690        13
35.700        33
35.710         7
35.720         7
35.730         7
35.740        13
35.750         7
35.760        47
35.770        33
35.780        20
35.790        20
35.800         7
35.810        27
35.820        20
35.830        20
35.840        27
35.850        27
35.860         7
35.870        20
35.880        27
35.890        33
35.900        27
35.910        20
35.920        13
35.930        40
35.940        33
35.950        33
35.960        27
35.970        40
35.980        33
35.990        20
36.000        27
36.010         7
36.020        27
36.030        13
36.040        13
36.050        20
36.060        13
36.070         7
36.080        20
36.090        13
36.100        33
36.110        20
36.120        40
36.130        13
36.140        27
36.150        47
36.160        33
36.170        20
36.180        13
36.190        20
36.200        20
36.210         7
36.220        20
36.230        13
36.240        13
36.250        20
36.260         0
36.270        20
36.280        13
36.290        40
36.300        20
36.310        20
36.320        13
36.330        27
36.340        27
36.350        20
36.360        20
36.370        13
36.380        27
36.390        13
36.400        13
36.410        13
36.420        20
36.430        27
36.440        33
36.450        13
36.460         7
36.470         7
36.480        27
36.490        27
36.500        20
36.510        13
36.520        33
36.530        27
36.540        20
36.550         7
36.560        20
36.570        33
36.580        20
36.590        27
36.600         7
36.610        27
36.620         0
36.630        53
36.640         7
36.650        20
36.660        20
36.670        40
36.680        20
36.690        13
36.700        27
36.710        27
36.720        13
36.730        20
36.740        40
36.750        27
36.760        33
36.770        47
36.780        33
36.790         7
36.800        33
36.810        27
36.820         7
36.830        40
36.840         7
36.850         0
36.860         7
36.870        20
36.880        20
36.890        33
36.900        47
36.910        60
36.920        20
36.930        33
36.940        27
36.950        33
36.960        53
36.970         0
36.980         7
36.990        20
37.000        33
37.010        47
37.020        27
37.030        47
37.040        20
37.050         7
37.060        40
37.070         7
37.080        40
37.090        20
37.100        53
37.110        40
37.120        27
37.130        20
37.140        20
37.150        27
37.160        20
37.170        13
37.180        40
37.190        20
37.200        20
37.210        20
37.220        20
37.230         7
37.240        27
37.250         0
37.260        27
37.270        40
37.280        33
37.290        27
37.300        33
37.310        20
37.320        33
37.330        40
37.340        13
37.350         0
37.360        27
37.370        33
37.380        20
37.390        33
37.400        20
37.410         0
37.420         7
37.430         7
37.440        13
37.450        20
37.460        20
37.470         7
37.480        27
37.490        20
37.500        13
37.510         7
37.520        20
37.530        20
37.540        20
37.550        13
37.560        27
37.570        33
37.580        27
37.590        27
37.600        20
37.610        13
37.620        20
37.630        13
37.640        20
37.650        27
37.660        47
37.670        33
37.680        27
37.690        60
37.700        93
37.710        73
37.720        47
37.730        80
37.740        73
37.750        53
37.760        87
37.770        93
37.780        73
37.790        93
37.800        87
37.810        87
37.820       113
37.830        53
37.840        53
37.850        53
37.860        20
37.870        13
37.880        47
37.890        27
37.900        27
37.910        33
37.920        33
37.930        40
37.940         7
37.950        47
37.960        20
37.970        20
37.980        60
37.990         7
38.000        20
38.010        27
38.020        27
38.030        20
38.040        20
38.050        27
38.060         7
38.070        33
38.080        13
38.090        27
38.100        47
38.110        27
38.120        20
38.130        13
38.140        13
38.150        20
38.160        33
38.170        40
38.180        20
38.190        27
38.200        13
38.210        27
38.220        33
38.230        33
38.240        53
38.250        67
38.260        47
38.270        13
38.280        27
38.290        33
38.300         0
38.310        27
38.320        20
38.330        33
38.340        40
38.350        20
38.360        33
38.370        27
38.380        33
38.390        27
38.400        27
38.410        20
38.420        20
38.430        20
38.440         0
38.450        47
38.460        13
38.470        33
38.480        13
38.490        33
38.500        40
38.510        27
38.520        20
38.530        20
38.540        27
38.550        13
38.560        20
38.570         7
38.580        27
38.590        13
38.600        33
38.610        53
38.620        13
38.630         0
38.640         7
38.650         7
38.660        20
38.670        20
38.680         7
38.690        27
38.700        33
38.710         0
38.720        20
38.730        13
38.740        53
38.750        20
38.760        20
38.770        47
38.780        47
38.790        20
38.800        27
38.810         0
38.820        27
38.830        13
38.840        13
38.850        40
38.860        27
38.870        40
38.880        13
38.890        13
38.900        47
38.910        73
38.920        33
38.930        20
38.940        13
38.950        13
38.960        20
38.970         7
38.980        20
38.990        20
39.000        13
39.010        20
39.020        33
39.030        20
39.040        40
39.050        33
39.060         7
39.070        20
39.080        33
39.090        20
39.100        53
39.110        27
39.120         7
39.130        40
39.140         7
39.150        20
39.160        13
39.170        13
39.180        20
39.190        20
39.200        20
39.210         7
39.220        13
39.230        13
39.240        33
39.250        20
39.260         7
39.270        27
39.280        33
39.290        27
39.300        20
39.310         7
39.320        33
39.330        27
39.340        33
39.350        27
39.360        20
39.370        20
39.380        20
39.390        20
39.400        20
39.410         7
39.420         7
39.430        40
39.440        27
39.450        27
39.460        27
39.470        13
39.480        13
39.490        20
39.500        13
39.510        20
39.520         7
39.530         0
39.540        20
39.550        13
39.560        13
39.570        27
39.580         7
39.590        47
39.600        20
39.610        13
39.620        13
39.630        20
39.640        20
39.650        40
39.660        33
39.670        47
39.680        20
39.690        40
39.700        40
39.710        20
39.720        13
39.730        20
39.740        33
39.750        47
39.760        13
39.770        27
39.780        33
39.790        40
39.800         7
39.810        47
39.820         7
39.830         7
39.840        47
39.850        20
39.860        20
39.870        13
39.880        33
39.890        33
39.900         7
39.910         7
39.920        20
39.930        40
39.940        40
39.950        33
39.960         7
39.970         7
39.980         7
39.990         0
40.000        13
40.010        33
40.020        47
40.030        13
40.040        27
40.050         7
40.060        13
40.070        40
40.080        27
40.090        13
40.100         7
40.110        27
40.120         7
40.130         7
40.140        13
40.150        33
40.160         7
40.170        20
40.180         0
40.190        27
40.200        20
40.210        20
40.220        13
40.230        13
40.240        20
40.250        20
40.260        20
40.270        33
40.280        13
40.290        33
40.300        33
40.310        20
40.320        27
40.330        27
40.340        13
40.350        13
40.360        40
40.370        13
40.380        20
40.390        33
40.400        27
40.410         0
40.420         7
40.430        27
40.440         7
40.450        27
40.460        27
40.470        20
40.480        27
40.490        40
40.500        33
40.510        13
40.520         7
40.530         7
40.540        13
40.550        13
40.560        20
40.570        27
40.580         0
40.590        33
40.600        33
40.610        13
40.620         7
40.630         7
40.640        20
40.650        33
40.660         7
40.670        13
40.680        13
40.690        13
40.700        27
40.710        20
40.720        27
40.730        20
40.740        33
40.750        27
40.760         7
40.770         0
40.780        27
40.790        33
40.800        13
40.810        13
40.820        20
40.830        20
40.840         7
40.850        20
40.860        20
40.870        33
40.880        13
40.890        20
40.900        27
40.910        13
40.920        47
40.930         7
40.940        20
40.950         7
40.960        40
40.970        13
40.980        27
40.990         7
41.000         0
41.010        20
41.020        20
41.030        20
41.040         7
41.050        13
41.060         0
41.070        40
41.080         7
41.090         7
41.100        27
41.110        13
41.120        27
41.130         7
41.140        27
41.150        13
41.160        33
41.170         7
41.180         7
41.190        20
41.200        20
41.210         7
41.220        13
41.230        13
41.240        20
41.250        33
41.260         0
41.270         7
41.280        27
41.290        20
41.300        13
41.310         7
41.320         7
41.330        33
41.340        20
41.350        13
41.360        27
41.370        40
41.380        13
41.390        27
41.400         7
41.410        33
41.420        20
41.430        27
41.440        27
41.450         7
41.460        13
41.470        13
41.480        13
41.490        27
41.500        47
41.510        13
41.520        27
41.530         7
41.540        20
41.550        20
41.560        27
41.570        47
41.580        20
41.590        67
41.600        53
41.610        53
41.620        33
41.630        60
41.640       120
41.650        47
41.660       100
41.670        53
41.680        93
41.690        73
41.700        80
41.710       113
41.720        80
41.730        67
41.740        67
41.750        80
41.760        53
41.770        53
41.780        80
41.790        53
41.800        80
41.810        60
41.820        60
41.830         7
41.840        40
41.850        13
41.860        33
41.870        27
41.880        13
41.890        67
41.900        27
41.910        13
41.920        47
41.930        20
41.940        27
41.950        33
41.960        20
41.970        33
41.980        13
41.990        20
42.000        33
42.010        27
42.020        27
42.030        33
42.040         7
42.050        60
42.060        33
42.070        33
42.080        20
42.090        40
42.100        27
42.110        40
42.120        33
42.130        20
42.140         7
42.150        13
42.160        33
42.170        40
42.180        27
42.190        27
42.200        53
42.210        33
42.220        13
42.230        20
42.240        13
42.250        27
42.260         7
42.270        33
42.280        13
42.290        33
42.300        13
42.310        20
42.320         7
42.330        27
42.340        20
42.350        27
42.360        47
42.370        13
42.380        27
42.390        27
42.400        13
42.410        27
42.420        13
42.430        47
42.440        27
42.450        40
42.460        20
42.470        13
42.480        20
42.490        27
42.500        13
42.510        20
42.520         7
42.530        40
42.540        47
42.550        13
42.560         7
42.570        27
42.580        13
42.590         7
42.600        13
42.610        13
42.620        13
42.630        40
42.640        33
42.650        33
42.660        33
42.670        27
42.680        13
42.690         7
42.700        20
42.710        20
42.720        27
42.730        33
42.740        47
42.750        13
42.760        13
42.770         7
42.780        27
42.790        13
42.800        27
42.810        47
42.820        20
42.830        13
42.840         0
42.850         7
42.860        20
42.870        27
42.880        13
42.890        27
42.900        27
42.910        27
42.920        13
42.930        33
42.940        13
42.950        13
42.960         7
42.970        33
42.980        20
42.990        13
43.000        20
43.010        13
43.020        33
43.030        20
43.040        33
43.050        20
43.060         7
43.070        20
43.080        27
43.090         7
43.100        40
43.110        13
43.120        40
43.130        27
43.140        20
43.150         7
43.160        13
43.170        27
43.180        27
43.190        20
43.200        20
43.210        40
43.220        27
43.230        53
43.240        27
43.250        33
43.260        40
43.270        13
43.280        60
43.290        53
43.300        67
43.310       153
43.320       200
43.330       227
43.340       200
43.350       200
43.360       267
43.370       307
43.380       200
43.390       180
43.400       113
43.410        73
43.420       120
43.430       107
43.440       107
43.450       120
43.460       133
43.470       120
43.480       167
43.490       113
43.500        93
43.510       107
43.520        80
43.530        53
43.540        80
43.550        20
43.560        20
43.570        27
43.580         7
43.590        20
43.600         7
43.610        13
43.620        13
43.630        47
43.640         0
43.650        13
43.660        13
43.670        40
43.680        27
43.690        20
43.700         7
43.710        33
43.720        13
43.730        20
43.740        20
43.750        13
43.760        13
43.770        20
43.780        13
43.790        33
43.800        20
43.810        20
43.820        13
43.830         7
43.840        40
43.850        13
43.860        20
43.870        27
43.880        27
43.890        27
43.900         7
43.910        27
43.920         7
43.930        20
43.940        13
43.950        20
43.960        20
43.970        13
43.980        27
43.990        20
44.000        20
44.010        20
44.020        13
44.030        27
44.040        47
44.050        27
44.060        13
44.070        20
44.080         7
44.090        40
44.100        20
44.110        40
44.120        40
44.130        13
44.140        33
44.150         0
44.160        27
44.170        13
44.180        33
44.190         7
44.200        13
44.210        33
44.220        20
44.230        13
44.240         7
44.250        13
44.260        33
44.270        13
44.280         7
44.290         0
44.300         7
44.310        13
44.320         0
44.330        20
44.340        13
44.350        20
44.360        67
44.370        20
44.380        20
44.390        20
44.400        13
44.410        13
44.420        33
44.430        20
44.440        27
44.450         7
44.460         7
44.470         7
44.480        33
44.490         7
44.500        13
44.510        33
44.520         7
44.530        13
44.540         7
44.550        20
44.560        13
44.570        20
44.580        13
44.590        13
44.600        47
44.610         7
44.620        27
44.630         7
44.640        20
44.650         7
44.660        13
44.670        20
44.680        20
44.690         7
44.700         0
44.710        13
44.720        20
44.730        13
44.740        27
44.750        13
44.760        27
44.770        67
44.780        27
44.790        13
44.800        20
44.810        27
44.820        27
44.830        13
44.840        40
44.850        27
44.860         7
44.870        40
44.880        13
44.890        13
44.900        13
44.910        13
44.920        40
44.930         7
44.940        27
44.950         7
44.960         7
44.970         0
44.980        27
44.990         7
45.000        27
45.010        40
45.020        13
45.030         7
45.040        13
45.050         0
45.060        13
45.070        33
45.080         7
45.090         7
45.100         7
45.110        33
45.120        27
45.130        27
45.140        13
45.150         7
45.160        27
45.170         7
45.180         7
45.190        20
45.200        13
45.210        40
45.220        47
45.230        40
45.240        20
45.250         7
45.260        33
45.270        13
45.280        20
45.290        13
45.300        27
45.310         7
45.320         0
45.330        13
45.340        13
45.350         7
45.360        20
45.370         7
45.380        40
45.390        47
45.400        13
45.410        47
45.420         7
45.430         7
45.440        27
45.450        13
45.460        27
45.470        53
45.480        27
45.490        27
45.500         7
45.510        20
45.520        47
45.530        27
45.540         7
45.550         7
45.560        33
45.570        27
45.580        40
45.590        20
45.600        13
45.610        27
45.620        20
45.630        13
45.640         0
45.650        27
45.660        27
45.670         7
45.680        33
45.690        20
45.700        53
45.710        33
45.720        13
45.730        13
45.740        47
45.750        40
45.760         7
45.770        13
45.780        53
45.790        33
45.800        27
45.810        13
45.820        13
45.830        33
45.840        33
45.850        33
45.860        40
45.870        40
45.880        47
45.890        20
45.900        93
45.910        80
45.920        27
45.930        80
45.940        53
45.950       107
45.960       100
45.970        73
45.980       107
45.990        67
46.000        40
46.010        53
46.020        33
46.030        40
46.040        67
46.050        53
46.060        53
46.070        93
46.080        73
46.090        80
46.100       107
46.110        47
46.120        87
46.130        80
46.140        60
46.150        93
46.160        40
46.170        47
46.180        20
46.190        67
46.200        47
46.210        67
46.220        40
46.230        33
46.240        53
46.250        53
46.260        13
46.270        67
46.280         7
46.290        33
46.300        27
46.310        73
46.320        20
46.330        20
46.340         7
46.350        13
46.360        13
46.370        20
46.380        33
46.390        40
46.400        47
46.410        47
46.420        13
46.430        20
46.440        20
46.450        33
46.460        87
46.470        20
46.480        67
46.490        53
46.500        27
46.510         7
46.520        27
46.530        33
46.540        20
46.550        60
46.560        27
46.570        60
46.580        60
46.590        73
46.600        60
46.610       100
46.620        87
46.630       167
46.640       173
46.650       153
46.660        93
46.670       153
46.680       173
46.690       160
46.700       207
46.710       187
46.720       253
46.730       193
46.740       220
46.750       253
46.760       193
46.770       227
46.780       287
46.790       240
46.800       227
46.810       200
46.820       207
46.830       227
46.840       207
46.850       147
46.860       180
46.870       247
46.880       207
46.890       173
46.900       220
46.910       213
46.920       113
46.930       173
46.940       140
46.950       187
46.960       140
46.970       127
46.980        67
46.990        60
47.000        80
47.010        67
47.020        53
47.030        60
47.040        13
47.050        93
47.060        60
47.070        73
47.080        13
47.090        47
47.100        40
47.110        33
47.120        47
47.130        53
47.140        47
47.150        40
47.160        73
47.170        20
47.180        33
47.190        20
47.200        20
47.210        13
47.220        40
47.230        40
47.240        47
47.250        33
47.260        13
47.270        20
47.280        20
47.290        27
47.300        13
47.310        33
47.320        20
47.330        13
47.340        27
47.350        40
47.360         0
47.370        60
47.380        27
47.390        47
47.400        33
47.410        20
47.420        33
47.430        33
47.440        13
47.450        33
47.460        13
47.470        20
47.480         7
47.490        33
47.500        20
47.510        20
47.520        27
47.530         7
47.540        27
47.550        33
47.560        33
47.570        33
47.580         7
47.590        40
47.600        20
47.610        20
47.620        13
47.630        13
47.640         7
47.650        33
47.660        20
47.670        20
47.680        53
47.690        20
47.700        13
47.710        27
47.720        27
47.730        13
47.740         7
47.750         7
47.760        13
47.770        20
47.780        20
47.790        13
47.800        40
47.810         7
47.820        13
47.830        27
47.840        13
47.850         7
47.860        33
47.870        27
47.880        27
47.890        13
47.900        27
47.910        13
47.920        27
47.930        13
47.940         7
47.950        27
47.960         0
47.970         0
47.980        13
47.990        53
48.000        27
48.010        27
48.020        13
48.030        20
48.040        27
48.050         7
48.060        53
48.070        27
48.080        27
48.090         7
48.100        27
48.110        13
48.120        20
48.130        13
48.140        33
48.150         7
48.160        13
48.170        13
48.180        13
48.190        27
48.200        20
48.210        13
48.220        27
48.230        20
48.240        40
48.250        20
48.260        20
48.270         7
48.280        13
48.290        20
48.300        20
48.310        33
48.320        20
48.330         7
48.340        20
48.350        40
48.360        27
48.370        13
48.380        13
48.390         0
48.400        13
48.410         7
48.420        13
48.430        20
48.440        13
48.450        27
48.460        13
48.470        13
48.480        27
48.490        13
48.500        27
48.510        33
48.520        13
48.530        27
48.540        20
48.550        40
48.560        13
48.570        20
48.580        20
48.590         7
48.600        27
48.610        33
48.620         7
48.630         7
48.640        27
48.650         7
48.660         7
48.670        20
48.680        13
48.690        13
48.700        33
48.710        13
48.720        13
48.730         7
48.740        20
48.750        27
48.760        40
48.770        13
48.780        20
48.790        13
48.800         7
48.810        20
48.820        13
48.830        20
48.840        13
48.850        67
48.860        20
48.870        13
48.880        33
48.890         7
48.900         7
48.910        20
48.920         0
48.930        33
48.940         0
48.950        27
48.960        20
48.970        13
48.980        60
48.990         7
49.000        33
49.010        27
49.020        27
49.030        13
49.040        20
49.050        13
49.060        13
49.070        13
49.080        13
49.090        33
49.100        27
49.110        20
49.120         7
49.130        20
49.140        47
49.150        13
49.160        20
49.170        20
49.180        13
49.190        20
49.200        33
49.210         0
49.220         7
49.230        33
49.240        20
49.250        20
49.260         7
49.270        27
49.280        27
49.290        33
49.300        20
49.310        13
49.320        27
49.330        13
49.340        20
49.350         7
49.360        53
49.370        27
49.380        40
49.390        13
49.400        13
49.410        13
49.420        40
49.430        27
49.440        20
49.450        20
49.460        33
49.470        13
49.480        20
49.490        27
49.500        13
49.510        13
49.520        13
49.530        20
49.540        13
49.550        33
49.560        13
49.570        20
49.580         7
49.590         7
49.600         7
49.610        20
49.620        20
49.630        60
49.640        33
49.650        40
49.660        20
49.670        47
49.680        13
49.690        47
49.700        20
49.710        13
49.720        20
49.730        20
49.740        27
49.750        13
49.760        33
49.770        20
49.780        13
49.790        47
49.800        27
49.810        33
49.820        13
49.830         7
49.840        20
49.850        13
49.860        13
49.870        20
49.880        33
49.890        20
49.900         7
49.910        27
49.920        20
49.930        20
49.940        27
49.950         0
49.960        53
49.970        20
49.980        20
49.990        20
50.000        13
50.010        27
50.020        20
50.030        20
50.040        13
50.050        27
50.060        13
50.070        27
50.080        13
50.090        33
50.100        27
50.110        20
50.120        20
50.130        40
50.140         7
50.150         7
50.160        27
50.170        27
50.180        33
50.190        13
50.200         7
50.210        20
50.220        47
50.230        20
50.240        40
50.250        27
50.260        33
50.270        27
50.280         7
50.290         7
50.300        27
50.310        53
50.320        20
50.330        60
50.340        33
50.350        40
50.360        20
50.370        13
50.380        53
50.390        27
50.400         7
50.410        33
50.420        20
50.430        27
50.440        60
50.450        53
50.460        47
50.470        13
50.480        33
50.490        33
50.500        27
50.510        20
50.520        20
50.530         0
50.540        20
50.550        20
50.560        33
50.570        13
50.580        53
50.590         7
50.600         7
50.610        27
50.620         7
50.630         0
50.640        27
50.650        13
50.660        20
50.670        33
50.680         7
50.690         7
50.700         0
50.710        20
50.720        13
50.730        40
50.740        33
50.750        20
50.760        20
50.770        13
50.780        13
50.790         7
50.800        13
50.810         0
50.820         7
50.830         7
50.840        27
50.850         7
50.860        13
50.870        20
50.880         7
50.890         7
50.900        27
50.910         7
50.920        13
50.930         0
50.940        27
50.950        20
50.960        33
50.970         7
50.980        27
50.990        33
51.000        27
51.010        13
51.020        27
51.030         0
51.040         0
51.050        13
51.060        33
51.070        20
51.080         0
51.090        33
51.100        13
51.110        33
51.120         7
51.130        13
51.140        20
51.150        40
51.160         7
51.170        33
51.180        33
51.190        20
51.200        13
51.210        13
51.220        20
51.230         7
51.240        13
51.250         7
51.260        27
51.270        27
51.280        20
51.290        13
51.300        20
51.310        13
51.320        20
51.330         7
51.340        20
51.350        13
51.360        13
51.370         7
51.380        27
51.390        27
51.400         7
51.410        13
51.420        47
51.430         7
51.440        20
51.450        20
51.460        27
51.470        20
51.480        13
51.490        20
51.500        27
51.510        27
51.520        13
51.530        27
51.540        27
51.550        20
51.560        13
51.570         0
51.580        20
51.590        33
51.600         7
51.610        27
51.620        13
51.630        13
51.640        33
51.650        20
51.660        27
51.670        13
51.680        13
51.690         0
51.700        13
51.710        20
51.720        27
51.730        20
51.740         7
51.750        13
51.760        13
51.770        27
51.780        27
51.790        13
51.800        27
51.810        20
51.820        33
51.830        33
51.840        27
51.850        20
51.860        13
51.870        40
51.880        40
51.890        53
51.900        33
51.910        27
51.920        27
51.930        27
51.940        27
51.950        13
51.960         0
51.970        27
51.980        20
51.990        33
52.000        33
52.010        40
52.020         7
52.030        27
52.040        27
52.050        13
52.060         7
52.070        20
52.080         7
52.090        13
52.100         7
52.110        27
52.120        27
52.130         7
52.140         7
52.150        20
52.160        13
52.170        40
52.180        20
52.190        20
52.200        13
52.210         7
52.220        13
52.230        47
52.240        13
52.250        20
52.260        27
52.270        13
52.280        47
52.290        20
52.300        33
52.310        27
52.320        33
52.330        33
52.340         0
52.350        40
52.360         7
52.370        33
52.380        27
52.390        27
52.400        53
52.410        13
52.420        20
52.430        33
52.440        20
52.450        20
52.460        20
52.470        33
52.480        33
52.490        20
52.500        27
52.510        33
52.520        33
52.530         0
52.540        53
52.550        27
52.560        60
52.570        33
52.580        27
52.590        80
52.600        53
52.610        27
52.620        27
52.630        53
52.640        33
52.650         0
52.660        20
52.670        33
52.680        20
52.690        53
52.700        27
52.710         7
52.720        27
52.730        20
52.740        47
52.750        40
52.760         7
52.770         7
52.780        20
52.790        20
52.800         7
52.810         7
52.820        13
52.830        13
52.840        13
52.850        33
52.860        13
52.870        27
52.880        13
52.890         0
52.900        13
52.910        40
52.920        13
52.930        20
52.940        40
52.950        13
52.960        13
52.970         7
52.980         7
52.990        20
53.000        13
53.010        27
53.020        13
53.030         7
53.040        27
53.050        20
53.060        20
53.070         0
53.080        20
53.090        20
53.100        13
53.110        13
53.120        40
53.130         7
53.140        33
53.150        13
53.160         0
53.170        33
53.180        13
53.190         7
53.200        13
53.210        20
53.220        20
53.230        27
53.240        27
53.250         7
53.260        20
53.270        27
53.280        20
53.290        20
53.300        13
53.310         7
53.320        33
53.330        20
53.340         7
53.350        20
53.360         7
53.370        13
53.380        33
53.390        20
53.400        20
53.410        13
53.420         7
53.430        27
53.440        13
53.450        20
53.460        27
53.470        13
53.480        27
53.490        33
53.500        20
53.510        33
53.520        13
53.530        33
53.540        20
53.550        20
53.560        33
53.570        33
53.580        20
53.590        20
53.600         7
53.610        27
53.620        27
53.630        20
53.640        53
53.650        27
53.660        13
53.670        20
53.680        20
53.690        27
53.700        13
53.710        60
53.720        33
53.730        40
53.740        20
53.750        13
53.760        20
53.770        20
53.780        20
53.790         7
53.800         7
53.810        20
53.820        20
53.830        13
53.840        27
53.850        13
53.860        27
53.870        27
53.880         7
53.890        27
53.900        27
53.910         7
53.920        20
53.930         7
53.940        20
53.950        13
53.960        33
53.970        13
53.980        13
53.990        13
54.000        33
54.010        20
54.020        20
54.030        20
54.040         7
54.050        13
54.060        20
54.070        20
54.080        13
54.090         7
54.100         7
54.110        13
54.120        27
54.130        27
54.140        20
54.150         0
54.160        20
54.170        20
54.180         7
54.190        20
54.200        27
54.210        33
54.220        20
54.230         0
54.240         0
54.250        13
54.260         0
54.270         7
54.280         7
54.290        20
54.300        33
54.310        13
54.320        13
54.330        27
54.340         7
54.350        33
54.360        13
54.370        20
54.380        40
54.390         7
54.400        27
54.410         7
54.420        13
54.430        20
54.440        20
54.450         7
54.460        27
54.470        20
54.480         0
54.490        20
54.500        20
54.510        13
54.520        20
54.530        13
54.540         7
54.550        20
54.560        13
54.570        20
54.580        13
54.590        33
54.600        40
54.610        13
54.620        13
54.630        20
54.640        20
54.650        13
54.660        27
54.670        33
54.680        27
54.690        20
54.700        40
54.710        33
54.720         7
54.730        13
54.740         7
54.750        13
54.760        13
54.770        13
54.780        40
54.790        20
54.800        27
54.810        33
54.820        20
54.830        33
54.840        13
54.850        27
54.860        20
54.870        27
54.880         0
54.890        27
54.900        13
54.910        13
54.920        33
54.930        13
54.940         0
54.950        13
54.960        13
54.970         7
54.980        13
54.990        20
55.000         7
55.010        13
55.020        13
55.030        20
55.040        13
55.050        20
55.060         7
55.070        13
55.080        33
55.090        20
55.100         7
55.110        13
55.120         0
55.130        27
55.140        13
55.150        13
55.160        33
55.170        27
55.180        20
55.190        20
55.200         0
55.210         7
55.220        27
55.230        13
55.240        27
55.250         0
55.260        13
55.270        20
55.280         7
55.290         7
55.300        33
55.310        27
55.320         7
55.330        13
55.340         0
55.350        13
55.360        27
55.370        20
55.380        33
55.390         0
55.400        13
55.410        13
55.420        33
55.430         0
55.440        13
55.450        40
55.460         7
55.470        20
55.480         7
55.490        27
55.500         0
55.510        20
55.520        40
55.530         7
55.540         7
55.550         7
55.560         0
55.570        20
55.580        47
55.590        13
55.600        40
55.610        53
55.620        27
55.630        27
55.640        20
55.650        33
55.660        67
55.670        27
55.680        20
55.690        53
55.700        27
55.710        53
55.720        27
55.730        27
55.740        47
55.750        47
55.760        47
55.770        60
55.780        53
55.790        47
55.800        47
55.810         7
55.820        27
55.830        60
55.840        33
55.850        40
55.860        53
55.870        27
55.880       100
55.890         7
55.900        40
55.910        27
55.920        27
55.930        60
55.940        47
55.950        60
55.960        40
55.970        27
55.980        27
55.990        33
56.000        20
56.010        40
56.020        20
56.030        33
56.040        20
56.050        33
56.060        33
56.070        47
56.080        60
56.090        40
56.100        33
56.110        13
56.120        40
56.130        47
56.140        53
56.150        47
56.160        47
56.170        20
56.180        40
56.190        27
56.200        20
56.210        33
56.220        53
56.230        27
56.240        40
56.250        33
56.260        33
56.270        27
56.280        27
56.290        33
56.300        20
56.310        13
56.320        40
56.330        13
56.340        47
56.350        33
56.360        40
56.370        53
56.380        53
56.390        60
56.400        20
56.410         7
56.420         7
56.430        13
56.440        13
56.450        47
56.460        53
56.470        13
56.480        13
56.490        33
56.500        27
56.510        33
56.520        20
56.530        40
56.540        53
56.550        47
56.560        33
56.570         7
56.580        13
56.590        40
56.600         7
56.610        27
56.620        27
56.630        47
56.640        13
56.650        20
56.660        13
56.670        27
56.680        60
56.690        13
56.700        33
56.710        20
56.720         7
56.730        27
56.740        13
56.750         7
56.760        20
56.770        20
56.780         7
56.790        20
56.800         0
56.810        13
56.820        53
56.830        27
56.840        13
56.850        20
56.860        27
56.870        20
56.880        33
56.890        27
56.900        27
56.910        33
56.920         7
56.930         0
56.940        20
56.950        13
56.960        20
56.970        33
56.980        13
56.990         7
57.000        40
57.010        13
57.020         0
57.030        33
57.040        40
57.050         0
57.060        13
57.070        33
57.080        60
57.090         7
57.100         7
57.110        27
57.120        20
57.130        20
57.140        47
57.150        47
57.160        47
57.170         7
57.180        47
57.190        40
57.200        20
57.210        53
57.220        53
57.230        67
57.240        47
57.250        27
57.260        27
57.270        53
57.280        13
57.290        33
57.300        47
57.310        40
57.320        60
57.330        53
57.340        60
57.350        20
57.360        33
57.370        40
57.380        67
57.390        87
57.400        60
57.410        73
57.420       127
57.430       107
57.440       147
57.450       107
57.460       287
57.470       180
57.480       193
57.490       273
57.500       187
57.510       233
57.520       167
57.530       153
57.540       120
57.550       140
57.560       107
57.570       140
57.580        93
57.590       120
57.600        67
57.610        93
57.620       120
57.630        87
57.640       120
57.650       120
57.660        73
57.670        93
57.680        47
57.690       107
57.700       113
57.710        80
57.720        93
57.730        73
57.740        47
57.750        13
57.760        33
57.770        33
57.780        33
57.790        20
57.800        33
57.810         7
57.820        47
57.830        33
57.840         7
57.850        13
57.860         7
57.870        20
57.880         7
57.890        40
57.900        13
57.910        20
57.920        40
57.930        27
57.940         0
57.950         0
57.960        27
57.970        13
57.980         7
57.990        13
58.000         7
58.010        20
58.020         7
58.030        27
58.040        13
58.050        33
58.060         7
58.070        33
58.080        33
58.090        13
58.100        40
58.110        27
58.120        20
58.130        47
58.140         7
58.150        13
58.160         7
58.170        20
58.180        13
58.190         7
58.200        27
58.210        13
58.220         7
58.230         7
58.240        20
58.250         7
58.260        33
58.270        27
58.280        13
58.290        20
58.300        13
58.310        33
58.320        13
58.330        27
58.340        13
58.350        27
58.360        27
58.370        13
58.380        27
58.390        13
58.400        40
58.410        20
58.420        20
58.430        20
58.440         0
58.450         7
58.460        27
58.470         0
58.480         7
58.490         7
58.500         7
58.510        20
58.520        27
58.530        27
58.540        27
58.550        13
58.560         7
58.570         7
58.580         7
58.590         0
58.600         7
58.610         7
58.620         0
58.630         0
58.640        13
58.650         7
58.660         7
58.670        33
58.680        27
58.690         7
58.700         0
58.710        13
58.720         7
58.730         7
58.740        20
58.750        13
58.760        40
58.770         0
58.780        53
58.790        13
58.800        13
58.810         7
58.820        13
58.830         0
58.840        20
58.850        27
58.860        13
58.870        20
58.880        33
58.890        13
58.900        13
58.910        13
58.920        20
58.930         0
58.940        20
58.950        13
58.960        27
58.970        13
58.980        13
58.990        13
59.000        20
59.010        13
59.020         0
59.030        20
59.040        33
59.050        20
59.060        20
59.070        20
59.080         7
59.090        20
59.100        33
59.110        13
59.120         0
59.130        13
59.140        40
59.150         7
59.160         7
59.170        27
59.180        40
59.190        13
59.200        27
59.210        27
59.220        47
59.230        13
59.240        13
59.250        13
59.260        13
59.270        40
59.280        27
59.290         7
59.300        13
59.310         7
59.320        33
59.330        20
59.340        20
59.350        13
59.360        20
59.370        20
59.380        13
59.390         7
59.400         7
59.410        20
59.420        13
59.430        33
59.440         0
59.450         7
59.460        20
59.470        20
59.480        13
59.490         0
59.500        27
59.510        47
59.520        13
59.530        40
59.540        27
59.550        20
59.560        13
59.570         7
59.580        20
59.590        13
59.600         0
59.610        27
59.620        20
59.630        40
59.640        13
59.650        47
59.660        13
59.670         7
59.680        13
59.690        40
59.700         7
59.710        13
59.720        40
59.730        40
59.740        20
59.750        13
59.760        13
59.770        27
59.780         7
59.790         7
59.800        13
59.810        13
59.820        13
59.830        33
59.840        27
59.850        20
59.860        13
59.870        13
59.880        27
59.890        33
59.900        20
59.910        13
59.920        27
59.930        27
59.940        20
59.950         7
59.960         0
59.970        27
59.980        20
59.990        20
60.000        20
