20.000        27
20.010        27
20.020        40
20.030        27
20.040        27
20.050        53
20.060        60
20.070        27
20.080        27
20.090        33
20.100        47
20.110        47
20.120        73
20.130        60
20.140        47
20.150        47
20.160        33
20.170        40
20.180        33
20.190        40
20.200        20
20.210        33
20.220        27
20.230        33
20.240        33
20.250        40
20.260        80
20.270        20
20.280        40
20.290        80
20.300        33
20.310        53
20.320        13
20.330        60
20.340        73
20.350        73
20.360        27
20.370        27
20.380        60
20.390        80
20.400        40
20.410        33
20.420        47
20.430        13
20.440        27
20.450        40
20.460        60
20.470        40
20.480        33
20.490        33
20.500        33
20.510        47
20.520        20
20.530        73
20.540        47
20.550        27
20.560        40
20.570        33
20.580        33
20.590        40
20.600        33
20.610        33
20.620        53
20.630        33
20.640        13
20.650        47
20.660        60
20.670        20
20.680        53
20.690        33
20.700        53
20.710         7
20.720        53
20.730        53
20.740        13
20.750        20
20.760        33
20.770        47
20.780        73
20.790        53
20.800        40
20.810        20
20.820        27
20.830        13
20.840        60
20.850        20
20.860        27
20.870        53
20.880        40
20.890        60
20.900        27
20.910        53
20.920        60
20.930        33
20.940        33
20.950        20
20.960        33
20.970        33
20.980        33
20.990        27
21.000        80
21.010        60
21.020        53
21.030        60
21.040        33
21.050        40
21.060        33
21.070        33
21.080        20
21.090        27
21.100        47
21.110        47
21.120        40
21.130        53
21.140        27
21.150        47
21.160        13
21.170        40
21.180        40
21.190        20
21.200        40
21.210        13
21.220        33
21.230        67
21.240        53
21.250        40
21.260        40
21.270        60
21.280        27
21.290        27
21.300        27
21.310        27
21.320        47
21.330        67
21.340        47
21.350        40
21.360        73
21.370        27
21.380         7
21.390        53
21.400        47
21.410        20
21.420        27
21.430        73
21.440        33
21.450        33
21.460        67
21.470        53
21.480        27
21.490        13
21.500        33
21.510        20
21.520        33
21.530        40
21.540        53
21.550        20
21.560        47
21.570        53
21.580        53
21.590        40
21.600        53
21.610        40
21.620        53
21.630        47
21.640        47
21.650        60
21.660        47
21.670        27
21.680        60
21.690        73
21.700        87
21.710        47
21.720        40
21.730        60
21.740        60
21.750        33
21.760         7
21.770        53
21.780        20
21.790        40
21.800        33
21.810        27
21.820        60
21.830        47
21.840        33
21.850        33
21.860        27
21.870        40
21.880        33
21.890        13
21.900        40
21.910        33
21.920        20
21.930        53
21.940        27
21.950        40
21.960        33
21.970        47
21.980        53
21.990        47
22.000        53
22.010        67
22.020        40
22.030        53
22.040        53
22.050        27
22.060        27
22.070        47
22.080        40
22.090        20
22.100        47
22.110        47
22.120        60
22.130        47
22.140        60
22.150        80
22.160        40
22.170        47
22.180        47
22.190        67
22.200        53
22.210        60
22.220        27
22.230        40
22.240        33
22.250         7
22.260        87
22.270        20
22.280        60
22.290         0
22.300        40
22.310        60
22.320        47
22.330        27
22.340        13
22.350        33
22.360        20
22.370         7
22.380        87
22.390        27
22.400        20
22.410        60
22.420        60
22.430        47
22.440        27
22.450        20
22.460        47
22.470        40
22.480        47
22.490        40
22.500        13
22.510        33
22.520        67
22.530        33
22.540        27
22.550        47
22.560        47
22.570        47
22.580        20
22.590        27
22.600        13
22.610        60
22.620        40
22.630        40
22.640        40
22.650        33
22.660        33
22.670        33
22.680        47
22.690        60
22.700        47
22.710        13
22.720        20
22.730        20
22.740        47
22.750        20
22.760        27
22.770        20
22.780        40
22.790        40
22.800        60
22.810        20
22.820        27
22.830        53
22.840        33
22.850        27
22.860        53
22.870        13
22.880        40
22.890        13
22.900        40
22.910         7
22.920        33
22.930        33
22.940        33
22.950        27
22.960        60
22.970        27
22.980        33
22.990        27
23.000        47
23.010         7
23.020        67
23.030        53
23.040        47
23.050        33
23.060        33
23.070        33
23.080        40
23.090        33
23.100        20
23.110        60
23.120        33
23.130        27
23.140        40
23.150        20
23.160        47
23.170        53
23.180        27
23.190        33
23.200        27
23.210        53
23.220        13
23.230        53
23.240        20
23.250        33
23.260        40
23.270        40
23.280        47
23.290        47
23.300        27
23.310        20
23.320        27
23.330        20
23.340        27
23.350        53
23.360        40
23.370        27
23.380        47
23.390        20
23.400        27
23.410        27
23.420        27
23.430        20
23.440        13
23.450        60
23.460        20
23.470        33
23.480        27
23.490        40
23.500        20
23.510        40
23.520        47
23.530        20
23.540        20
23.550        33
23.560        13
23.570        33
23.580        53
23.590        20
23.600        13
23.610        40
23.620        33
23.630        40
23.640        40
23.650        33
23.660        40
23.670        47
23.680        20
23.690        33
23.700        33
23.710        47
23.720        33
23.730        13
23.740        33
23.750        13
23.760        27
23.770        40
23.780        20
23.790        27
23.800        27
23.810        27
23.820        53
23.830        27
23.840        53
23.850        20
23.860        40
23.870         7
23.880        33
23.890        33
23.900        27
23.910        33
23.920         7
23.930        13
23.940        13
23.950         7
23.960        33
23.970        33
23.980        47
23.990        13
24.000        27
24.010        27
24.020        20
24.030         7
24.040        40
24.050        27
24.060        20
24.070        27
24.080        20
24.090        13
24.100        13
24.110        27
24.120        33
24.130        40
24.140        13
24.150        40
24.160        47
24.170        33
24.180        40
24.190        40
24.200        47
24.210        53
24.220        40
24.230        47
24.240        53
24.250        33
24.260        13
24.270        40
24.280        33
24.290        20
24.300        47
24.310        20
24.320        20
24.330        47
24.340        40
24.350        27
24.360        40
24.370        33
24.380        27
24.390         7
24.400        47
24.410        53
24.420        13
24.430        27
24.440        20
24.450         0
24.460        33
24.470        47
24.480        33
24.490        40
24.500        40
24.510        13
24.520        33
24.530        27
24.540        67
24.550        27
24.560        27
24.570        27
24.580        60
24.590        27
24.600        27
24.610        27
24.620        13
24.630        60
24.640        60
24.650        20
24.660        47
24.670         7
24.680         0
24.690        53
24.700        27
24.710        47
24.720        33
24.730        27
24.740        27
24.750        27
24.760        20
24.770        33
24.780        27
24.790        20
24.800        27
24.810        20
24.820        33
24.830        33
24.840        33
24.850        60
24.860        13
24.870        20
24.880        13
24.890        40
24.900        40
24.910        27
24.920        13
24.930        13
24.940        27
24.950         7
24.960        27
24.970         7
24.980        33
24.990        27
25.000        20
25.010        40
25.020        13
25.030        27
25.040        40
25.050        33
25.060        20
25.070        47
25.080        20
25.090         7
25.100        27
25.110        47
25.120        40
25.130        20
25.140        33
25.150        13
25.160         7
25.170        33
25.180        47
25.190        13
25.200        40
25.210        27
25.220        40
25.230        47
25.240        20
25.250        13
25.260        33
25.270        13
25.280        53
25.290        20
25.300        53
25.310        47
25.320        47
25.330        27
25.340        60
25.350        33
25.360        20
25.370        20
25.380        47
25.390        33
25.400        20
25.410        27
25.420        47
25.430        20
25.440        33
25.450        27
25.460        73
25.470        33
25.480        20
25.490        27
25.500        27
25.510        40
25.520        13
25.530        13
25.540        40
25.550        13
25.560        47
25.570        13
25.580        27
25.590        33
25.600        33
25.610        33
25.620        40
25.630        53
25.640        33
25.650        40
25.660        27
25.670        33
25.680        40
25.690        13
25.700        47
25.710        13
25.720        53
25.730        33
25.740        40
25.750        40
25.760        40
25.770        20
25.780        33
25.790        27
25.800        20
25.810        20
25.820        27
25.830        20
25.840        13
25.850        33
25.860        40
25.870        40
25.880         0
25.890        27
25.900         7
25.910        67
25.920        13
25.930        13
25.940        67
25.950        33
25.960        47
25.970        33
25.980        20
25.990        47
26.000        20
26.010        47
26.020         0
26.030        27
26.040        20
26.050        27
26.060        27
26.070        33
26.080        20
26.090        20
26.100        47
26.110        40
26.120        27
26.130        53
26.140        13
26.150        33
26.160        33
26.170        33
26.180        33
26.190        27
26.200        33
26.210         7
26.220         7
26.230        27
26.240        33
26.250        40
26.260         7
26.270        47
26.280        33
26.290        20
26.300        47
26.310        13
26.320        40
26.330         7
26.340        40
26.350        33
26.360        20
26.370        27
26.380        20
26.390        47
26.400        13
26.410        47
26.420        27
26.430        33
26.440        47
26.450        20
26.460        20
26.470        33
26.480        47
26.490        27
26.500        47
26.510        27
26.520        13
26.530        20
26.540        53
26.550        13
26.560        33
26.570        40
26.580        33
26.590        13
26.600        27
26.610        20
26.620        13
26.630        20
26.640        27
26.650        20
26.660        67
26.670        33
26.680        13
26.690        33
26.700        47
26.710        27
26.720        13
26.730        27
26.740        33
26.750        40
26.760        13
26.770        27
26.780        33
26.790        27
26.800        20
26.810        33
26.820        20
26.830        27
26.840        33
26.850        40
26.860        27
26.870        33
26.880        27
26.890        20
26.900        40
26.910        33
26.920        27
26.930        13
26.940         0
26.950        53
26.960        20
26.970        13
26.980        20
26.990        40
27.000        53
27.010        33
27.020        27
27.030        13
27.040        20
27.050        47
27.060        40
27.070        33
27.080         7
27.090        33
27.100        27
27.110        33
27.120        40
27.130        40
27.140        33
27.150         7
27.160        33
27.170        40
27.180         0
27.190        13
27.200        40
27.210        40
27.220        20
27.230        73
27.240         7
27.250        40
27.260        47
27.270        13
27.280        47
27.290         0
27.300        40
27.310         7
27.320        33
27.330        47
27.340        27
27.350        40
27.360        33
27.370        47
27.380        40
27.390        33
27.400        27
27.410         7
27.420        47
27.430        20
27.440        33
27.450        27
27.460        27
27.470        40
27.480        47
27.490        40
27.500         7
27.510        20
27.520        53
27.530        20
27.540        13
27.550        47
27.560        33
27.570        27
27.580        13
27.590         0
27.600        53
27.610        33
27.620        20
27.630        40
27.640        53
27.650        40
27.660         7
27.670        40
27.680         7
27.690        33
27.700        27
27.710        27
27.720        33
27.730        27
27.740        13
27.750        13
27.760        33
27.770        27
27.780        33
27.790        20
27.800         7
27.810         7
27.820        20
27.830         7
27.840        47
27.850        40
27.860        13
27.870        33
27.880        27
27.890        27
27.900        20
27.910         7
27.920        40
27.930        13
27.940        60
27.950         7
27.960        27
27.970        13
27.980        40
27.990        20
28.000        20
28.010        33
28.020        33
28.030        27
28.040        40
28.050        47
28.060        27
28.070        27
28.080        33
28.090        27
28.100        47
28.110        47
28.120        33
28.130        27
28.140        40
28.150        27
28.160        27
28.170        53
28.180        33
28.190        60
28.200        40
28.210        33
28.220        13
28.230        13
28.240        53
28.250        40
28.260        20
28.270        47
28.280        40
28.290        33
28.300        27
28.310        47
28.320        27
28.330        27
28.340        20
28.350        27
28.360        40
28.370        33
28.380        27
28.390        33
28.400        27
28.410        27
28.420        27
28.430        47
28.440        47
28.450        33
28.460        33
28.470         7
28.480        13
28.490        40
28.500        27
28.510        47
28.520        40
28.530        40
28.540        33
28.550        20
28.560        60
28.570        40
28.580        33
28.590        33
28.600        27
28.610        20
28.620        40
28.630        13
28.640        40
28.650        60
28.660        27
28.670        20
28.680        33
28.690        27
28.700        40
28.710        27
28.720        27
28.730        27
28.740        40
28.750        33
28.760        20
28.770        33
28.780        33
28.790        40
28.800         7
28.810        27
28.820        33
28.830        33
28.840        27
28.850         7
28.860        80
28.870        13
28.880        27
28.890        27
28.900        13
28.910        33
28.920        40
28.930        47
28.940        47
28.950        20
28.960        27
28.970        13
28.980        60
28.990        33
29.000        20
29.010        40
29.020        47
29.030        27
29.040         0
29.050        47
29.060        20
29.070        20
29.080        27
29.090        33
29.100        60
29.110        47
29.120        33
29.130        27
29.140        47
29.150        60
29.160        27
29.170        33
29.180        27
29.190        40
29.200        67
29.210        33
29.220        40
29.230        13
29.240        13
29.250        27
29.260        67
29.270        33
29.280        20
29.290        27
29.300        60
29.310        20
29.320        13
29.330        27
29.340        13
29.350        13
29.360        33
29.370        27
29.380        40
29.390        27
29.400        27
29.410        20
29.420        20
29.430        33
29.440        47
29.450        20
29.460        20
29.470        33
29.480        60
29.490        13
29.500        27
29.510        27
29.520        40
29.530        13
29.540        40
29.550        27
29.560        20
29.570        33
29.580        20
29.590        47
29.600        40
29.610        20
29.620        13
29.630        40
29.640        33
29.650        27
29.660        27
29.670        33
29.680        13
29.690        33
29.700        33
29.710        33
29.720        27
29.730        40
29.740         7
29.750        20
29.760        47
29.770        40
29.780        13
29.790        33
29.800        27
29.810        27
29.820        20
29.830        33
29.840        40
29.850        33
29.860        27
29.870        73
29.880        27
29.890        33
29.900         7
29.910        47
29.920        20
29.930        27
29.940        40
29.950        13
29.960        27
29.970        27
29.980        33
29.990         7
30.000        13
30.010        47
30.020        27
30.030        60
30.040        27
30.050        27
30.060        40
30.070        33
30.080        60
30.090        27
30.100        27
30.110        20
30.120        47
30.130        33
30.140        40
30.150        33
30.160        27
30.170        27
30.180        20
30.190        60
30.200        33
30.210        20
30.220        27
30.230        33
30.240        67
30.250        47
30.260        47
30.270        73
30.280        53
30.290        40
30.300        67
30.310        67
30.320        40
30.330        47
30.340        33
30.350        53
30.360        40
30.370        40
30.380        27
30.390        53
30.400        27
30.410        67
30.420        53
30.430        13
30.440        40
30.450        67
30.460        47
30.470        53
30.480        27
30.490        40
30.500        73
30.510        60
30.520        53
30.530        53
30.540        33
30.550        53
30.560        60
30.570        87
30.580        60
30.590        20
30.600        40
30.610        73
30.620        47
30.630        60
30.640        27
30.650        47
30.660        47
30.670        33
30.680        53
30.690        60
30.700        47
30.710        73
30.720       113
30.730        60
30.740        73
30.750        40
30.760        73
30.770        73
30.780        73
30.790        67
30.800        20
30.810        53
30.820        67
30.830        93
30.840        80
30.850        73
30.860       107
30.870        87
30.880        93
30.890        93
30.900       120
30.910       107
30.920        73
30.930       120
30.940       133
30.950       113
30.960       147
30.970       213
30.980       193
30.990       200
31.000       227
31.010       347
31.020       333
31.030       353
31.040       453
31.050       500
31.060       586
31.070       606
31.080       720
31.090       800
31.100       806
31.110      1193
31.120      1200
31.130      1306
31.140      1579
31.150      1966
31.160      1886
31.170      2192
31.180      2646
31.190      3179
31.200      3092
31.210      3365
31.220      3652
31.230      3758
31.240      3885
31.250      3925
31.260      3612
31.270      3699
31.280      3239
31.290      3132
31.300      3092
31.310      2692
31.320      2779
31.330      2439
31.340      2446
31.350      2046
31.360      1913
31.370      1526
31.380      1446
31.390      1286
31.400      1113
31.410      1066
31.420       840
31.430       740
31.440       526
31.450       593
31.460       520
31.470       393
31.480       353
31.490       233
31.500       287
31.510       253
31.520       233
31.530       193
31.540       227
31.550       180
31.560       113
31.570       140
31.580        67
31.590       113
31.600       107
31.610        80
31.620       107
31.630        67
31.640        67
31.650        73
31.660        67
31.670        87
31.680        87
31.690        73
31.700        80
31.710        80
31.720        40
31.730       113
31.740       120
31.750       100
31.760        60
31.770        33
31.780        60
31.790        80
31.800        67
31.810        87
31.820        60
31.830       100
31.840        27
31.850        40
31.860        60
31.870        40
31.880        53
31.890        33
31.900        73
31.910        73
31.920        60
31.930        73
31.940        33
31.950        67
31.960        60
31.970        53
31.980        40
31.990        40
32.000        47
32.010        47
32.020        40
32.030        40
32.040         0
32.050        40
32.060        33
32.070        40
32.080        20
32.090        67
32.100        60
32.110        40
32.120        47
32.130        33
32.140        53
32.150        40
32.160        40
32.170        20
32.180        67
32.190        47
32.200        73
32.210        47
32.220        60
32.230        73
32.240        53
32.250        27
32.260        73
32.270        47
32.280        47
32.290        33
32.300        53
32.310        47
32.320        47
32.330        33
32.340        40
32.350        20
32.360        13
32.370        60
32.380        47
32.390        53
32.400        53
32.410        53
32.420        33
32.430        40
32.440        33
32.450        27
32.460        20
32.470         0
32.480        40
32.490        40
32.500        47
32.510        47
32.520        40
32.530        33
32.540        27
32.550        40
32.560        33
32.570        13
32.580        20
32.590        60
32.600        33
32.610        40
32.620        33
32.630        53
32.640         7
32.650        33
32.660        40
32.670        40
32.680        33
32.690        20
32.700        40
32.710        53
32.720        53
32.730        33
32.740        20
32.750        40
32.760        33
32.770        47
32.780        47
32.790        27
32.800        13
32.810        40
32.820        33
32.830        13
32.840        20
32.850        47
32.860         7
32.870        60
32.880        27
32.890         7
32.900        53
32.910        47
32.920        33
32.930        20
32.940        73
32.950        53
32.960        60
32.970        20
32.980        67
32.990         7
33.000        47
33.010        33
33.020        20
33.030        20
33.040        47
33.050        27
33.060        67
33.070        20
33.080        47
33.090        47
33.100        20
33.110        40
33.120        13
33.130        53
33.140        20
33.150        20
33.160        40
33.170        33
33.180        20
33.190        40
33.200        13
33.210        20
33.220        33
33.230        33
33.240        20
33.250        27
33.260        20
33.270        20
33.280        87
33.290        33
33.300        33
33.310        27
33.320         0
33.330        40
33.340        20
33.350        27
33.360        33
33.370        13
33.380        13
33.390        53
33.400        20
33.410         7
33.420        13
33.430         7
33.440        53
33.450        60
33.460        40
33.470        33
33.480        13
33.490        33
33.500        40
33.510        20
33.520        27
33.530        40
33.540        20
33.550        67
33.560         7
33.570        20
33.580        27
33.590        60
33.600        20
33.610        60
33.620        20
33.630        20
33.640        40
33.650         7
33.660        20
33.670        40
33.680        27
33.690        40
33.700        33
33.710        20
33.720        33
33.730        27
33.740        40
33.750        13
33.760        13
33.770        20
33.780        27
33.790        40
33.800         0
33.810        20
33.820        20
33.830        27
33.840        47
33.850         7
33.860        27
33.870        13
33.880        27
33.890        27
33.900         7
33.910        27
33.920        13
33.930        13
33.940        27
33.950         7
33.960        20
33.970        27
33.980        27
33.990        33
34.000         7
34.010        27
34.020        33
34.030        80
34.040        40
34.050        27
34.060         7
34.070        33
34.080        67
34.090        13
34.100         7
34.110        40
34.120        27
34.130        60
34.140        67
34.150        33
34.160        27
34.170        47
34.180        13
34.190        13
34.200        33
34.210        53
34.220        40
34.230        20
34.240        40
34.250        27
34.260        20
34.270        33
34.280        20
34.290        13
34.300        27
34.310        20
34.320        40
34.330        33
34.340        27
34.350        13
34.360        13
34.370        33
34.380        27
34.390        33
34.400        40
34.410        27
34.420        47
34.430        40
34.440        40
34.450         7
34.460        40
34.470        33
34.480        33
34.490        13
34.500        20
34.510        33
34.520        47
34.530        27
34.540         0
34.550        27
34.560        20
34.570        40
34.580        53
34.590        33
34.600        33
34.610        47
34.620        33
34.630        27
34.640        27
34.650        33
34.660        53
34.670        60
34.680        27
34.690        20
34.700        27
34.710        20
34.720        53
34.730        33
34.740        20
34.750        47
34.760         0
34.770        13
34.780        27
34.790        13
34.800        20
34.810        27
34.820        33
34.830         0
34.840        20
34.850         7
34.860        47
34.870        27
34.880        27
34.890         7
34.900        40
34.910        27
34.920        27
34.930        53
34.940        13
34.950        40
34.960        13
34.970         7
34.980        67
34.990        60
35.000        13
35.010        73
35.020        20
35.030        40
35.040        20
35.050        13
35.060        27
35.070        33
35.080        27
35.090        27
35.100        33
35.110        27
35.120        67
35.130        53
35.140        27
35.150        40
35.160        27
35.170        93
35.180        73
35.190        87
35.200        80
35.210        27
35.220        80
35.230        60
35.240         7
35.250        60
35.260        40
35.270        80
35.280        40
35.290        20
35.300        73
35.310        47
35.320        33
35.330        33
35.340         7
35.350        27
35.360        13
35.370        33
35.380        13
35.390        27
35.400        60
35.410        40
35.420        20
35.430         7
35.440         7
35.450        27
35.460        53
35.470        53
35.480        33
35.490        33
35.500        40
35.510        60
35.520        27
35.530        33
35.540         0
35.550        40
35.560         7
35.570        27
35.580        20
35.590        27
35.600        13
35.610        20
35.620        13
35.630        40
35.640        40
35.650        40
35.660        33
35.670         7
35.680        47
35.690        27
35.700        33
35.710        27
35.720        40
35.730        20
35.740        47
35.750        47
35.760        20
35.770        33
35.780        27
35.790        47
35.800        47
35.810        27
35.820        27
35.830        20
35.840        27
35.850        27
35.860         7
35.870        13
35.880        27
35.890        13
35.900        20
35.910        27
35.920        27
35.930        40
35.940        13
35.950        20
35.960        33
35.970        67
35.980         7
35.990        13
36.000        13
36.010        33
36.020        40
36.030        13
36.040        60
36.050        13
36.060        20
36.070        33
36.080        27
36.090        20
36.100        13
36.110        40
36.120        67
36.130         7
36.140         0
36.150        27
36.160        47
36.170        47
36.180        33
36.190        40
36.200        40
36.210        53
36.220        13
36.230        27
36.240        40
36.250        40
36.260        20
36.270        13
36.280        27
36.290        13
36.300        13
36.310        47
36.320         7
36.330        20
36.340        20
36.350         7
36.360        13
36.370        13
36.380        27
36.390        20
36.400         7
36.410         7
36.420         7
36.430        27
36.440        20
36.450        20
36.460        20
36.470        27
36.480        20
36.490        27
36.500        33
36.510        53
36.520        20
36.530        13
36.540        13
36.550        27
36.560        33
36.570         7
36.580        13
36.590         7
36.600        40
36.610        13
36.620        27
36.630        33
36.640         7
36.650         7
36.660        40
36.670        20
36.680         7
36.690         7
36.700        13
36.710        13
36.720         7
36.730        40
36.740        27
36.750        13
36.760        33
36.770        20
36.780         7
36.790        27
36.800        27
36.810        20
36.820        20
36.830        27
36.840        27
36.850        20
36.860        13
36.870        40
36.880        47
36.890        40
36.900        40
36.910        27
36.920        33
36.930        40
36.940        53
36.950        27
36.960        13
36.970        40
36.980        13
36.990        27
37.000        40
37.010        27
37.020        13
37.030        13
37.040        20
37.050        20
37.060        13
37.070         7
37.080        27
37.090        33
37.100        33
37.110        13
37.120        13
37.130        27
37.140         0
37.150        20
37.160        20
37.170         7
37.180        27
37.190        33
37.200        27
37.210         7
37.220        47
37.230        40
37.240        13
37.250        13
37.260        33
37.270        13
37.280         7
37.290         0
37.300        13
37.310         7
37.320         7
37.330        20
37.340        33
37.350        20
37.360        13
37.370        33
37.380        27
37.390        20
37.400         0
37.410        33
37.420        33
37.430        20
37.440        13
37.450        13
37.460        20
37.470        20
37.480        33
37.490        13
37.500         7
37.510         7
37.520        20
37.530        33
37.540        27
37.550         0
37.560         7
37.570        40
37.580        27
37.590        20
37.600        27
37.610        27
37.620        20
37.630        20
37.640        40
37.650         7
37.660        33
37.670        33
37.680        40
37.690        33
37.700         0
37.710        27
37.720        27
37.730        40
37.740         7
37.750        40
37.760        27
37.770        33
37.780         7
37.790        33
37.800        40
37.810        67
37.820        80
37.830        73
37.840        73
37.850        60
37.860        33
37.870        27
37.880        67
37.890        27
37.900        47
37.910        20
37.920        20
37.930        47
37.940        40
37.950        40
37.960        27
37.970         7
37.980        20
37.990         7
38.000        20
38.010        40
38.020        33
38.030         7
38.040        47
38.050        27
38.060        27
38.070        20
38.080        33
38.090        27
38.100        13
38.110        27
38.120         0
38.130        13
38.140        20
38.150        20
38.160         0
38.170        20
38.180        40
38.190        40
38.200        67
38.210        27
38.220        27
38.230        20
38.240        27
38.250        33
38.260        40
38.270        33
38.280        27
38.290        20
38.300        40
38.310        13
38.320        33
38.330        33
38.340        20
38.350        40
38.360        53
38.370        33
38.380        47
38.390        20
38.400        27
38.410        47
38.420        33
38.430        53
38.440        47
38.450        67
38.460        40
38.470       107
38.480        40
38.490        47
38.500        27
38.510        73
38.520        33
38.530       100
38.540        47
38.550        73
38.560        53
38.570        80
38.580        33
38.590        67
38.600        20
38.610       133
38.620        73
38.630       100
38.640        53
38.650        67
38.660       133
38.670        60
38.680        73
38.690        53
38.700        80
38.710        80
38.720        80
38.730        53
38.740        73
38.750        27
38.760        73
38.770        20
38.780        40
38.790        20
38.800        33
38.810        53
38.820        53
38.830        40
38.840        60
38.850        60
38.860        20
38.870        33
38.880        13
38.890        20
38.900        27
38.910        13
38.920        33
38.930        13
38.940         7
38.950        27
38.960        13
38.970        13
38.980        13
38.990        27
39.000        13
39.010        40
39.020        27
39.030        13
39.040        27
39.050         0
39.060        20
39.070        33
39.080        20
39.090        20
39.100        20
39.110         7
39.120        20
39.130        27
39.140        27
39.150        20
39.160        47
39.170        27
39.180        33
39.190        13
39.200        20
39.210        20
39.220        47
39.230        40
39.240        67
39.250        20
39.260        20
39.270        20
39.280         0
39.290        13
39.300        13
39.310         7
39.320        13
39.330        13
39.340        27
39.350        20
39.360         7
39.370        20
39.380        20
39.390        27
39.400        27
39.410        27
39.420        27
39.430        13
39.440        33
39.450         0
39.460        27
39.470        20
39.480         7
39.490        20
39.500        13
39.510        27
39.520        13
39.530         7
39.540        13
39.550        13
39.560        20
39.570        27
39.580        27
39.590         7
39.600        13
39.610        20
39.620        13
39.630         7
39.640         0
39.650        27
39.660        20
39.670        27
39.680        53
39.690         0
39.700         0
39.710        13
39.720         7
39.730        13
39.740        13
39.750        33
39.760        20
39.770        13
39.780        20
39.790        47
39.800        27
39.810        13
39.820         7
39.830        27
39.840        20
39.850        27
39.860         7
39.870        27
39.880        40
39.890        13
39.900        60
39.910         0
39.920         7
39.930        20
39.940        33
39.950        13
39.960         7
39.970        33
39.980        27
39.990        13
40.000         7
40.010        20
40.020        27
40.030        27
40.040        20
40.050        33
40.060        13
40.070        13
40.080        27
40.090        33
40.100         0
40.110        20
40.120        13
40.130        53
40.140        27
40.150         7
40.160        13
40.170         7
40.180        27
40.190        40
40.200         7
40.210         0
40.220        20
40.230        20
40.240        40
40.250        27
40.260        13
40.270        27
40.280        27
40.290        13
40.300         7
40.310         7
40.320         0
40.330        13
40.340        20
40.350        13
40.360        20
40.370        13
40.380        20
40.390        20
40.400        33
40.410        33
40.420        13
40.430        13
40.440        27
40.450         0
40.460        40
40.470        27
40.480        13
40.490         7
40.500        27
40.510        13
40.520         0
40.530        13
40.540        13
40.550        40
40.560        13
40.570        13
40.580        13
40.590        20
40.600        20
40.610        13
40.620         7
40.630        13
40.640        60
40.650        27
40.660        13
40.670        33
40.680        33
40.690        27
40.700        40
40.710        13
40.720        20
40.730        20
40.740        20
40.750        13
40.760        33
40.770         0
40.780        13
40.790        13
40.800        20
40.810        13
40.820        20
40.830         7
40.840        27
40.850        20
40.860        13
40.870         7
40.880        13
40.890        13
40.900        20
40.910        27
40.920         7
40.930        13
40.940        13
40.950        13
40.960         7
40.970         7
40.980        13
40.990        20
41.000         0
41.010        40
41.020        40
41.030        33
41.040         7
41.050        13
41.060         7
41.070        47
41.080        47
41.090        27
41.100        13
41.110        20
41.120        33
41.130        40
41.140        13
41.150         7
41.160        20
41.170        13
41.180        47
41.190        20
41.200         7
41.210        20
41.220        47
41.230         7
41.240        20
41.250        13
41.260        27
41.270        27
41.280        27
41.290        13
41.300        20
41.310        33
41.320         7
41.330         0
41.340        13
41.350        20
41.360        27
41.370         0
41.380        47
41.390        20
41.400        13
41.410        27
41.420        13
41.430        27
41.440        40
41.450        27
41.460        33
41.470        33
41.480         0
41.490        27
41.500         7
41.510        20
41.520        13
41.530        13
41.540        13
41.550        13
41.560        27
41.570        13
41.580        27
41.590         7
41.600        13
41.610        20
41.620        27
41.630        20
41.640        60
41.650        20
41.660       113
41.670        47
41.680        87
41.690        47
41.700       107
41.710        67
41.720        47
41.730       100
41.740        47
41.750        33
41.760        47
41.770        33
41.780        33
41.790        40
41.800        40
41.810         7
41.820        47
41.830        73
41.840        60
41.850        13
41.860        40
41.870        47
41.880        20
41.890        13
41.900        13
41.910        33
41.920         7
41.930        27
41.940        20
41.950        20
41.960         0
41.970         7
41.980        13
41.990        27
42.000        27
42.010         7
42.020        13
42.030        13
42.040        20
42.050         7
42.060        20
42.070        20
42.080         7
42.090        20
42.100        20
42.110        13
42.120        13
42.130         7
42.140        13
42.150         7
42.160        47
42.170         7
42.180         7
42.190         0
42.200        27
42.210        13
42.220        13
42.230        20
42.240        20
42.250         7
42.260        20
42.270        13
42.280        33
42.290        20
42.300         0
42.310         7
42.320        13
42.330        20
42.340         7
42.350         0
42.360        13
42.370         0
42.380        27
42.390        20
42.400         0
42.410         7
42.420         0
42.430        13
42.440        13
42.450         7
42.460        20
42.470        13
42.480        27
42.490        47
42.500        27
42.510        40
42.520        13
42.530        27
42.540        20
42.550         7
42.560         0
42.570        27
42.580         7
42.590        13
42.600        20
42.610        33
42.620        13
42.630        13
42.640        20
42.650        20
42.660        33
42.670        20
42.680        13
42.690         0
42.700         7
42.710        20
42.720        40
42.730        13
42.740         7
42.750        20
42.760        13
42.770        20
42.780        13
42.790        27
42.800        20
42.810        20
42.820        13
42.830        13
42.840        20
42.850        20
42.860         7
42.870        20
42.880         0
42.890        20
42.900         7
42.910        27
42.920        27
42.930        13
42.940         7
42.950        27
42.960        27
42.970         7
42.980        27
42.990        13
43.000         7
43.010        27
43.020         7
43.030        33
43.040        27
43.050        20
43.060         7
43.070        13
43.080        20
43.090        20
43.100        20
43.110         7
43.120        27
43.130        33
43.140        13
43.150        13
43.160        27
43.170        13
43.180        47
43.190        13
43.200        27
43.210        13
43.220        13
43.230        27
43.240        20
43.250        13
43.260        27
43.270        27
43.280        47
43.290        33
43.300         0
43.310        27
43.320        27
43.330        27
43.340        73
43.350        33
43.360        33
43.370        87
43.380       113
43.390       107
43.400       133
43.410        60
43.420        87
43.430        67
43.440        87
43.450        73
43.460        67
43.470        67
43.480       100
43.490        33
43.500        67
43.510        47
43.520       107
43.530        27
43.540        60
43.550        40
43.560        13
43.570        20
43.580        33
43.590        20
43.600         0
43.610         0
43.620         7
43.630         7
43.640        20
43.650        40
43.660        13
43.670        27
43.680        20
43.690         0
43.700        27
43.710        13
43.720        13
43.730        20
43.740        20
43.750        27
43.760         7
43.770        40
43.780        13
43.790        27
43.800        20
43.810        20
43.820         7
43.830         0
43.840        20
43.850         7
43.860        13
43.870        20
43.880         7
43.890        33
43.900         0
43.910        27
43.920         0
43.930         0
43.940        13
43.950         7
43.960         7
43.970         0
43.980         7
43.990        20
44.000        53
44.010        20
44.020        40
44.030        13
44.040         0
44.050         7
44.060        13
44.070         7
44.080         0
44.090        20
44.100         7
44.110         7
44.120        20
44.130        27
44.140        13
44.150         7
44.160        27
44.170        13
44.180        13
44.190        13
44.200        27
44.210         7
44.220        13
44.230         0
44.240         0
44.250        27
44.260        13
44.270        20
44.280        20
44.290        13
44.300        13
44.310        40
44.320        13
44.330         7
44.340        13
44.350         7
44.360        20
44.370        13
44.380        33
44.390         7
44.400        20
44.410         7
44.420        27
44.430        13
44.440        20
44.450        27
44.460         0
44.470        20
44.480         0
44.490         7
44.500        13
44.510         0
44.520        13
44.530        27
44.540        13
44.550         0
44.560        27
44.570        60
44.580        53
44.590        13
44.600         0
44.610        20
44.620        20
44.630        20
44.640        47
44.650        20
44.660         7
44.670        53
44.680        27
44.690        20
44.700        20
44.710        40
44.720        20
44.730        27
44.740        27
44.750        40
44.760        20
44.770        27
44.780        27
44.790        27
44.800        60
44.810        60
44.820        33
44.830        40
44.840        33
44.850         0
44.860        47
44.870        60
44.880        33
44.890        47
44.900        20
44.910        67
44.920        40
44.930        13
44.940        20
44.950        20
44.960        87
44.970        13
44.980        13
44.990        20
45.000        40
45.010        53
45.020        40
45.030        47
45.040         7
45.050         0
45.060        33
45.070        13
45.080        13
45.090        20
45.100        13
45.110        27
45.120        20
45.130        20
45.140        27
45.150         7
45.160        67
45.170        27
45.180        27
45.190        20
45.200         0
45.210        20
45.220        33
45.230         7
45.240         7
45.250         7
45.260         7
45.270         0
45.280         7
45.290         7
45.300        13
45.310        13
45.320        13
45.330        20
45.340        20
45.350         7
45.360        13
45.370         0
45.380        20
45.390        13
45.400        13
45.410        13
45.420        13
45.430         7
45.440         0
45.450        20
45.460         7
45.470        27
45.480         7
45.490         7
45.500         0
45.510         7
45.520        13
45.530        20
45.540         7
45.550        27
45.560        20
45.570        20
45.580         7
45.590        33
45.600         7
45.610         7
45.620        13
45.630         7
45.640        13
45.650        13
45.660        20
45.670        13
45.680        33
45.690        13
45.700        20
45.710        20
45.720         7
45.730        13
45.740         0
45.750        27
45.760        27
45.770        20
45.780        20
45.790        20
45.800        33
45.810         0
45.820         0
45.830        13
45.840        27
45.850         7
45.860        20
45.870         7
45.880        13
45.890         0
45.900        20
45.910        13
45.920        13
45.930        33
45.940        20
45.950        13
45.960         0
45.970        27
45.980        20
45.990         0
46.000        13
46.010         0
46.020        20
46.030        33
46.040        33
46.050        13
46.060        13
46.070        13
46.080        13
46.090        13
46.100         7
46.110        13
46.120        27
46.130         0
46.140         0
46.150         7
46.160        20
46.170        27
46.180         7
46.190         7
46.200        33
46.210        20
46.220        20
46.230        27
46.240         0
46.250        13
46.260         7
46.270        13
46.280        27
46.290        20
46.300        27
46.310        13
46.320        27
46.330        13
46.340         0
46.350         0
46.360        13
46.370        13
46.380         7
46.390        20
46.400        20
46.410        13
46.420        20
46.430        20
46.440        13
46.450         7
46.460         0
46.470        20
46.480        13
46.490         7
46.500        13
46.510        20
46.520        13
46.530        13
46.540        13
46.550        20
46.560        33
46.570        13
46.580        20
46.590         7
46.600        13
46.610        20
46.620        13
46.630        13
46.640         0
46.650        27
46.660         7
46.670         0
46.680        33
46.690        20
46.700        13
46.710        20
46.720        13
46.730        20
46.740        20
46.750        20
46.760        40
46.770        13
46.780        13
46.790         7
46.800        20
46.810        20
46.820        13
46.830        13
46.840        20
46.850        13
46.860         0
46.870        20
46.880        20
46.890         7
46.900        13
46.910        20
46.920         0
46.930        13
46.940        40
46.950        33
46.960        13
46.970        20
46.980         0
46.990        20
47.000        20
47.010        13
47.020        13
47.030         7
47.040        33
47.050        13
47.060        20
47.070        20
47.080        27
47.090        13
47.100        33
47.110        13
47.120         7
47.130         7
47.140        20
47.150        20
47.160        13
47.170        27
47.180        20
47.190        27
47.200        20
47.210        13
47.220        13
47.230        33
47.240        20
47.250        27
47.260        33
47.270        27
47.280        20
47.290        27
47.300        20
47.310        40
47.320        27
47.330        27
47.340        13
47.350        33
47.360        13
47.370        33
47.380         7
47.390        20
47.400        13
47.410        33
47.420        27
47.430        20
47.440        20
47.450        13
47.460         7
47.470        13
47.480         7
47.490         0
47.500        20
47.510        27
47.520         7
47.530        13
47.540         0
47.550        13
47.560        27
47.570        20
47.580         7
47.590        13
47.600        13
47.610        40
47.620        20
47.630        40
47.640        13
47.650         7
47.660        20
47.670        27
47.680         7
47.690        40
47.700         7
47.710        13
47.720         7
47.730        13
47.740         7
47.750         7
47.760        13
47.770         7
47.780        13
47.790        33
47.800         7
47.810         7
47.820         0
47.830        40
47.840        20
47.850        20
47.860        27
47.870         7
47.880        13
47.890        27
47.900        20
47.910        13
47.920         0
47.930        13
47.940         7
47.950        27
47.960        13
47.970        13
47.980         0
47.990        20
48.000         7
48.010        13
48.020        13
48.030         7
48.040         0
48.050        20
48.060         7
48.070         0
48.080        33
48.090        20
48.100        13
48.110         7
48.120        27
48.130        20
48.140         0
48.150        33
48.160        60
48.170         0
48.180        33
48.190        40
48.200        20
48.210        33
48.220        27
48.230        27
48.240        13
48.250        20
48.260        13
48.270        20
48.280        20
48.290        13
48.300        20
48.310         7
48.320        20
48.330        20
48.340        20
48.350         7
48.360        13
48.370        20
48.380        20
48.390        20
48.400        13
48.410        13
48.420         7
48.430        13
48.440         7
48.450        20
48.460        13
48.470         7
48.480        27
48.490        20
48.500        13
48.510        13
48.520        13
48.530        27
48.540        27
48.550         7
48.560        13
48.570        27
48.580         0
48.590        13
48.600         7
48.610        20
48.620         7
48.630         7
48.640        27
48.650         7
48.660        13
48.670         0
48.680        13
48.690         7
48.700        13
48.710        20
48.720        13
48.730        20
48.740        13
48.750         7
48.760        13
48.770        27
48.780         7
48.790         7
48.800        20
48.810         7
48.820        27
48.830        27
48.840        27
48.850        13
48.860         7
48.870        27
48.880        13
48.890        13
48.900        13
48.910         7
48.920        20
48.930         7
48.940        13
48.950        33
48.960         7
48.970        27
48.980         7
48.990        27
49.000        27
49.010        20
49.020         7
49.030         7
49.040        13
49.050        20
49.060        27
49.070         7
49.080        20
49.090        33
49.100        13
49.110         7
49.120        33
49.130        40
49.140        20
49.150        27
49.160        33
49.170        13
49.180        13
49.190        47
49.200        47
49.210        20
49.220         7
49.230        20
49.240        20
49.250        20
49.260         0
49.270         7
49.280        13
49.290        27
49.300        20
49.310        27
49.320        13
49.330        27
49.340        13
49.350        13
49.360        13
49.370        13
49.380        20
49.390         0
49.400         0
49.410        33
49.420        13
49.430        33
49.440        20
49.450        27
49.460        13
49.470        33
49.480        20
49.490        13
49.500        13
49.510        20
49.520        13
49.530        13
49.540        27
49.550        13
49.560        13
49.570        27
49.580        13
49.590        20
49.600         7
49.610        13
49.620         7
49.630         0
49.640        20
49.650         7
49.660         0
49.670        13
49.680        33
49.690        13
49.700        20
49.710        20
49.720         7
49.730         7
49.740        20
49.750         0
49.760        27
49.770        13
49.780         7
49.790        13
49.800        13
49.810        33
49.820        13
49.830        27
49.840         7
49.850        20
49.860        13
49.870         7
49.880         7
49.890        27
49.900         0
49.910         7
49.920        13
49.930        13
49.940         7
49.950        27
49.960        13
49.970        13
49.980         7
49.990        27
50.000         7
50.010        13
50.020        20
50.030        13
50.040         0
50.050         7
50.060        13
50.070        13
50.080         0
50.090        27
50.100        13
50.110         0
50.120        13
50.130        13
50.140        13
50.150         7
50.160        13
50.170         7
50.180        13
50.190        20
50.200         0
50.210        13
50.220        27
50.230        13
50.240        27
50.250        20
50.260         0
50.270         7
50.280        13
50.290        20
50.300        13
50.310        27
50.320         7
50.330        13
50.340        27
50.350        20
50.360        33
50.370        13
50.380        20
50.390        13
50.400        13
50.410        13
50.420         7
50.430         0
50.440        20
50.450        27
50.460         7
50.470        13
50.480         7
50.490         7
50.500        33
50.510        20
50.520        20
50.530        13
50.540        13
50.550         0
50.560        20
50.570         7
50.580         7
50.590        13
50.600        20
50.610        13
50.620        33
50.630         7
50.640        20
50.650        20
50.660         7
50.670        13
50.680        13
50.690        13
50.700        27
50.710         7
50.720        20
50.730        13
50.740        20
50.750        13
50.760        13
50.770        20
50.780         7
50.790        13
50.800        20
50.810         0
50.820        13
50.830        27
50.840         7
50.850        13
50.860         7
50.870         7
50.880         7
50.890        20
50.900         7
50.910        33
50.920        20
50.930        13
50.940        13
50.950        27
50.960        27
50.970        27
50.980         7
50.990        20
51.000         0
51.010        20
51.020        20
51.030         7
51.040        20
51.050        13
51.060        20
51.070        20
51.080        13
51.090        13
51.100         0
51.110         0
51.120        13
51.130         7
51.140        27
51.150         0
51.160        27
51.170        13
51.180         0
51.190        20
51.200        13
51.210         7
51.220        33
51.230         0
51.240        13
51.250         0
51.260        13
51.270         7
51.280         7
51.290        13
51.300        40
51.310         0
51.320         7
51.330        13
51.340         7
51.350        27
51.360         0
51.370        20
51.380        20
51.390        33
51.400        33
51.410         7
51.420        13
51.430         0
51.440        20
51.450        27
51.460        20
51.470        13
51.480        20
51.490        13
51.500        13
51.510        27
51.520        33
51.530         7
51.540         7
51.550         7
51.560         7
51.570        13
51.580        20
51.590        27
51.600         7
51.610        20
51.620        20
51.630        27
51.640        20
51.650        20
51.660         7
51.670         0
51.680        13
51.690        13
51.700        13
51.710         7
51.720         7
51.730         7
51.740        27
51.750         7
51.760         7
51.770        20
51.780         7
51.790        20
51.800         7
51.810        13
51.820         7
51.830        13
51.840        33
51.850         0
51.860         7
51.870         7
51.880        33
51.890         7
51.900        13
51.910         7
51.920        13
51.930         7
51.940         7
51.950         7
51.960        13
51.970        20
51.980        27
51.990         7
52.000        13
52.010        20
52.020         7
52.030         7
52.040        13
52.050        27
52.060         7
52.070        20
52.080        27
52.090        27
52.100        13
52.110         0
52.120        20
52.130        27
52.140        20
52.150        13
52.160         7
52.170         7
52.180         0
52.190        13
52.200        13
52.210        27
52.220         7
52.230         0
52.240        20
52.250         0
52.260        27
52.270        20
52.280        20
52.290        20
52.300        20
52.310        20
52.320        20
52.330         0
52.340        13
52.350         0
52.360         7
52.370        20
52.380        13
52.390         7
52.400         0
52.410        33
52.420        20
52.430        20
52.440        20
52.450         0
52.460         0
52.470        27
52.480        20
52.490         7
52.500        20
52.510        27
52.520         0
52.530        13
52.540        47
52.550        33
52.560        53
52.570        53
52.580        47
52.590        93
52.600       100
52.610        73
52.620        53
52.630        47
52.640        20
52.650        13
52.660        20
52.670        40
52.680         7
52.690        20
52.700        40
52.710        67
52.720        53
52.730        47
52.740        40
52.750        53
52.760        13
52.770        33
52.780        40
52.790        20
52.800        20
52.810        13
52.820        27
52.830        20
52.840        27
52.850         7
52.860         7
52.870        40
52.880        13
52.890        13
52.900        13
52.910        13
52.920        20
52.930        13
52.940         0
52.950        33
52.960        20
52.970         7
52.980        20
52.990        27
53.000        33
53.010         7
53.020         7
53.030         7
53.040         0
53.050        33
53.060        20
53.070         7
53.080         7
53.090        20
53.100         7
53.110         0
53.120        27
53.130        27
53.140         0
53.150         7
53.160         7
53.170         7
53.180         7
53.190        13
53.200        47
53.210         0
53.220        33
53.230         0
53.240         0
53.250        40
53.260        20
53.270        13
53.280         7
53.290        13
53.300        13
53.310        13
53.320         7
53.330        33
53.340         7
53.350         0
53.360         7
53.370         7
53.380         0
53.390         7
53.400        20
53.410         7
53.420         7
53.430        13
53.440        13
53.450        13
53.460        13
53.470         7
53.480        20
53.490        13
53.500        20
53.510        20
53.520        27
53.530        33
53.540         7
53.550         7
53.560        13
53.570         0
53.580        13
53.590        13
53.600        20
53.610         7
53.620        20
53.630        27
53.640         7
53.650         0
53.660         7
53.670        13
53.680        13
53.690         0
53.700        33
53.710        13
53.720        13
53.730        27
53.740         7
53.750        20
53.760        13
53.770         7
53.780        27
53.790        13
53.800         0
53.810         0
53.820         7
53.830         7
53.840         0
53.850         7
53.860         7
53.870        13
53.880         7
53.890         7
53.900        20
53.910        20
53.920         0
53.930        13
53.940         0
53.950        47
53.960        13
53.970        33
53.980         0
53.990         7
54.000        27
54.010        20
54.020         7
54.030        13
54.040        33
54.050        13
54.060         7
54.070        20
54.080        13
54.090         7
54.100         7
54.110         0
54.120         7
54.130         7
54.140        20
54.150        13
54.160        13
54.170        20
54.180        27
54.190        13
54.200        13
54.210        33
54.220         7
54.230        13
54.240         7
54.250        20
54.260        20
54.270        20
54.280        20
54.290        20
54.300        27
54.310        13
54.320        20
54.330        13
54.340        20
54.350        13
54.360        13
54.370         7
54.380        20
54.390        27
54.400        20
54.410        40
54.420        20
54.430         0
54.440        20
54.450        20
54.460         0
54.470        33
54.480        13
54.490        20
54.500         7
54.510        13
54.520         0
54.530        40
54.540         0
54.550        13
54.560         7
54.570        47
54.580        13
54.590        27
54.600        20
54.610        13
54.620         0
54.630        20
54.640        20
54.650        20
54.660        13
54.670        13
54.680        13
54.690        20
54.700        13
54.710        13
54.720        13
54.730         7
54.740         7
54.750        13
54.760         7
54.770        33
54.780        20
54.790         0
54.800         7
54.810         0
54.820        47
54.830        13
54.840        20
54.850        13
54.860         0
54.870        20
54.880        20
54.890        13
54.900        27
54.910        13
54.920         7
54.930         7
54.940        13
54.950        27
54.960         7
54.970         7
54.980         7
54.990        20
55.000        20
55.010        27
55.020        20
55.030        20
55.040        27
55.050        27
55.060        27
55.070         7
55.080        20
55.090        20
55.100        27
55.110         0
55.120         0
55.130        27
55.140        20
55.150         7
55.160        13
55.170        20
55.180         7
55.190        47
55.200        27
55.210         7
55.220         7
55.230        27
55.240        27
55.250        47
55.260        20
55.270        20
55.280        13
55.290         0
55.300        13
55.310        33
55.320        20
55.330        20
55.340        33
55.350        27
55.360        33
55.370        33
55.380        27
55.390        53
55.400        20
55.410        53
55.420        47
55.430        33
55.440        33
55.450        53
55.460        27
55.470        47
55.480        40
55.490        60
55.500        87
55.510        87
55.520        53
55.530        53
55.540        60
55.550       100
55.560        67
55.570        73
55.580        67
55.590        87
55.600        73
55.610        67
55.620        87
55.630       107
55.640        73
55.650       120
55.660        73
55.670       147
55.680       120
55.690       140
55.700       127
55.710       127
55.720       113
55.730       147
55.740       153
55.750       100
55.760       107
55.770        87
55.780       113
55.790       100
55.800       113
55.810       120
55.820        93
55.830       133
55.840       113
55.850        80
55.860        93
55.870        93
55.880        87
55.890        73
55.900       120
55.910        93
55.920        47
55.930        60
55.940        67
55.950        60
55.960        87
55.970        73
55.980        80
55.990        80
56.000        40
56.010        67
56.020        40
56.030        27
56.040        33
56.050        33
56.060        47
56.070        33
56.080        47
56.090        33
56.100        40
56.110        13
56.120        20
56.130         7
56.140        20
56.150        27
56.160        40
56.170        13
56.180        13
56.190        27
56.200        27
56.210        20
56.220        13
56.230         7
56.240        13
56.250        13
56.260        20
56.270        40
56.280        20
56.290        13
56.300        27
56.310        33
56.320        13
56.330        13
56.340        13
56.350        33
56.360        13
56.370         7
56.380        20
56.390        20
56.400        13
56.410         7
56.420         7
56.430        27
56.440        33
56.450        27
56.460        13
56.470        13
56.480        20
56.490         7
56.500        13
56.510         0
56.520        13
56.530        33
56.540         0
56.550        33
56.560        13
56.570        40
56.580        13
56.590        20
56.600        13
56.610         7
56.620        13
56.630        13
56.640        13
56.650        13
56.660        40
56.670        13
56.680         0
56.690        13
56.700        27
56.710        27
56.720        27
56.730        27
56.740        33
56.750         7
56.760        13
56.770        13
56.780         7
56.790         0
56.800        13
56.810        27
56.820         0
56.830         0
56.840         7
56.850         7
56.860        27
56.870         0
56.880         7
56.890        20
56.900         7
56.910        13
56.920        20
56.930        27
56.940         7
56.950        20
56.960        27
56.970         0
56.980        13
56.990        13
57.000        27
57.010        20
57.020        27
57.030         7
57.040        13
57.050         7
57.060        13
57.070         7
57.080        13
57.090        27
57.100        20
57.110        20
57.120        13
57.130        13
57.140        27
57.150        13
57.160        27
57.170        27
57.180        20
57.190        20
57.200        13
57.210        33
57.220        20
57.230        33
57.240         7
57.250         7
57.260        27
57.270        27
57.280        33
57.290        40
57.300         7
57.310        27
57.320        13
57.330        27
57.340        27
57.350         0
57.360        33
57.370        20
57.380        20
57.390        27
57.400        13
57.410        33
57.420        40
57.430        33
57.440        20
57.450        27
57.460        33
57.470        53
57.480        47
57.490        73
57.500       153
57.510       133
57.520       233
57.530       140
57.540       120
57.550       167
57.560        73
57.570       107
57.580        93
57.590        40
57.600        87
57.610        20
57.620        33
57.630        27
57.640        53
57.650        67
57.660        53
57.670        60
57.680        80
57.690       100
57.700        60
57.710        87
57.720        73
57.730        40
57.740        60
57.750         7
57.760        33
57.770        13
57.780        47
57.790        20
57.800        13
57.810         7
57.820         0
57.830         7
57.840         7
57.850        27
57.860        13
57.870        13
57.880         0
57.890        13
57.900        20
57.910         0
57.920         7
57.930        27
57.940        27
57.950        13
57.960        20
57.970        13
57.980        20
57.990        20
58.000        20
58.010         7
58.020        27
58.030        27
58.040         7
58.050        13
58.060        20
58.070        20
58.080         7
58.090        27
58.100        13
58.110        13
58.120        13
58.130         0
58.140        33
58.150        13
58.160         0
58.170         7
58.180        40
58.190        33
58.200        40
58.210         0
58.220         7
58.230         7
58.240        13
58.250        20
58.260        33
58.270        13
58.280         7
58.290        13
58.300        20
58.310        13
58.320        13
58.330         7
58.340        27
58.350         0
58.360         7
58.370        33
58.380        27
58.390        13
58.400        13
58.410        27
58.420         0
58.430        20
58.440        20
58.450        20
58.460         7
58.470        20
58.480        27
58.490        13
58.500        27
58.510         0
58.520         7
58.530         7
58.540         7
58.550         0
58.560        20
58.570         7
58.580         7
58.590        13
58.600         7
58.610         7
58.620        20
58.630        13
58.640         0
58.650         7
58.660        13
58.670        27
58.680         0
58.690        13
58.700        20
58.710         7
58.720         7
58.730         0
58.740        13
58.750        13
58.760        20
58.770        13
58.780        20
58.790         7
58.800         0
58.810         7
58.820        20
58.830        20
58.840         0
58.850         7
58.860        13
58.870        27
58.880         7
58.890        13
58.900        20
58.910        13
58.920         7
58.930        13
58.940        40
58.950         0
58.960         0
58.970        13
58.980        13
58.990        20
59.000        27
59.010        13
59.020        20
59.030        20
59.040        13
59.050         7
59.060         7
59.070        13
59.080        40
59.090        13
59.100        13
59.110        13
59.120        20
59.130         7
59.140        13
59.150         7
59.160        20
59.170        27
59.180         0
59.190         0
59.200         0
59.210         7
59.220         0
59.230        13
59.240         0
59.250         7
59.260        20
59.270        20
59.280        20
59.290         0
59.300         0
59.310         7
59.320        33
59.330        40
59.340         0
59.350        20
59.360         7
59.370        13
59.380         7
59.390        20
59.400        13
59.410        13
59.420        20
59.430        13
59.440        13
59.450        27
59.460        33
59.470        20
59.480         0
59.490        20
59.500        20
59.510        20
59.520        20
59.530        20
59.540        20
59.550        13
59.560        20
59.570         7
59.580        20
59.590         7
59.600         7
59.610        20
59.620        13
59.630         7
59.640         0
59.650         0
59.660        20
59.670         7
59.680        27
59.690        27
59.700        27
59.710        13
59.720         7
59.730         7
59.740        13
59.750        13
59.760         7
59.770         7
59.780        20
59.790        13
59.800        33
59.810        20
59.820         0
59.830         7
59.840         7
59.850        20
59.860         0
59.870        13
59.880         0
59.890        20
59.900        13
59.910         7
59.920        20
59.930        13
59.940         7
59.950         0
59.960        13
59.970         7
59.980        20
59.990         7
60.000         7
