20.000        33
20.010        33
20.020        80
20.030        87
20.040        53
20.050        47
20.060       100
20.070       100
20.080       107
20.090        33
20.100        87
20.110        73
20.120        87
20.130       140
20.140        87
20.150        87
20.160       127
20.170       107
20.180        80
20.190        80
20.200        73
20.210        80
20.220        93
20.230       100
20.240        67
20.250        87
20.260        47
20.270        93
20.280        87
20.290        40
20.300       120
20.310       100
20.320        87
20.330        93
20.340        87
20.350        67
20.360        53
20.370        73
20.380       127
20.390       120
20.400        67
20.410        80
20.420        73
20.430       100
20.440        93
20.450        87
20.460        87
20.470       107
20.480       100
20.490       127
20.500        60
20.510       100
20.520        73
20.530       100
20.540        80
20.550       100
20.560       133
20.570        67
20.580       107
20.590        73
20.600       100
20.610        80
20.620        67
20.630       107
20.640        93
20.650        87
20.660        80
20.670       127
20.680        80
20.690       120
20.700       100
20.710        87
20.720        73
20.730       120
20.740        93
20.750        20
20.760        80
20.770       113
20.780        60
20.790        73
20.800        73
20.810        73
20.820        67
20.830        80
20.840        73
20.850       113
20.860       100
20.870        73
20.880        67
20.890        47
20.900       127
20.910        73
20.920        93
20.930        40
20.940       113
20.950       107
20.960        87
20.970       100
20.980        60
20.990        80
21.000        80
21.010        53
21.020        53
21.030        60
21.040        87
21.050        93
21.060       140
21.070        80
21.080        93
21.090        73
21.100        73
21.110        47
21.120       107
21.130        47
21.140        73
21.150        73
21.160        73
21.170       100
21.180        60
21.190        93
21.200       127
21.210        73
21.220       107
21.230        93
21.240        80
21.250       107
21.260        80
21.270       120
21.280        87
21.290        60
21.300        80
21.310        60
21.320        67
21.330        73
21.340        67
21.350        67
21.360        73
21.370       120
21.380        73
21.390       100
21.400       107
21.410       133
21.420        60
21.430        40
21.440       127
21.450        73
21.460        60
21.470        60
21.480        80
21.490       120
21.500        73
21.510        53
21.520        93
21.530       107
21.540       120
21.550        67
21.560        53
21.570        80
21.580        60
21.590       100
21.600        40
21.610       107
21.620        93
21.630        60
21.640       100
21.650        73
21.660        87
21.670        73
21.680        73
21.690       107
21.700        60
21.710        93
21.720        73
21.730       127
21.740        80
21.750       107
21.760        73
21.770        73
21.780        40
21.790        40
21.800       133
21.810        60
21.820        87
21.830       127
21.840        60
21.850        60
21.860        73
21.870        93
21.880       120
21.890       107
21.900        93
21.910       133
21.920        80
21.930        80
21.940        87
21.950        60
21.960        80
21.970        93
21.980        67
21.990       127
22.000        93
22.010        60
22.020        87
22.030        80
22.040        67
22.050        87
22.060        93
22.070        73
22.080        53
22.090       133
22.100        53
22.110       113
22.120        80
22.130        60
22.140       140
22.150        80
22.160       120
22.170       127
22.180       107
22.190        80
22.200       147
22.210       113
22.220        87
22.230        80
22.240       127
22.250       127
22.260       113
22.270        73
22.280        87
22.290        73
22.300       120
22.310       153
22.320       107
22.330        93
22.340       120
22.350        73
22.360       167
22.370       153
22.380       107
22.390       107
22.400       160
22.410       147
22.420       100
22.430       133
22.440       173
22.450       107
22.460       167
22.470       140
22.480       187
22.490       167
22.500       120
22.510       213
22.520       227
22.530       213
22.540       260
22.550       347
22.560       327
22.570       320
22.580       253
22.590       340
22.600       387
22.610       413
22.620       280
22.630       320
22.640       367
22.650       307
22.660       407
22.670       420
22.680       493
22.690       446
22.700       407
22.710       426
22.720       307
22.730       380
22.740       347
22.750       320
22.760       353
22.770       387
22.780       280
22.790       367
22.800       320
22.810       293
22.820       240
22.830       273
22.840       260
22.850       280
22.860       220
22.870       300
22.880       200
22.890       213
22.900       187
22.910       247
22.920       207
22.930       267
22.940       253
22.950       207
22.960       227
22.970       233
22.980       273
22.990       260
23.000       167
23.010       253
23.020       253
23.030       207
23.040       207
23.050       287
23.060       307
23.070       373
23.080       520
23.090       600
23.100       993
23.110      1326
23.120      1306
23.130      1359
23.140      1180
23.150      1226
23.160       880
23.170       646
23.180       407
23.190       320
23.200       327
23.210       287
23.220       233
23.230       207
23.240       127
23.250       227
23.260       120
23.270       200
23.280       140
23.290       180
23.300       200
23.310       133
23.320       160
23.330       133
23.340       173
23.350       213
23.360       133
23.370       160
23.380       120
23.390       100
23.400       200
23.410       213
23.420       167
23.430       133
23.440       193
23.450       140
23.460        93
23.470       167
23.480       140
23.490       127
23.500       160
23.510       127
23.520       167
23.530       147
23.540       200
23.550       133
23.560       107
23.570       160
23.580       233
23.590       153
23.600       153
23.610       153
23.620       153
23.630       113
23.640        93
23.650       147
23.660       167
23.670       133
23.680       167
23.690       200
23.700       113
23.710       127
23.720       113
23.730       140
23.740       147
23.750       180
23.760       127
23.770       100
23.780       120
23.790       127
23.800       167
23.810       140
23.820       140
23.830       127
23.840       107
23.850       160
23.860       153
23.870       120
23.880       133
23.890       133
23.900       133
23.910        93
23.920       160
23.930        80
23.940       167
23.950       120
23.960       160
23.970       120
23.980       133
23.990       160
24.000        93
24.010       113
24.020       113
24.030       100
24.040       167
24.050       187
24.060       160
24.070       173
24.080       127
24.090       173
24.100       127
24.110       120
24.120       173
24.130       187
24.140       160
24.150       100
24.160        93
24.170       153
24.180       187
24.190       120
24.200       120
24.210       127
24.220       147
24.230       127
24.240       113
24.250       127
24.260       133
24.270       127
24.280       147
24.290       167
24.300       160
24.310       180
24.320       120
24.330       113
24.340       107
24.350       187
24.360       167
24.370       160
24.380        93
24.390       160
24.400       113
24.410        93
24.420       180
24.430       153
24.440        93
24.450       133
24.460       147
24.470       127
24.480       113
24.490       140
24.500       147
24.510       140
24.520       127
24.530       187
24.540       120
24.550       140
24.560       113
24.570       160
24.580       173
24.590       147
24.600       120
24.610       167
24.620       113
24.630       153
24.640       133
24.650       153
24.660       127
24.670       173
24.680       147
24.690       160
24.700       147
24.710       147
24.720       293
24.730       180
24.740       267
24.750       353
24.760       387
24.770       446
24.780       480
24.790       533
24.800       533
24.810       593
24.820       613
24.830       540
24.840       526
24.850       520
24.860       493
24.870       606
24.880       580
24.890       573
24.900       606
24.910       553
24.920       640
24.930       553
24.940       580
24.950       513
24.960       593
24.970       573
24.980       586
24.990       600
25.000       560
25.010       513
25.020       493
25.030       600
25.040       760
25.050       560
25.060       506
25.070       606
25.080       640
25.090       566
25.100       653
25.110       540
25.120       600
25.130       486
25.140       520
25.150       540
25.160       613
25.170       566
25.180       506
25.190       626
25.200       566
25.210       573
25.220       686
25.230       613
25.240       613
25.250       626
25.260       740
25.270       700
25.280       533
25.290       620
25.300       653
25.310       760
25.320       720
25.330       873
25.340       640
25.350       853
25.360       746
25.370       773
25.380      1000
25.390      1000
25.400      1020
25.410      1220
25.420      1286
25.430      1446
25.440      1946
25.450      2452
25.460      2586
25.470      3152
25.480      4218
25.490      4805
25.500      5365
25.510      6584
25.520      6871
25.530      8137
25.540      8603
25.550      9243
25.560     12049
25.570     18279
25.580     36179
25.590     64847
25.600     96075
25.610    117340
25.620    129755
25.630    134360
25.640    138378
25.650    138311
25.660    129648
25.670    110776
25.680     91730
25.690     83433
25.700     80674
25.710     75590
25.720     65760
25.730     49560
25.740     31354
25.750     18919
25.760     12588
25.770     10169
25.780      8730
25.790      7697
25.800      6697
25.810      5744
25.820      4958
25.830      4052
25.840      3472
25.850      3225
25.860      2772
25.870      2046
25.880      1839
25.890      1506
25.900      1266
25.910      1213
25.920      1026
25.930       953
25.940      1033
25.950       973
25.960       913
25.970       900
25.980       840
25.990       886
26.000       846
26.010       853
26.020       700
26.030       686
26.040       760
26.050       860
26.060       666
26.070       680
26.080       673
26.090       573
26.100       620
26.110       700
26.120       573
26.130       600
26.140       626
26.150       586
26.160       613
26.170       613
26.180       653
26.190       533
26.200       633
26.210       580
26.220       613
26.230       513
26.240       586
26.250       580
26.260       573
26.270       540
26.280       546
26.290       553
26.300       327
26.310       407
26.320       560
26.330       533
26.340       533
26.350       540
26.360       466
26.370       586
26.380       513
26.390       486
26.400       413
26.410       473
26.420       453
26.430       486
26.440       486
26.450       500
26.460       460
26.470       526
26.480       413
26.490       560
26.500       573
26.510       353
26.520       466
26.530       420
26.540       533
26.550       466
26.560       360
26.570       440
26.580       480
26.590       546
26.600       426
26.610       466
26.620       407
26.630       393
26.640       520
26.650       460
26.660       500
26.670       506
26.680       433
26.690       360
26.700       446
26.710       426
26.720       340
26.730       367
26.740       433
26.750       347
26.760       367
26.770       533
26.780       407
26.790       420
26.800       347
26.810       446
26.820       327
26.830       506
26.840       426
26.850       440
26.860       407
26.870       426
26.880       420
26.890       380
26.900       460
26.910       393
26.920       426
26.930       387
26.940       426
26.950       393
26.960       460
26.970       413
26.980       380
26.990       333
27.000       327
27.010       407
27.020       387
27.030       393
27.040       420
27.050       480
27.060       400
27.070       353
27.080       367
27.090       360
27.100       280
27.110       400
27.120       367
27.130       480
27.140       400
27.150       333
27.160       347
27.170       347
27.180       440
27.190       453
27.200       300
27.210       367
27.220       320
27.230       367
27.240       287
27.250       400
27.260       420
27.270       407
27.280       413
27.290       380
27.300       327
27.310       333
27.320       407
27.330       353
27.340       367
27.350       340
27.360       387
27.370       353
27.380       300
27.390       320
27.400       446
27.410       353
27.420       373
27.430       347
27.440       347
27.450       400
27.460       373
27.470       360
27.480       360
27.490       333
27.500       407
27.510       360
27.520       360
27.530       400
27.540       387
27.550       300
27.560       347
27.570       353
27.580       407
27.590       347
27.600       333
27.610       313
27.620       247
27.630       400
27.640       347
27.650       267
27.660       260
27.670       373
27.680       340
27.690       433
27.700       313
27.710       333
27.720       287
27.730       453
27.740       233
27.750       280
27.760       373
27.770       347
27.780       373
27.790       253
27.800       367
27.810       360
27.820       347
27.830       353
27.840       353
27.850       393
27.860       253
27.870       307
27.880       333
27.890       333
27.900       267
27.910       347
27.920       307
27.930       387
27.940       413
27.950       353
27.960       280
27.970       313
27.980       347
27.990       313
28.000       353
28.010       307
28.020       260
28.030       340
28.040       320
28.050       293
28.060       320
28.070       307
28.080       327
28.090       387
28.100       193
28.110       293
28.120       340
28.130       380
28.140       360
28.150       327
28.160       313
28.170       426
28.180       327
28.190       273
28.200       340
28.210       307
28.220       293
28.230       327
28.240       253
28.250       333
28.260       200
28.270       253
28.280       227
28.290       313
28.300       293
28.310       233
28.320       227
28.330       367
28.340       273
28.350       313
28.360       293
28.370       353
28.380       273
28.390       313
28.400       353
28.410       333
28.420       280
28.430       347
28.440       353
28.450       287
28.460       253
28.470       280
28.480       227
28.490       380
28.500       320
28.510       320
28.520       267
28.530       287
28.540       247
28.550       300
28.560       273
28.570       273
28.580       313
28.590       253
28.600       353
28.610       233
28.620       280
28.630       353
28.640       280
28.650       200
28.660       280
28.670       227
28.680       280
28.690       300
28.700       373
28.710       333
28.720       280
28.730       267
28.740       347
28.750       347
28.760       260
28.770       300
28.780       247
28.790       313
28.800       193
28.810       360
28.820       333
28.830       233
28.840       247
28.850       280
28.860       393
28.870       287
28.880       233
28.890       307
28.900       247
28.910       260
28.920       233
28.930       280
28.940       247
28.950       260
28.960       293
28.970       220
28.980       233
28.990       273
29.000       287
29.010       320
29.020       253
29.030       253
29.040       273
29.050       300
29.060       293
29.070       240
29.080       240
29.090       280
29.100       273
29.110       340
29.120       300
29.130       273
29.140       260
29.150       260
29.160       253
29.170       233
29.180       267
29.190       280
29.200       260
29.210       247
29.220       287
29.230       273
29.240       247
29.250       320
29.260       253
29.270       260
29.280       287
29.290       313
29.300       220
29.310       253
29.320       313
29.330       320
29.340       213
29.350       240
29.360       333
29.370       200
29.380       267
29.390       280
29.400       240
29.410       227
29.420       313
29.430       320
29.440       273
29.450       293
29.460       200
29.470       273
29.480       260
29.490       260
29.500       227
29.510       193
29.520       313
29.530       260
29.540       260
29.550       240
29.560       293
29.570       260
29.580       233
29.590       247
29.600       300
29.610       207
29.620       300
29.630       213
29.640       220
29.650       280
29.660       213
29.670       273
29.680       220
29.690       280
29.700       173
29.710       240
29.720       233
29.730       240
29.740       353
29.750       293
29.760       253
29.770       147
29.780       207
29.790       227
29.800       267
29.810       340
29.820       220
29.830       193
29.840       240
29.850       267
29.860       240
29.870       260
29.880       260
29.890       253
29.900       253
29.910       253
29.920       253
29.930       347
29.940       280
29.950       160
29.960       220
29.970       213
29.980       260
29.990       220
30.000       240
30.010       227
30.020       213
30.030       267
30.040       233
30.050       200
30.060       160
30.070       220
30.080       193
30.090       260
30.100       133
30.110       180
30.120       220
30.130       207
30.140       207
30.150       173
30.160       253
30.170       247
30.180       220
30.190       227
30.200       233
30.210       207
30.220       273
30.230       233
30.240       233
30.250       220
30.260       253
30.270       220
30.280       253
30.290       207
30.300       227
30.310       227
30.320       240
30.330       240
30.340       213
30.350       153
30.360       207
30.370       267
30.380       180
30.390       300
30.400       267
30.410       167
30.420       227
30.430       193
30.440       173
30.450       247
30.460       193
30.470       240
30.480       160
30.490       233
30.500       227
30.510       200
30.520       220
30.530       213
30.540       227
30.550       207
30.560       240
30.570       180
30.580       180
30.590       207
30.600       247
30.610       240
30.620       227
30.630       253
30.640       207
30.650       167
30.660       193
30.670       207
30.680       127
30.690       233
30.700       193
30.710       233
30.720       240
30.730       200
30.740       260
30.750       180
30.760       193
30.770       193
30.780       247
30.790       193
30.800       207
30.810       213
30.820       260
30.830       233
30.840       160
30.850       220
30.860       193
30.870       240
30.880       213
30.890       220
30.900       287
30.910       260
30.920       147
30.930       180
30.940       220
30.950       180
30.960       293
30.970       253
30.980       187
30.990       140
31.000       147
31.010       147
31.020       160
31.030       180
31.040       180
31.050       193
31.060       160
31.070       187
31.080       147
31.090       187
31.100       227
31.110       220
31.120       233
31.130       140
31.140       200
31.150       160
31.160       160
31.170       207
31.180       153
31.190       133
31.200       233
31.210       180
31.220       147
31.230       193
31.240       193
31.250       167
31.260       193
31.270       133
31.280       187
31.290       193
31.300       180
31.310       147
31.320       253
31.330       187
31.340       200
31.350       173
31.360       187
31.370       160
31.380       200
31.390       193
31.400       167
31.410       167
31.420       147
31.430       200
31.440       267
31.450       220
31.460       240
31.470       187
31.480       160
31.490       167
31.500       167
31.510       107
31.520       213
31.530       180
31.540       193
31.550       193
31.560       213
31.570       233
31.580       193
31.590       160
31.600       113
31.610       200
31.620       180
31.630       227
31.640       220
31.650       167
31.660       200
31.670       187
31.680       133
31.690       107
31.700       167
31.710       153
31.720       180
31.730       227
31.740       180
31.750       200
31.760       233
31.770       160
31.780       167
31.790       160
31.800       180
31.810       180
31.820       220
31.830       160
31.840       173
31.850       207
31.860       160
31.870       187
31.880       207
31.890       160
31.900       187
31.910       160
31.920       160
31.930       173
31.940       173
31.950       120
31.960       127
31.970       173
31.980       200
31.990       207
32.000       147
32.010       180
32.020       253
32.030       193
32.040       200
32.050       240
32.060       180
32.070       107
32.080       180
32.090       293
32.100       247
32.110       167
32.120       240
32.130       213
32.140       173
32.150       227
32.160       313
32.170       253
32.180       360
32.190       313
32.200       293
32.210       426
32.220       253
32.230       360
32.240       313
32.250       393
32.260       413
32.270       400
32.280       353
32.290       360
32.300       473
32.310       440
32.320       373
32.330       580
32.340       473
32.350       566
32.360       493
32.370       500
32.380       606
32.390       566
32.400       480
32.410       566
32.420       533
32.430       540
32.440       573
32.450       520
32.460       606
32.470       553
32.480       453
32.490       513
32.500       533
32.510       387
32.520       367
32.530       440
32.540       473
32.550       353
32.560       413
32.570       440
32.580       320
32.590       307
32.600       320
32.610       293
32.620       280
32.630       240
32.640       273
32.650       240
32.660       260
32.670       253
32.680       320
32.690       260
32.700       260
32.710       247
32.720       187
32.730       227
32.740       180
32.750       113
32.760       160
32.770       180
32.780       173
32.790       167
32.800       113
32.810       187
32.820       213
32.830       160
32.840       173
32.850       160
32.860       160
32.870       133
32.880       207
32.890       133
32.900       180
32.910       207
32.920       153
32.930       133
32.940       207
32.950       173
32.960       167
32.970       187
32.980       173
32.990        87
33.000       200
33.010       147
33.020       113
33.030       167
33.040       127
33.050       113
33.060       167
33.070       127
33.080       120
33.090       187
33.100       113
33.110        93
33.120       153
33.130       133
33.140       127
33.150       113
33.160       173
33.170       140
33.180       147
33.190       187
33.200       147
33.210       140
33.220        80
33.230       107
33.240       160
33.250       180
33.260       140
33.270       127
33.280       100
33.290       113
33.300       140
33.310       133
33.320       133
33.330       140
33.340       140
33.350       133
33.360       153
33.370       133
33.380       200
33.390        87
33.400       120
33.410        80
33.420       133
33.430       133
33.440       127
33.450       167
33.460        80
33.470       100
33.480       100
33.490        80
33.500       120
33.510       100
33.520       107
33.530       133
33.540        93
33.550       160
33.560       113
33.570       140
33.580        93
33.590        93
33.600       127
33.610       107
33.620        87
33.630       153
33.640       100
33.650        80
33.660        93
33.670       180
33.680       147
33.690        87
33.700       100
33.710        93
33.720       100
33.730       100
33.740       120
33.750       107
33.760       113
33.770        93
33.780       140
33.790       160
33.800       140
33.810        93
33.820        80
33.830       153
33.840       100
33.850       100
33.860       140
33.870       113
33.880       140
33.890       107
33.900       107
33.910       120
33.920        47
33.930        67
33.940        87
33.950       120
33.960       113
33.970       133
33.980        93
33.990       200
34.000       100
34.010       167
34.020       113
34.030       120
34.040       120
34.050        87
34.060       133
34.070       107
34.080       107
34.090       133
34.100       107
34.110       147
34.120        67
34.130       133
34.140       113
34.150       107
34.160       120
34.170       120
34.180        80
34.190       133
34.200       187
34.210       113
34.220       113
34.230       120
34.240        87
34.250        93
34.260        87
34.270       120
34.280       127
34.290       140
34.300       127
34.310       120
34.320       127
34.330        53
34.340        87
34.350       153
34.360        60
34.370        87
34.380       153
34.390       147
34.400       160
34.410        87
34.420       100
34.430        87
34.440       107
34.450       100
34.460        80
34.470        80
34.480       133
34.490        93
34.500        67
34.510        93
34.520       160
34.530       107
34.540        80
34.550       120
34.560       127
34.570        80
34.580       133
34.590        87
34.600       120
34.610        80
34.620       127
34.630       113
34.640       127
34.650        87
34.660        80
34.670       133
34.680       120
34.690       100
34.700        53
34.710       100
34.720       107
34.730       107
34.740       127
34.750       100
34.760       100
34.770       127
34.780        73
34.790        73
34.800       140
34.810       120
34.820        87
34.830        93
34.840       100
34.850        87
34.860       127
34.870        93
34.880       147
34.890       113
34.900       100
34.910        80
34.920        80
34.930       127
34.940       153
34.950       100
34.960        93
34.970        87
34.980       107
34.990        60
35.000        87
35.010        80
35.020        87
35.030        93
35.040       140
35.050        93
35.060       127
35.070        93
35.080       100
35.090       100
35.100        93
35.110        93
35.120       113
35.130       120
35.140       113
35.150        60
35.160       127
35.170        80
35.180        93
35.190        93
35.200       113
35.210        53
35.220        73
35.230       113
35.240        47
35.250        33
35.260       100
35.270       120
35.280       107
35.290        93
35.300       107
35.310        93
35.320        93
35.330        87
35.340       120
35.350       107
35.360       100
35.370        67
35.380        80
35.390        87
35.400       120
35.410        73
35.420        60
35.430        53
35.440        93
35.450        93
35.460       187
35.470        93
35.480       120
35.490        80
35.500       107
35.510        40
35.520       113
35.530        93
35.540        73
35.550       100
35.560        80
35.570       100
35.580        80
35.590        80
35.600       100
35.610        87
35.620        53
35.630        60
35.640       127
35.650        53
35.660        87
35.670       113
35.680        80
35.690        93
35.700        93
35.710       140
35.720        80
35.730        60
35.740        47
35.750       107
35.760        80
35.770        87
35.780        93
35.790       127
35.800        53
35.810        67
35.820       100
35.830       107
35.840        73
35.850       100
35.860       107
35.870        73
35.880        73
35.890       140
35.900       100
35.910        93
35.920        93
35.930        93
35.940       133
35.950        93
35.960       113
35.970        47
35.980       107
35.990        87
36.000        80
36.010        80
36.020        33
36.030        93
36.040        60
36.050       107
36.060       113
36.070        93
36.080        53
36.090       100
36.100       107
36.110        87
36.120       113
36.130       120
36.140        53
36.150        73
36.160        73
36.170        73
36.180        47
36.190        67
36.200        40
36.210        47
36.220        60
36.230        80
36.240        60
36.250        87
36.260        67
36.270        60
36.280        87
36.290        73
36.300        60
36.310        53
36.320        80
36.330        33
36.340        47
36.350        67
36.360        80
36.370       107
36.380        53
36.390       100
36.400       120
36.410        67
36.420       100
36.430        47
36.440        47
36.450        93
36.460        87
36.470        60
36.480        67
36.490        67
36.500        53
36.510        87
36.520       100
36.530        73
36.540        53
36.550        60
36.560        20
36.570        53
36.580        93
36.590        67
36.600        73
36.610        53
36.620        53
36.630        73
36.640        53
36.650        47
36.660        60
36.670        87
36.680        27
36.690        53
36.700       100
36.710        53
36.720        67
36.730        73
36.740        80
36.750        73
36.760        93
36.770        73
36.780        73
36.790        40
36.800        47
36.810        67
36.820        27
36.830        80
36.840       107
36.850       107
36.860        80
36.870        93
36.880        47
36.890        67
36.900        67
36.910        47
36.920        60
36.930        80
36.940        67
36.950        67
36.960        60
36.970        47
36.980        40
36.990        93
37.000        60
37.010        60
37.020        47
37.030        47
37.040        67
37.050        60
37.060        47
37.070        47
37.080        73
37.090        67
37.100        80
37.110        40
37.120        67
37.130       107
37.140        80
37.150        93
37.160        60
37.170       107
37.180        67
37.190        20
37.200        60
37.210        67
37.220        47
37.230        73
37.240        87
37.250        40
37.260       100
37.270        67
37.280        27
37.290        67
37.300        93
37.310        60
37.320        53
37.330        73
37.340        87
37.350        60
37.360        47
37.370        27
37.380       113
37.390        60
37.400        80
37.410        73
37.420        47
37.430        53
37.440        60
37.450        80
37.460        80
37.470        73
37.480        67
37.490        27
37.500        47
37.510        87
37.520        80
37.530        60
37.540        60
37.550        67
37.560        80
37.570        73
37.580        73
37.590        80
37.600        80
37.610        40
37.620        53
37.630       100
37.640        40
37.650        67
37.660        53
37.670        27
37.680        80
37.690        67
37.700        33
37.710        87
37.720       107
37.730        67
37.740        53
37.750        80
37.760        40
37.770        73
37.780        40
37.790        27
37.800        53
37.810        60
37.820        87
37.830        67
37.840        60
37.850        47
37.860        53
37.870        33
37.880        53
37.890        47
37.900        93
37.910        60
37.920       100
37.930        40
37.940        53
37.950        87
37.960        40
37.970        53
37.980        60
37.990        67
38.000        60
38.010        80
38.020        33
38.030        67
38.040        40
38.050        40
38.060        20
38.070        53
38.080        53
38.090        60
38.100        93
38.110        33
38.120        47
38.130        33
38.140        47
38.150        80
38.160        53
38.170        53
38.180        33
38.190        40
38.200        47
38.210        53
38.220        27
38.230        40
38.240        80
38.250        27
38.260        53
38.270        47
38.280        40
38.290        80
38.300        80
38.310        47
38.320        40
38.330        53
38.340        53
38.350        80
38.360        40
38.370        40
38.380        47
38.390        87
38.400        53
38.410        60
38.420        20
38.430        27
38.440        47
38.450        33
38.460        20
38.470        47
38.480        67
38.490        87
38.500        87
38.510        53
38.520        53
38.530        60
38.540        80
38.550        40
38.560        47
38.570        40
38.580        80
38.590        67
38.600        47
38.610        40
38.620        33
38.630        53
38.640        33
38.650         7
38.660        47
38.670        47
38.680        13
38.690        47
38.700        67
38.710        40
38.720        40
38.730        87
38.740        33
38.750        27
38.760        47
38.770        80
38.780        33
38.790        40
38.800        67
38.810        33
38.820        67
38.830        73
38.840        47
38.850        73
38.860        47
38.870        47
38.880        40
38.890        27
38.900        53
38.910        40
38.920        40
38.930        40
38.940        80
38.950        40
38.960        60
38.970        73
38.980        40
38.990        60
39.000        40
39.010        47
39.020        67
39.030        80
39.040        67
39.050        73
39.060        33
39.070        60
39.080        53
39.090        53
39.100        60
39.110        20
39.120        53
39.130        40
39.140        47
39.150        47
39.160        53
39.170        67
39.180        47
39.190        47
39.200        20
39.210        20
39.220        33
39.230        47
39.240        27
39.250        33
39.260        47
39.270        73
39.280       100
39.290        27
39.300        47
39.310        47
39.320        47
39.330        20
39.340        47
39.350        93
39.360        73
39.370        13
39.380        33
39.390        67
39.400        93
39.410        40
39.420        60
39.430        87
39.440        67
39.450        27
39.460        33
39.470        60
39.480        60
39.490        20
39.500        47
39.510        60
39.520        60
39.530        60
39.540        60
39.550         7
39.560        40
39.570        20
39.580        33
39.590        60
39.600        53
39.610        47
39.620        67
39.630        67
39.640        33
39.650        20
39.660        47
39.670        67
39.680        60
39.690        47
39.700        20
39.710        27
39.720        47
39.730        67
39.740        53
39.750        47
39.760        20
39.770        53
39.780        40
39.790        47
39.800        67
39.810        53
39.820        47
39.830        67
39.840        40
39.850        73
39.860        60
39.870        47
39.880        67
39.890        47
39.900        53
39.910        47
39.920        53
39.930        53
39.940        60
39.950        67
39.960        40
39.970        47
39.980        80
39.990        60
40.000        33
40.010        47
40.020       113
40.030        33
40.040        53
40.050        87
40.060        80
40.070        60
40.080        80
40.090       100
40.100        60
40.110       120
40.120        53
40.130        53
40.140        60
40.150        47
40.160        40
40.170        87
40.180        40
40.190        40
40.200        40
40.210        53
40.220        87
40.230        80
40.240        20
40.250        40
40.260        40
40.270        60
40.280        20
40.290        53
40.300        67
40.310        20
40.320        67
40.330        47
40.340        60
40.350        27
40.360        40
40.370        60
40.380        80
40.390        53
40.400        40
40.410        53
40.420        47
40.430        60
40.440        80
40.450        53
40.460        27
40.470        40
40.480        87
40.490        60
40.500        27
40.510        47
40.520        47
40.530        27
40.540        33
40.550        47
40.560        60
40.570        60
40.580        67
40.590        53
40.600        40
40.610        27
40.620        53
40.630        40
40.640        47
40.650        40
40.660        53
40.670        53
40.680        33
40.690        27
40.700        80
40.710        53
40.720        27
40.730        40
40.740        53
40.750        73
40.760        53
40.770        87
40.780        53
40.790        40
40.800        27
40.810        47
40.820        67
40.830        40
40.840        27
40.850        47
40.860        80
40.870        40
40.880        20
40.890        33
40.900        67
40.910        33
40.920        27
40.930        60
40.940        47
40.950        53
40.960        20
40.970        53
40.980        47
40.990        47
41.000        33
41.010        33
41.020         7
41.030        47
41.040        33
41.050         7
41.060        40
41.070        33
41.080        67
41.090        40
41.100        13
41.110        47
41.120        53
41.130        73
41.140        73
41.150        60
41.160        80
41.170        53
41.180        87
41.190        47
41.200        27
41.210        47
41.220        67
41.230        53
41.240        27
41.250        40
41.260        67
41.270        60
41.280        80
41.290        67
41.300        47
41.310        27
41.320        47
41.330        67
41.340        40
41.350        40
41.360        47
41.370        60
41.380        33
41.390        87
41.400        33
41.410        67
41.420        60
41.430        53
41.440        53
41.450        33
41.460        40
41.470        53
41.480        80
41.490        47
41.500        47
41.510        80
41.520        53
41.530        47
41.540        80
41.550        80
41.560        33
41.570        60
41.580        47
41.590        73
41.600        53
41.610        73
41.620        40
41.630        53
41.640        53
41.650        60
41.660       113
41.670        60
41.680        47
41.690        40
41.700        80
41.710        60
41.720        47
41.730        27
41.740        40
41.750        60
41.760        87
41.770        47
41.780        40
41.790        80
41.800        67
41.810        60
41.820        67
41.830       107
41.840        33
41.850        27
41.860        73
41.870        33
41.880        40
41.890        60
41.900        27
41.910        33
41.920        20
41.930        67
41.940        33
41.950        27
41.960        60
41.970        33
41.980        87
41.990        53
42.000        33
42.010        60
42.020        67
42.030        33
42.040        53
42.050        33
42.060        20
42.070        27
42.080        53
42.090        33
42.100        80
42.110        47
42.120        47
42.130        40
42.140        33
42.150        27
42.160        33
42.170        73
42.180        40
42.190        40
42.200        53
42.210        40
42.220        53
42.230        47
42.240        27
42.250        87
42.260        47
42.270        67
42.280        47
42.290        27
42.300        33
42.310        67
42.320        33
42.330        67
42.340        40
42.350        33
42.360        33
42.370        53
42.380        40
42.390        60
42.400        33
42.410        53
42.420        67
42.430        67
42.440        27
42.450        27
42.460        27
42.470        40
42.480        33
42.490        40
42.500        40
42.510        47
42.520        47
42.530        40
42.540        33
42.550        33
42.560        40
42.570        47
42.580        60
42.590        40
42.600        40
42.610        47
42.620        60
42.630        33
42.640        40
42.650        27
42.660        53
42.670        20
42.680        33
42.690        27
42.700        80
42.710        47
42.720        40
42.730        47
42.740        67
42.750        47
42.760        60
42.770        33
42.780        40
42.790        60
42.800        27
42.810        67
42.820        47
42.830        40
42.840        33
42.850        67
42.860        27
42.870        53
42.880        20
42.890        53
42.900        40
42.910        33
42.920        20
42.930        40
42.940        60
42.950        40
42.960        20
42.970        60
42.980        67
42.990        27
43.000        27
43.010        47
43.020        27
43.030        47
43.040        27
43.050        53
43.060        47
43.070        47
43.080        33
43.090        27
43.100        47
43.110        27
43.120        27
43.130        53
43.140         0
43.150         7
43.160        40
43.170        47
43.180        33
43.190        40
43.200        40
43.210        13
43.220        40
43.230        20
43.240        20
43.250        47
43.260        67
43.270        40
43.280        33
43.290        33
43.300        53
43.310        27
43.320        60
43.330        33
43.340        33
43.350        27
43.360        20
43.370        40
43.380        20
43.390        33
43.400        40
43.410        40
43.420        27
43.430        40
43.440        67
43.450        33
43.460        60
43.470        60
43.480        33
43.490        60
43.500        33
43.510        33
43.520        27
43.530        20
43.540        13
43.550        27
43.560         7
43.570        67
43.580        13
43.590        47
43.600        27
43.610        13
43.620        33
43.630        33
43.640        67
43.650        40
43.660        20
43.670        60
43.680        53
43.690        53
43.700        40
43.710        53
43.720        40
43.730        60
43.740        20
43.750        20
43.760        60
43.770        47
43.780        33
43.790        67
43.800        53
43.810        47
43.820        67
43.830        27
43.840        53
43.850        67
43.860        33
43.870        33
43.880        60
43.890        60
43.900        40
43.910        27
43.920        27
43.930        47
43.940        47
43.950        87
43.960        20
43.970        40
43.980        47
43.990        40
44.000        53
44.010        53
44.020        47
44.030        53
44.040        33
44.050        47
44.060        53
44.070        47
44.080        40
44.090        53
44.100        27
44.110        47
44.120        80
44.130        47
44.140        60
44.150        60
44.160        60
44.170        33
44.180        80
44.190        40
44.200        67
44.210        20
44.220        27
44.230        60
44.240        40
44.250        47
44.260        60
44.270        53
44.280        20
44.290        33
44.300       107
44.310        53
44.320        40
44.330        20
44.340        60
44.350        47
44.360        33
44.370        40
44.380        47
44.390        47
44.400        40
44.410        47
44.420        67
44.430        73
44.440        60
44.450        60
44.460        47
44.470        60
44.480        87
44.490        27
44.500        60
44.510        73
44.520        87
44.530        53
44.540        60
44.550        73
44.560        60
44.570        87
44.580        73
44.590        13
44.600        67
44.610        67
44.620        87
44.630        67
44.640        47
44.650        47
44.660        40
44.670        73
44.680        73
44.690        40
44.700        87
44.710        60
44.720       113
44.730       107
44.740        93
44.750        67
44.760        47
44.770        47
44.780        80
44.790        73
44.800       113
44.810       120
44.820       107
44.830        67
44.840        93
44.850       100
44.860        73
44.870        93
44.880       107
44.890       100
44.900        73
44.910       107
44.920        87
44.930        87
44.940        93
44.950       107
44.960        67
44.970        80
44.980        60
44.990        93
45.000       133
45.010       100
45.020        87
45.030       113
45.040       120
45.050        80
45.060       113
45.070        80
45.080       127
45.090       127
45.100        80
45.110       100
45.120       100
45.130       120
45.140        80
45.150        93
45.160       127
45.170       160
45.180       107
45.190       120
45.200       140
45.210        87
45.220       133
45.230        87
45.240        93
45.250       153
45.260       107
45.270       100
45.280       147
45.290       107
45.300       120
45.310       153
45.320       160
45.330       120
45.340       147
45.350       133
45.360       160
45.370       153
45.380       153
45.390       173
45.400       167
45.410       207
45.420       207
45.430       220
45.440       133
45.450       167
45.460       193
45.470       240
45.480       180
45.490       240
45.500       180
45.510       227
45.520       200
45.530       200
45.540       300
45.550       253
45.560       247
45.570       240
45.580       293
45.590       273
45.600       333
45.610       367
45.620       247
45.630       320
45.640       293
45.650       307
45.660       340
45.670       260
45.680       380
45.690       407
45.700       460
45.710       473
45.720       540
45.730       420
45.740       453
45.750       553
45.760       553
45.770       686
45.780       693
45.790       640
45.800       646
45.810       746
45.820       680
45.830       673
45.840       746
45.850       746
45.860       906
45.870       933
45.880       866
45.890       900
45.900      1126
45.910      1020
45.920      1066
45.930       986
45.940      1073
45.950      1359
45.960      1453
45.970      1433
45.980      1479
45.990      1446
46.000      1419
46.010      1679
46.020      1746
46.030      1586
46.040      2119
46.050      1753
46.060      2066
46.070      1919
46.080      2206
46.090      2166
46.100      2259
46.110      2586
46.120      2426
46.130      2192
46.140      2506
46.150      2839
46.160      2686
46.170      2919
46.180      2772
46.190      2892
46.200      2972
46.210      2846
46.220      2919
46.230      3185
46.240      3319
46.250      3265
46.260      2919
46.270      3205
46.280      3092
46.290      3219
46.300      3192
46.310      3239
46.320      3392
46.330      2899
46.340      3159
46.350      3072
46.360      3319
46.370      2912
46.380      3032
46.390      2712
46.400      2979
46.410      2692
46.420      2925
46.430      3005
46.440      2965
46.450      2619
46.460      2672
46.470      2586
46.480      2646
46.490      2299
46.500      2372
46.510      2053
46.520      2486
46.530      2179
46.540      2026
46.550      2112
46.560      1966
46.570      1779
46.580      1999
46.590      1873
46.600      1659
46.610      1859
46.620      1613
46.630      1513
46.640      1459
46.650      1353
46.660      1619
46.670      1366
46.680      1333
46.690      1386
46.700       906
46.710      1166
46.720      1146
46.730      1173
46.740       860
46.750       953
46.760       966
46.770      1013
46.780       633
46.790       806
46.800       820
46.810       886
46.820       766
46.830       720
46.840       753
46.850       686
46.860       540
46.870       540
46.880       593
46.890       573
46.900       660
46.910       540
46.920       500
46.930       533
46.940       373
46.950       613
46.960       480
46.970       466
46.980       473
46.990       480
47.000       460
47.010       353
47.020       340
47.030       353
47.040       287
47.050       360
47.060       400
47.070       300
47.080       426
47.090       493
47.100       367
47.110       333
47.120       433
47.130       367
47.140       407
47.150       493
47.160       526
47.170       566
47.180       700
47.190       893
47.200      1259
47.210      1386
47.220      1313
47.230      1406
47.240      1299
47.250      1273
47.260       913
47.270       740
47.280       533
47.290       413
47.300       367
47.310       353
47.320       320
47.330       200
47.340       387
47.350       267
47.360       240
47.370       260
47.380       193
47.390       153
47.400       160
47.410       167
47.420       213
47.430       107
47.440       167
47.450       173
47.460       167
47.470       193
47.480       180
47.490       200
47.500       167
47.510       127
47.520       120
47.530       173
47.540       153
47.550       113
47.560       127
47.570       147
47.580       113
47.590       160
47.600        93
47.610       107
47.620       147
47.630       133
47.640       100
47.650       127
47.660       160
47.670       127
47.680       120
47.690       133
47.700        73
47.710       173
47.720       127
47.730       153
47.740        87
47.750       167
47.760       140
47.770       140
47.780        80
47.790        87
47.800       120
47.810       113
47.820       113
47.830       153
47.840        60
47.850       120
47.860       107
47.870       120
47.880        73
47.890       120
47.900        80
47.910        53
47.920        80
47.930        73
47.940       127
47.950       127
47.960        47
47.970        93
47.980        87
47.990        93
48.000        67
48.010        67
48.020        67
48.030        73
48.040        40
48.050        67
48.060        80
48.070        73
48.080        80
48.090        73
48.100        47
48.110       100
48.120        60
48.130        80
48.140        80
48.150        73
48.160        53
48.170       100
48.180        67
48.190        93
48.200        87
48.210        47
48.220        53
48.230        67
48.240        27
48.250       127
48.260        80
48.270        73
48.280        93
48.290        73
48.300        47
48.310       113
48.320        60
48.330        27
48.340        73
48.350        53
48.360        80
48.370       100
48.380        73
48.390        73
48.400        87
48.410        60
48.420        80
48.430        33
48.440        67
48.450        53
48.460       140
48.470        67
48.480        73
48.490        87
48.500        87
48.510        60
48.520        87
48.530        27
48.540        67
48.550        47
48.560        80
48.570        73
48.580        67
48.590        47
48.600        60
48.610        80
48.620        53
48.630        60
48.640        73
48.650        33
48.660        60
48.670        87
48.680        93
48.690        93
48.700        73
48.710        93
48.720        47
48.730        33
48.740        67
48.750        67
48.760        67
48.770        47
48.780        27
48.790        60
48.800        40
48.810        87
48.820        67
48.830        73
48.840        47
48.850        80
48.860       127
48.870        87
48.880        67
48.890        27
48.900        67
48.910        53
48.920        67
48.930       120
48.940        80
48.950        47
48.960        80
48.970        47
48.980        73
48.990        87
49.000        27
49.010        53
49.020        67
49.030        80
49.040        53
49.050        60
49.060        73
49.070        60
49.080        80
49.090        53
49.100        47
49.110        60
49.120        87
49.130        40
49.140        80
49.150        40
49.160        47
49.170        67
49.180        67
49.190        60
49.200        40
49.210        93
49.220        87
49.230        60
49.240        47
49.250        80
49.260        47
49.270        73
49.280        60
49.290       107
49.300        73
49.310        80
49.320        40
49.330        33
49.340        53
49.350        47
49.360        47
49.370       113
49.380        80
49.390        40
49.400        60
49.410        47
49.420        67
49.430        67
49.440        93
49.450        33
49.460        53
49.470        60
49.480        60
49.490        40
49.500        27
49.510        93
49.520        33
49.530        60
49.540        47
49.550        53
49.560        93
49.570        27
49.580        40
49.590        33
49.600        47
49.610       100
49.620        27
49.630        20
49.640        27
49.650        47
49.660        27
49.670        53
49.680       107
49.690        47
49.700        93
49.710        67
49.720        80
49.730        67
49.740         7
49.750        40
49.760        33
49.770        67
49.780        87
49.790       107
49.800        67
49.810        67
49.820        80
49.830        73
49.840        73
49.850        47
49.860        53
49.870        80
49.880        67
49.890        73
49.900        47
49.910        40
49.920        40
49.930        80
49.940        33
49.950        47
49.960        60
49.970        60
49.980        20
49.990        20
50.000        53
50.010        47
50.020        27
50.030        60
50.040        20
50.050        67
50.060        93
50.070        87
50.080        20
50.090        60
50.100        47
50.110        53
50.120        27
50.130        60
50.140        67
50.150        40
50.160        40
50.170        60
50.180        53
50.190        60
50.200        53
50.210        47
50.220        47
50.230        67
50.240        33
50.250        60
50.260        60
50.270        33
50.280        40
50.290        27
50.300        47
50.310        47
50.320        47
50.330        80
50.340        40
50.350        33
50.360        20
50.370        47
50.380        40
50.390        47
50.400        53
50.410        40
50.420        53
50.430        27
50.440        40
50.450        27
50.460        53
50.470        20
50.480        80
50.490        47
50.500        47
50.510        40
50.520        27
50.530        73
50.540        80
50.550        27
50.560        40
50.570        33
50.580        47
50.590        67
50.600        53
50.610        53
50.620        87
50.630       100
50.640       107
50.650       107
50.660       100
50.670       113
50.680       207
50.690       260
50.700       180
50.710       233
50.720       280
50.730       300
50.740       300
50.750       267
50.760       360
50.770       340
50.780       426
50.790       280
50.800       253
50.810       293
50.820       327
50.830       347
50.840       287
50.850       313
50.860       300
50.870       320
50.880       307
50.890       347
50.900       293
50.910       360
50.920       380
50.930       367
50.940       347
50.950       393
50.960       287
50.970       287
50.980       380
50.990       373
51.000       340
51.010       347
51.020       333
51.030       333
51.040       273
51.050       273
51.060       300
51.070       300
51.080       320
51.090       333
51.100       353
51.110       380
51.120       340
51.130       340
51.140       360
51.150       307
51.160       413
51.170       353
51.180       360
51.190       360
51.200       353
51.210       407
51.220       327
51.230       380
51.240       413
51.250       347
51.260       407
51.270       353
51.280       360
51.290       320
51.300       353
51.310       287
51.320       253
51.330       327
51.340       367
51.350       333
51.360       320
51.370       327
51.380       320
51.390       420
51.400       347
51.410       393
51.420       373
51.430       387
51.440       360
51.450       307
51.460       393
51.470       267
51.480       373
51.490       327
51.500       280
51.510       340
51.520       420
51.530       400
51.540       400
51.550       260
51.560       380
51.570       400
51.580       407
51.590       353
51.600       440
51.610       426
51.620       340
51.630       446
51.640       327
51.650       347
51.660       340
51.670       413
51.680       426
51.690       353
51.700       440
51.710       387
51.720       320
51.730       373
51.740       373
51.750       453
51.760       340
51.770       373
51.780       333
51.790       433
51.800       387
51.810       367
51.820       420
51.830       380
51.840       513
51.850       446
51.860       380
51.870       466
51.880       400
51.890       440
51.900       486
51.910       393
51.920       460
51.930       453
51.940       387
51.950       526
51.960       400
51.970       400
51.980       420
51.990       420
52.000       573
52.010       466
52.020       546
52.030       426
52.040       440
52.050       460
52.060       440
52.070       540
52.080       580
52.090       413
52.100       520
52.110       593
52.120       573
52.130       573
52.140       713
52.150       520
52.160       700
52.170       640
52.180       700
52.190       686
52.200       653
52.210       766
52.220       746
52.230       886
52.240       713
52.250       766
52.260       860
52.270       986
52.280      1073
52.290      1040
52.300      1319
52.310      1679
52.320      1679
52.330      1886
52.340      2066
52.350      2406
52.360      2606
52.370      2792
52.380      3039
52.390      2959
52.400      3059
52.410      3632
52.420      3619
52.430      4372
52.440      4998
52.450      5618
52.460      6424
52.470      6931
52.480      7983
52.490      8763
52.500      9896
52.510     10789
52.520     12402
52.530     14921
52.540     19212
52.550     26529
52.560     42150
52.570     70112
52.580     97288
52.590    123904
52.600    138685
52.610    148154
52.620    150760
52.630    147108
52.640    129595
52.650    102379
52.660     72671
52.670     50307
52.680     35512
52.690     32420
52.700     35399
52.710     45682
52.720     59616
52.730     73057
52.740     82167
52.750     87125
52.760     89204
52.770     83547
52.780     75010
52.790     57930
52.800     40690
52.810     26723
52.820     17453
52.830     12275
52.840      9816
52.850      7497
52.860      7210
52.870      6684
52.880      5578
52.890      5265
52.900      4798
52.910      4265
52.920      3652
52.930      3172
52.940      2632
52.950      2179
52.960      1833
52.970      1466
52.980      1313
52.990      1513
53.000      1200
53.010      1206
53.020      1246
53.030      1160
53.040      1160
53.050       973
53.060      1020
53.070       906
53.080       946
53.090       873
53.100       980
53.110       900
53.120       700
53.130       840
53.140       766
53.150       733
53.160       666
53.170       660
53.180       766
53.190       600
53.200       713
53.210       666
53.220       640
53.230       586
53.240       613
53.250       613
53.260       586
53.270       646
53.280       493
53.290       666
53.300       573
53.310       480
53.320       493
53.330       546
53.340       500
53.350       440
53.360       420
53.370       506
53.380       513
53.390       520
53.400       393
53.410       360
53.420       433
53.430       480
53.440       500
53.450       426
53.460       480
53.470       327
53.480       400
53.490       387
53.500       453
53.510       440
53.520       360
53.530       446
53.540       460
53.550       387
53.560       373
53.570       400
53.580       446
53.590       420
53.600       320
53.610       426
53.620       500
53.630       307
53.640       407
53.650       320
53.660       287
53.670       367
53.680       373
53.690       300
53.700       380
53.710       387
53.720       333
53.730       373
53.740       300
53.750       313
53.760       393
53.770       200
53.780       247
53.790       380
53.800       367
53.810       313
53.820       293
53.830       360
53.840       413
53.850       453
53.860       307
53.870       247
53.880       387
53.890       307
53.900       280
53.910       273
53.920       293
53.930       393
53.940       400
53.950       307
53.960       247
53.970       280
53.980       367
53.990       287
54.000       280
54.010       287
54.020       307
54.030       267
54.040       287
54.050       340
54.060       280
54.070       220
54.080       340
54.090       227
54.100       307
54.110       260
54.120       307
54.130       273
54.140       333
54.150       293
54.160       327
54.170       213
54.180       293
54.190       213
54.200       293
54.210       227
54.220       253
54.230       213
54.240       253
54.250       220
54.260       273
54.270       193
54.280       193
54.290       273
54.300       213
54.310       267
54.320       307
54.330       267
54.340       180
54.350       220
54.360       227
54.370       280
54.380       207
54.390       280
54.400       300
54.410       260
54.420       280
54.430       273
54.440       307
54.450       267
54.460       227
54.470       193
54.480       333
54.490       247
54.500       207
54.510       260
54.520       300
54.530       247
54.540       273
54.550       193
54.560       213
54.570       260
54.580       253
54.590       253
54.600       280
54.610       273
54.620       287
54.630       300
54.640       287
54.650       273
54.660       233
54.670       287
54.680       287
54.690       200
54.700       227
54.710       267
54.720       287
54.730       233
54.740       233
54.750       213
54.760       307
54.770       267
54.780       240
54.790       193
54.800       333
54.810       280
54.820       220
54.830       213
54.840       227
54.850       240
54.860       260
54.870       260
54.880       287
54.890       280
54.900       233
54.910       260
54.920       233
54.930       287
54.940       187
54.950       193
54.960       247
54.970       187
54.980       187
54.990       213
55.000       260
55.010       207
55.020       173
55.030       260
55.040       260
55.050       187
55.060       320
55.070       220
55.080       273
55.090       167
55.100       227
55.110       193
55.120       227
55.130       187
55.140       160
55.150       220
55.160       180
55.170       180
55.180       220
55.190       207
55.200       240
55.210       200
55.220       193
55.230       193
55.240       173
55.250       267
55.260       207
55.270       173
55.280       193
55.290       200
55.300       260
55.310       207
55.320       200
55.330       173
55.340       260
55.350       180
55.360       253
55.370       200
55.380       207
55.390       193
55.400       253
55.410       193
55.420       193
55.430       167
55.440       200
55.450       207
55.460       260
55.470       200
55.480       227
55.490       187
55.500       260
55.510       207
55.520       207
55.530       167
55.540       207
55.550       267
55.560       247
55.570       167
55.580       200
55.590       167
55.600       193
55.610       207
55.620       187
55.630       220
55.640       187
55.650       227
55.660       173
55.670       193
55.680       153
55.690       267
55.700       127
55.710       200
55.720       193
55.730       127
55.740       187
55.750       153
55.760       153
55.770       207
55.780       173
55.790       147
55.800       180
55.810       147
55.820       233
55.830       180
55.840       167
55.850       193
55.860       160
55.870       160
55.880       200
55.890       213
55.900       173
55.910       260
55.920       153
55.930       167
55.940       167
55.950       193
55.960       153
55.970       193
55.980       247
55.990       200
56.000       167
56.010       160
56.020       200
56.030       213
56.040       193
56.050       180
56.060       127
56.070       167
56.080       220
56.090       180
56.100       220
56.110       180
56.120       160
56.130       187
56.140       200
56.150       253
56.160       187
56.170       133
56.180       200
56.190       127
56.200       140
56.210       200
56.220       180
56.230       100
56.240       127
56.250       140
56.260       127
56.270       180
56.280       187
56.290       207
56.300       200
56.310       153
56.320       187
56.330       153
56.340       153
56.350       200
56.360       120
56.370       133
56.380       153
56.390       160
56.400       207
56.410       180
56.420       213
56.430       153
56.440       147
56.450       173
56.460       187
56.470       140
56.480       207
56.490       213
56.500       180
56.510       173
56.520       100
56.530       180
56.540       113
56.550       213
56.560       207
56.570       147
56.580       193
56.590       133
56.600       133
56.610       107
56.620       127
56.630       167
56.640       140
56.650       153
56.660       133
56.670       140
56.680       193
56.690       227
56.700       167
56.710       167
56.720       160
56.730       153
56.740       207
56.750       200
56.760       107
56.770       187
56.780       200
56.790       167
56.800       127
56.810       140
56.820       193
56.830        93
56.840       167
56.850       173
56.860       140
56.870       173
56.880       160
56.890       153
56.900       193
56.910       133
56.920       187
56.930       147
56.940       213
56.950        93
56.960       120
56.970       140
56.980       180
56.990       213
57.000       187
57.010       167
57.020        73
57.030       147
57.040       227
57.050       187
57.060       107
57.070       180
57.080       200
57.090       147
57.100       200
57.110       167
57.120       160
57.130       147
57.140       133
57.150       140
57.160       180
57.170       100
57.180       207
57.190       153
57.200       120
57.210       153
57.220       153
57.230       193
57.240       167
57.250       147
57.260       167
57.270       167
57.280       187
57.290       173
57.300       167
57.310       173
57.320       147
57.330       167
57.340       180
57.350       147
57.360       180
57.370       133
57.380       127
57.390       180
57.400       167
57.410       187
57.420       173
57.430       160
57.440       180
57.450       173
57.460       113
57.470        80
57.480       173
57.490       127
57.500       120
57.510       147
57.520       133
57.530       160
57.540       187
57.550       193
57.560        80
57.570       213
57.580       153
57.590       180
57.600       113
57.610       173
57.620       173
57.630       113
57.640       113
57.650       147
57.660       167
57.670       140
57.680       160
57.690       227
57.700       220
57.710       147
57.720       153
57.730       153
57.740       140
57.750       133
57.760       120
57.770       120
57.780       167
57.790       140
57.800       167
57.810       167
57.820       107
57.830       153
57.840       173
57.850       160
57.860       120
57.870       193
57.880       173
57.890       167
57.900       113
57.910       167
57.920        87
57.930       100
57.940       153
57.950       100
57.960       153
57.970       153
57.980       113
57.990       160
58.000       207
58.010       133
58.020       147
58.030       120
58.040       147
58.050       120
58.060       153
58.070       140
58.080       160
58.090       120
58.100       160
58.110       120
58.120       200
58.130       140
58.140       160
58.150       113
58.160       193
58.170       120
58.180       213
58.190       120
58.200       127
58.210       160
58.220       140
58.230       173
58.240       173
58.250       127
58.260       127
58.270       133
58.280       113
58.290       173
58.300       133
58.310       120
58.320       133
58.330       107
58.340       153
58.350       113
58.360       133
58.370       107
58.380       180
58.390       173
58.400       113
58.410       180
58.420       180
58.430       140
58.440       107
58.450       140
58.460       173
58.470       180
58.480       127
58.490       173
58.500       140
58.510       127
58.520       173
58.530       113
58.540       107
58.550       180
58.560       120
58.570       187
58.580       173
58.590       153
58.600       153
58.610       127
58.620       127
58.630       160
58.640        93
58.650       227
58.660       107
58.670       120
58.680       107
58.690       127
58.700       120
58.710       147
58.720        73
58.730       153
58.740       120
58.750       127
58.760       107
58.770       127
58.780       173
58.790       113
58.800       140
58.810       173
58.820       120
58.830       200
58.840       127
58.850       113
58.860        93
58.870        93
58.880       133
58.890       160
58.900       127
58.910       140
58.920       160
58.930       100
58.940       113
58.950       100
58.960       133
58.970       107
58.980        73
58.990       147
59.000       160
59.010       180
59.020       113
59.030        87
59.040       133
59.050       100
59.060       160
59.070        87
59.080        93
59.090       153
59.100       113
59.110       120
59.120       107
59.130       147
59.140       100
59.150        93
59.160       167
59.170       127
59.180        87
59.190       127
59.200       140
59.210        87
59.220       127
59.230       133
59.240       107
59.250       127
59.260       107
59.270       140
59.280       133
59.290       167
59.300       147
59.310       160
59.320       107
59.330        73
59.340       120
59.350        87
59.360       147
59.370       113
59.380       120
59.390       120
59.400       147
59.410        93
59.420       147
59.430       153
59.440       100
59.450       113
59.460        87
59.470       100
59.480       133
59.490       127
59.500       187
59.510        80
59.520       160
59.530       147
59.540       153
59.550        80
59.560        80
59.570       107
59.580       107
59.590       113
59.600       100
59.610       153
59.620       193
59.630        93
59.640       107
59.650       133
59.660       120
59.670       147
59.680       153
59.690        87
59.700       113
59.710       120
59.720       120
59.730       153
59.740        73
59.750       127
59.760       147
59.770       113
59.780       107
59.790       100
59.800       107
59.810       140
59.820       147
59.830       133
59.840       127
59.850       133
59.860       100
59.870        93
59.880        93
59.890       160
59.900        93
59.910        87
59.920       127
59.930        93
59.940       133
59.950       120
59.960       113
59.970       107
59.980       107
59.990       120
60.000       127
