20.000        13
20.010        60
20.020        33
20.030        87
20.040        47
20.050        27
20.060        20
20.070        40
20.080        53
20.090        33
20.100        27
20.110        33
20.120        33
20.130        47
20.140        40
20.150        53
20.160        13
20.170        53
20.180        33
20.190        40
20.200        53
20.210        33
20.220        73
20.230        53
20.240        47
20.250        20
20.260        53
20.270        40
20.280        27
20.290        67
20.300        40
20.310        27
20.320        60
20.330        60
20.340        27
20.350        13
20.360        20
20.370        40
20.380        87
20.390        27
20.400        20
20.410        40
20.420        33
20.430        20
20.440        67
20.450        53
20.460        27
20.470        53
20.480        60
20.490        47
20.500        27
20.510        40
20.520        73
20.530        47
20.540        33
20.550        53
20.560        33
20.570        60
20.580        40
20.590        47
20.600        40
20.610        13
20.620        40
20.630        27
20.640        20
20.650        20
20.660        20
20.670        40
20.680        33
20.690        33
20.700        47
20.710        60
20.720        27
20.730        47
20.740        20
20.750        20
20.760        20
20.770        47
20.780        20
20.790        20
20.800        67
20.810        27
20.820        60
20.830        33
20.840        40
20.850        67
20.860        60
20.870        27
20.880        40
20.890        20
20.900        40
20.910        33
20.920        20
20.930        33
20.940        27
20.950        60
20.960        33
20.970        60
20.980        47
20.990        20
21.000        47
21.010        27
21.020        33
21.030        13
21.040        53
21.050        47
21.060        67
21.070        53
21.080        40
21.090        67
21.100        47
21.110        53
21.120        40
21.130        33
21.140        53
21.150        60
21.160        40
21.170        33
21.180        47
21.190        40
21.200        33
21.210        60
21.220        33
21.230        27
21.240        33
21.250        53
21.260        87
21.270        13
21.280        60
21.290        67
21.300        33
21.310        40
21.320        47
21.330        40
21.340        47
21.350        47
21.360        33
21.370        40
21.380        20
21.390        47
21.400        40
21.410        60
21.420        73
21.430        53
21.440        47
21.450        60
21.460        47
21.470        40
21.480        40
21.490        13
21.500        33
21.510         7
21.520        27
21.530        40
21.540        40
21.550        33
21.560        33
21.570        20
21.580        27
21.590        40
21.600        13
21.610        53
21.620        53
21.630        33
21.640        27
21.650        40
21.660        67
21.670        47
21.680        53
21.690        53
21.700        47
21.710        33
21.720        33
21.730        47
21.740        33
21.750        53
21.760        47
21.770        33
21.780        40
21.790        20
21.800        27
21.810        40
21.820        33
21.830        60
21.840        27
21.850        33
21.860        40
21.870        27
21.880        20
21.890        27
21.900        47
21.910        33
21.920         7
21.930        33
21.940        33
21.950        40
21.960        40
21.970        47
21.980        27
21.990        80
22.000        27
22.010        27
22.020         7
22.030        33
22.040        60
22.050        27
22.060        47
22.070        40
22.080        20
22.090        20
22.100        47
22.110        13
22.120        67
22.130        27
22.140        27
22.150        20
22.160        27
22.170        33
22.180        60
22.190        67
22.200        40
22.210        27
22.220        60
22.230        33
22.240        47
22.250        27
22.260        33
22.270        47
22.280        33
22.290        20
22.300        53
22.310        27
22.320        53
22.330        20
22.340        53
22.350        40
22.360        27
22.370        67
22.380        53
22.390        80
22.400        53
22.410        33
22.420        53
22.430        73
22.440        40
22.450        47
22.460        47
22.470        40
22.480        60
22.490       120
22.500        60
22.510        87
22.520        93
22.530        87
22.540       107
22.550       140
22.560       100
22.570        67
22.580        73
22.590       107
22.600        93
22.610       167
22.620       120
22.630       167
22.640       160
22.650       180
22.660       147
22.670       127
22.680       227
22.690       113
22.700       120
22.710       133
22.720       200
22.730       160
22.740       187
22.750       160
22.760       193
22.770       160
22.780        87
22.790       127
22.800       140
22.810       187
22.820       127
22.830        80
22.840       107
22.850       140
22.860       147
22.870       133
22.880        80
22.890        93
22.900       100
22.910        73
22.920        67
22.930        60
22.940        60
22.950        80
22.960        60
22.970        73
22.980        47
22.990        53
23.000        67
23.010        33
23.020        67
23.030        33
23.040        47
23.050        47
23.060        20
23.070        20
23.080        53
23.090        47
23.100        33
23.110        20
23.120        13
23.130        27
23.140        33
23.150        40
23.160        60
23.170        20
23.180        60
23.190        53
23.200        73
23.210        27
23.220        40
23.230        40
23.240        20
23.250        47
23.260        47
23.270        80
23.280        40
23.290        27
23.300        40
23.310        67
23.320        60
23.330        60
23.340        20
23.350        47
23.360        20
23.370        40
23.380        27
23.390        40
23.400        33
23.410        40
23.420        27
23.430        20
23.440        40
23.450        27
23.460        53
23.470        27
23.480        80
23.490        53
23.500        53
23.510        27
23.520        27
23.530        27
23.540        47
23.550        47
23.560        60
23.570        40
23.580        40
23.590        27
23.600        33
23.610        13
23.620        53
23.630        40
23.640        27
23.650        60
23.660        13
23.670        80
23.680        60
23.690        20
23.700        33
23.710        60
23.720        27
23.730        47
23.740        13
23.750        47
23.760        40
23.770        53
23.780        20
23.790        53
23.800        33
23.810        13
23.820        33
23.830        40
23.840        40
23.850        20
23.860        20
23.870        40
23.880        40
23.890        20
23.900        20
23.910        27
23.920        33
23.930        13
23.940        20
23.950        60
23.960        47
23.970        60
23.980        27
23.990        73
24.000        20
24.010        47
24.020        20
24.030        33
24.040        13
24.050        40
24.060        13
24.070        13
24.080        13
24.090        20
24.100        67
24.110        13
24.120        33
24.130        20
24.140        27
24.150        40
24.160        47
24.170        27
24.180        20
24.190        33
24.200        40
24.210        47
24.220        20
24.230        20
24.240        20
24.250        87
24.260        33
24.270        33
24.280        20
24.290        40
24.300        47
24.310        13
24.320        40
24.330        47
24.340        47
24.350        47
24.360        47
24.370        33
24.380        20
24.390        40
24.400        20
24.410        27
24.420        47
24.430        33
24.440        47
24.450        13
24.460        20
24.470        27
24.480        20
24.490        27
24.500        47
24.510        33
24.520        27
24.530        27
24.540        33
24.550        53
24.560        27
24.570        27
24.580        27
24.590        13
24.600        40
24.610        40
24.620        20
24.630        40
24.640        13
24.650        27
24.660         7
24.670        40
24.680        20
24.690         7
24.700        47
24.710        60
24.720        20
24.730        60
24.740        20
24.750        33
24.760        27
24.770        33
24.780        27
24.790        27
24.800        13
24.810        33
24.820        47
24.830        67
24.840        20
24.850        40
24.860        40
24.870        53
24.880        60
24.890        40
24.900        47
24.910         7
24.920        53
24.930        20
24.940        33
24.950        47
24.960        47
24.970        27
24.980        27
24.990        33
25.000        47
25.010        40
25.020        27
25.030        13
25.040        47
25.050        40
25.060        13
25.070        13
25.080        33
25.090        40
25.100        13
25.110        33
25.120        53
25.130        20
25.140        33
25.150        27
25.160        20
25.170        27
25.180        33
25.190         0
25.200        20
25.210        27
25.220        13
25.230        27
25.240         7
25.250        27
25.260        60
25.270        13
25.280        20
25.290        47
25.300        20
25.310        20
25.320        33
25.330        33
25.340        53
25.350        13
25.360         7
25.370        47
25.380        40
25.390        20
25.400        20
25.410        47
25.420        20
25.430        47
25.440        53
25.450        20
25.460        33
25.470        47
25.480        27
25.490        27
25.500        53
25.510        40
25.520        33
25.530        60
25.540        40
25.550        27
25.560        73
25.570        80
25.580        67
25.590        33
25.600        80
25.610        53
25.620        40
25.630        60
25.640        53
25.650        40
25.660        33
25.670        60
25.680        27
25.690        40
25.700        40
25.710        33
25.720        73
25.730        40
25.740        40
25.750        27
25.760        40
25.770        13
25.780        47
25.790        40
25.800        20
25.810        27
25.820         7
25.830        40
25.840        33
25.850        33
25.860        13
25.870        20
25.880        40
25.890        33
25.900        13
25.910        13
25.920        33
25.930        13
25.940        47
25.950        40
25.960        33
25.970        27
25.980        47
25.990        33
26.000        40
26.010        33
26.020        27
26.030         7
26.040        47
26.050        27
26.060        33
26.070        47
26.080        53
26.090        33
26.100        60
26.110        27
26.120        33
26.130        27
26.140        33
26.150        20
26.160        47
26.170        20
26.180        47
26.190        40
26.200        47
26.210        33
26.220        13
26.230        40
26.240        13
26.250        27
26.260        33
26.270        20
26.280        13
26.290        27
26.300        47
26.310        20
26.320        73
26.330        40
26.340        13
26.350        33
26.360        60
26.370        33
26.380        33
26.390        20
26.400        67
26.410        40
26.420        40
26.430        27
26.440        47
26.450        27
26.460        27
26.470        27
26.480        47
26.490        60
26.500         0
26.510        47
26.520        20
26.530        33
26.540        20
26.550        33
26.560        27
26.570        27
26.580        13
26.590        47
26.600        20
26.610        40
26.620        13
26.630        27
26.640        40
26.650        47
26.660        13
26.670        20
26.680        20
26.690        27
26.700        20
26.710        27
26.720        20
26.730        33
26.740        13
26.750        20
26.760        27
26.770        20
26.780        20
26.790         7
26.800        27
26.810        20
26.820        47
26.830        67
26.840        40
26.850        33
26.860        27
26.870        27
26.880        33
26.890        20
26.900        33
26.910        40
26.920        27
26.930        20
26.940        47
26.950         7
26.960        27
26.970        13
26.980        40
26.990        20
27.000        20
27.010        20
27.020        27
27.030        13
27.040        40
27.050        20
27.060        20
27.070        20
27.080        40
27.090        33
27.100        33
27.110        20
27.120        40
27.130        13
27.140        20
27.150        13
27.160        33
27.170        33
27.180        27
27.190         7
27.200        20
27.210        33
27.220        33
27.230        40
27.240        40
27.250        47
27.260        20
27.270        20
27.280        47
27.290         0
27.300        13
27.310        13
27.320        27
27.330        20
27.340        27
27.350        13
27.360        47
27.370        27
27.380        13
27.390        13
27.400        33
27.410        20
27.420        13
27.430        40
27.440        33
27.450        13
27.460        20
27.470        40
27.480        20
27.490         0
27.500        33
27.510        13
27.520        33
27.530        40
27.540        40
27.550        33
27.560        33
27.570        33
27.580        13
27.590        20
27.600        27
27.610        27
27.620         7
27.630        13
27.640        40
27.650        33
27.660        33
27.670        20
27.680        60
27.690        13
27.700         7
27.710        27
27.720        33
27.730        20
27.740        20
27.750        20
27.760         7
27.770         7
27.780        27
27.790         7
27.800        20
27.810        40
27.820        40
27.830        27
27.840         7
27.850        53
27.860        13
27.870        47
27.880        40
27.890        40
27.900        33
27.910         7
27.920        27
27.930        40
27.940        47
27.950        20
27.960        60
27.970         0
27.980        27
27.990        13
28.000        13
28.010        27
28.020        20
28.030        27
28.040         7
28.050        13
28.060         7
28.070        20
28.080        27
28.090        20
28.100        13
28.110        40
28.120         7
28.130        13
28.140        13
28.150        40
28.160        13
28.170        47
28.180        33
28.190        27
28.200        47
28.210        27
28.220        67
28.230        33
28.240        53
28.250        20
28.260        47
28.270        20
28.280        27
28.290        13
28.300        53
28.310        27
28.320        33
28.330        53
28.340        13
28.350         7
28.360        27
28.370        53
28.380        27
28.390        33
28.400        40
28.410        40
28.420        33
28.430        13
28.440        20
28.450        27
28.460        40
28.470        27
28.480         7
28.490        47
28.500        20
28.510        13
28.520        20
28.530         7
28.540        40
28.550        20
28.560        40
28.570        33
28.580        27
28.590        47
28.600        20
28.610        53
28.620        27
28.630        13
28.640        13
28.650        20
28.660        13
28.670        53
28.680        40
28.690        27
28.700        40
28.710        20
28.720        13
28.730        53
28.740        20
28.750        33
28.760        27
28.770         7
28.780        20
28.790         0
28.800        20
28.810        27
28.820         7
28.830        27
28.840        20
28.850        33
28.860        20
28.870        27
28.880        27
28.890        27
28.900        33
28.910        40
28.920        40
28.930        33
28.940        47
28.950        13
28.960        20
28.970         0
28.980        47
28.990        40
29.000        40
29.010        40
29.020        27
29.030        20
29.040        27
29.050        33
29.060        20
29.070        13
29.080        13
29.090        13
29.100        40
29.110        27
29.120        27
29.130        27
29.140        27
29.150         7
29.160        20
29.170        27
29.180        20
29.190        27
29.200         0
29.210        33
29.220        27
29.230         0
29.240        20
29.250        20
29.260        40
29.270        33
29.280        27
29.290        13
29.300        27
29.310         7
29.320        20
29.330        40
29.340        27
29.350        13
29.360        20
29.370        33
29.380        13
29.390        20
29.400         7
29.410        53
29.420        20
29.430        27
29.440        40
29.450        33
29.460        13
29.470        20
29.480        40
29.490        27
29.500        40
29.510        33
29.520        40
29.530        20
29.540        33
29.550        27
29.560         7
29.570        27
29.580        13
29.590        40
29.600        33
29.610        20
29.620        40
29.630        27
29.640        60
29.650        27
29.660        27
29.670        13
29.680        27
29.690         7
29.700        20
29.710        53
29.720        20
29.730        33
29.740        27
29.750        40
29.760        27
29.770        33
29.780        13
29.790        53
29.800        27
29.810        20
29.820        13
29.830        33
29.840        13
29.850        20
29.860        33
29.870        40
29.880        20
29.890        27
29.900        40
29.910        13
29.920        33
29.930         7
29.940        47
29.950        20
29.960        13
29.970        33
29.980        13
29.990        13
30.000        47
30.010        33
30.020        40
30.030        20
30.040        13
30.050        33
30.060        33
30.070        13
30.080        20
30.090        20
30.100        40
30.110        20
30.120        40
30.130         7
30.140        20
30.150        20
30.160        13
30.170        27
30.180        40
30.190        13
30.200        27
30.210        13
30.220        27
30.230        13
30.240        33
30.250        33
30.260        13
30.270        13
30.280        20
30.290        27
30.300        27
30.310        20
30.320        20
30.330        13
30.340        13
30.350        13
30.360        20
30.370        20
30.380        20
30.390        20
30.400        33
30.410        27
30.420        20
30.430        47
30.440        27
30.450        13
30.460         0
30.470        27
30.480        20
30.490        13
30.500        13
30.510        27
30.520         0
30.530        20
30.540        33
30.550         7
30.560        13
30.570        27
30.580        13
30.590         0
30.600        20
30.610        27
30.620        27
30.630        40
30.640        13
30.650        33
30.660        20
30.670        40
30.680        60
30.690        40
30.700        13
30.710        33
30.720        27
30.730        20
30.740        20
30.750        27
30.760         7
30.770        27
30.780        40
30.790        33
30.800        33
30.810        40
30.820        27
30.830        40
30.840         7
30.850        20
30.860         7
30.870        53
30.880        33
30.890         0
30.900        27
30.910        13
30.920        27
30.930        33
30.940         7
30.950        27
30.960        13
30.970         7
30.980        27
30.990        33
31.000        13
31.010        20
31.020        20
31.030        13
31.040        40
31.050         7
31.060        20
31.070        13
31.080        33
31.090        13
31.100        27
31.110        20
31.120        20
31.130        40
31.140        27
31.150        20
31.160         7
31.170        13
31.180         7
31.190        13
31.200        33
31.210         7
31.220        13
31.230        20
31.240        33
31.250        13
31.260        33
31.270         0
31.280        20
31.290        20
31.300        53
31.310        40
31.320        27
31.330         7
31.340        13
31.350        27
31.360        13
31.370        20
31.380        27
31.390        20
31.400        13
31.410        20
31.420         7
31.430        20
31.440        40
31.450         7
31.460         0
31.470        20
31.480        33
31.490        33
31.500        47
31.510        27
31.520        27
31.530         0
31.540         7
31.550        33
31.560        20
31.570        20
31.580        33
31.590         7
31.600        20
31.610        47
31.620        13
31.630        20
31.640        33
31.650        27
31.660        20
31.670        20
31.680         7
31.690        20
31.700        27
31.710        13
31.720        20
31.730        20
31.740         7
31.750        27
31.760        27
31.770        27
31.780        13
31.790        27
31.800        13
31.810        20
31.820         7
31.830        20
31.840        13
31.850        13
31.860        20
31.870        20
31.880        27
31.890        20
31.900        33
31.910        20
31.920        33
31.930        40
31.940        33
31.950        40
31.960        53
31.970        33
31.980        47
31.990        47
32.000        27
32.010        13
32.020        53
32.030        33
32.040        33
32.050        33
32.060        27
32.070        33
32.080        40
32.090        40
32.100        20
32.110        40
32.120        47
32.130        13
32.140        20
32.150        33
32.160        33
32.170        60
32.180        67
32.190        40
32.200        60
32.210        47
32.220       120
32.230        73
32.240        60
32.250        47
32.260        73
32.270        67
32.280        60
32.290        87
32.300        73
32.310       113
32.320        53
32.330       120
32.340       113
32.350        87
32.360       107
32.370       113
32.380       153
32.390        67
32.400       153
32.410       127
32.420       100
32.430       140
32.440       113
32.450        93
32.460       160
32.470       120
32.480       113
32.490       100
32.500        93
32.510        93
32.520        60
32.530        60
32.540        87
32.550        93
32.560       107
32.570        93
32.580        60
32.590        80
32.600       113
32.610        53
32.620        67
32.630        60
32.640        87
32.650        67
32.660        40
32.670        60
32.680        27
32.690        33
32.700        40
32.710        20
32.720        40
32.730        13
32.740        27
32.750        53
32.760        27
32.770        40
32.780        40
32.790        20
32.800        20
32.810        13
32.820        40
32.830        20
32.840        27
32.850        20
32.860        20
32.870         7
32.880        20
32.890        33
32.900        20
32.910        40
32.920        13
32.930        27
32.940        53
32.950         7
32.960        20
32.970        13
32.980        33
32.990        20
33.000        20
33.010        13
33.020        20
33.030         7
33.040         7
33.050        13
33.060        33
33.070        13
33.080        20
33.090        20
33.100        33
33.110        47
33.120        40
33.130        13
33.140        27
33.150        27
33.160        13
33.170        33
33.180        27
33.190         7
33.200         0
33.210        53
33.220        47
33.230        20
33.240         7
33.250        33
33.260        40
33.270        13
33.280        40
33.290        20
33.300        13
33.310        20
33.320        33
33.330        20
33.340        20
33.350        27
33.360        33
33.370        33
33.380        20
33.390        20
33.400        20
33.410        13
33.420        20
33.430        20
33.440         7
33.450         7
33.460        13
33.470        20
33.480        33
33.490        33
33.500        60
33.510        20
33.520        27
33.530        27
33.540        20
33.550        27
33.560        20
33.570        13
33.580        13
33.590        53
33.600        13
33.610        20
33.620         7
33.630        13
33.640        13
33.650        20
33.660        27
33.670        27
33.680        40
33.690         7
33.700        13
33.710         0
33.720        20
33.730        20
33.740        33
33.750        20
33.760        13
33.770         7
33.780        40
33.790        13
33.800        13
33.810        27
33.820        27
33.830         0
33.840        20
33.850        27
33.860         7
33.870        20
33.880        27
33.890        20
33.900        13
33.910        27
33.920        53
33.930        13
33.940        40
33.950        53
33.960        13
33.970        13
33.980         0
33.990        27
34.000        20
34.010        20
34.020         7
34.030        20
34.040        13
34.050        40
34.060        40
34.070        13
34.080         7
34.090        13
34.100        13
34.110        20
34.120         7
34.130        33
34.140        20
34.150        27
34.160        33
34.170        20
34.180        27
34.190        20
34.200        13
34.210        20
34.220        20
34.230         0
34.240        40
34.250        13
34.260         7
34.270        27
34.280         7
34.290        33
34.300        13
34.310        13
34.320        27
34.330        20
34.340         0
34.350        40
34.360        40
34.370         0
34.380        20
34.390        20
34.400        13
34.410        27
34.420        13
34.430        13
34.440        33
34.450         0
34.460        27
34.470        27
34.480        33
34.490        33
34.500        27
34.510        27
34.520        13
34.530        27
34.540        33
34.550        20
34.560        20
34.570        13
34.580        53
34.590        20
34.600        47
34.610        27
34.620        20
34.630         0
34.640        13
34.650        13
34.660        20
34.670        20
34.680        40
34.690        13
34.700        13
34.710        13
34.720        33
34.730        33
34.740         0
34.750        20
34.760        47
34.770        20
34.780        20
34.790        13
34.800        20
34.810         7
34.820        67
34.830        33
34.840        33
34.850        20
34.860        27
34.870        20
34.880        27
34.890        27
34.900        13
34.910         7
34.920        33
34.930        53
34.940        27
34.950         7
34.960        47
34.970         7
34.980        33
34.990        47
35.000        40
35.010        40
35.020        67
35.030        47
35.040        33
35.050        33
35.060        27
35.070        87
35.080        40
35.090        73
35.100       200
35.110       180
35.120       287
35.130       287
35.140       273
35.150       367
35.160       200
35.170       180
35.180       207
35.190       147
35.200       267
35.210       160
35.220       267
35.230       247
35.240       167
35.250       127
35.260        93
35.270        27
35.280        67
35.290        67
35.300        93
35.310        87
35.320        60
35.330        40
35.340        27
35.350        27
35.360        33
35.370        13
35.380        33
35.390        20
35.400        27
35.410        20
35.420        27
35.430        27
35.440        20
35.450        20
35.460         7
35.470        27
35.480        20
35.490        33
35.500        13
35.510         7
35.520         0
35.530        13
35.540         7
35.550        33
35.560        33
35.570        20
35.580        20
35.590         7
35.600         0
35.610        27
35.620        20
35.630        20
35.640        13
35.650         0
35.660        13
35.670        13
35.680         7
35.690        60
35.700        13
35.710        20
35.720        20
35.730        20
35.740        13
35.750         7
35.760        20
35.770        20
35.780        27
35.790        20
35.800        47
35.810        40
35.820         0
35.830        13
35.840         7
35.850        33
35.860        27
35.870        27
35.880         7
35.890        33
35.900        20
35.910        33
35.920        27
35.930        27
35.940         7
35.950        13
35.960        33
35.970        13
35.980        13
35.990        20
36.000        13
36.010        27
36.020        33
36.030        20
36.040        13
36.050        33
36.060        33
36.070        47
36.080        13
36.090        13
36.100        27
36.110        27
36.120        27
36.130        20
36.140        13
36.150        40
36.160        20
36.170        33
36.180         7
36.190        27
36.200        27
36.210         7
36.220         7
36.230         7
36.240         7
36.250        20
36.260        13
36.270        20
36.280         0
36.290        20
36.300         7
36.310        13
36.320        13
36.330        13
36.340        13
36.350        27
36.360        13
36.370        53
36.380         7
36.390        27
36.400        33
36.410        27
36.420        40
36.430        27
36.440         0
36.450        27
36.460        27
36.470         0
36.480        27
36.490        13
36.500        20
36.510        20
36.520        20
36.530        27
36.540        20
36.550        27
36.560        20
36.570        27
36.580        20
36.590        13
36.600        13
36.610        40
36.620        33
36.630        13
36.640        27
36.650        20
36.660        13
36.670        13
36.680         7
36.690         0
36.700        13
36.710        27
36.720        13
36.730        13
36.740        27
36.750        13
36.760        33
36.770         7
36.780        20
36.790         0
36.800        20
36.810        33
36.820        47
36.830        27
36.840        20
36.850        20
36.860        20
36.870         7
36.880        40
36.890        53
36.900        33
36.910        47
36.920        40
36.930        33
36.940        20
36.950        47
36.960        20
36.970        20
36.980        20
36.990         7
37.000        33
37.010        13
37.020        13
37.030        13
37.040        20
37.050        20
37.060        27
37.070        27
37.080         7
37.090        27
37.100        13
37.110        40
37.120        27
37.130         7
37.140        27
37.150        27
37.160         0
37.170        27
37.180        20
37.190        20
37.200        13
37.210         0
37.220        27
37.230        33
37.240         0
37.250        40
37.260        20
37.270        40
37.280        27
37.290         7
37.300        20
37.310        20
37.320        13
37.330        27
37.340        20
37.350        40
37.360        13
37.370         0
37.380        53
37.390         7
37.400        13
37.410        20
37.420        13
37.430        20
37.440        20
37.450        40
37.460        33
37.470        53
37.480        13
37.490        33
37.500        13
37.510        27
37.520        20
37.530         7
37.540         7
37.550        27
37.560         7
37.570        13
37.580        13
37.590         7
37.600         7
37.610        27
37.620        33
37.630         7
37.640        13
37.650        20
37.660        27
37.670        13
37.680        40
37.690        13
37.700        20
37.710        20
37.720        40
37.730        27
37.740        47
37.750        27
37.760        20
37.770        33
37.780        27
37.790         7
37.800        13
37.810        27
37.820        20
37.830        40
37.840        40
37.850         0
37.860        13
37.870        33
37.880        20
37.890        13
37.900        40
37.910         7
37.920        13
37.930        27
37.940        13
37.950        27
37.960        20
37.970         7
37.980        13
37.990        13
38.000        13
38.010        27
38.020        27
38.030        33
38.040        47
38.050         0
38.060        20
38.070        13
38.080         7
38.090        33
38.100        33
38.110        20
38.120        27
38.130        27
38.140        20
38.150         0
38.160        20
38.170        20
38.180        20
38.190        27
38.200        13
38.210        20
38.220        33
38.230        13
38.240        13
38.250        33
38.260        20
38.270         7
38.280        13
38.290        27
38.300        13
38.310        13
38.320        27
38.330        13
38.340        20
38.350        47
38.360         7
38.370        33
38.380        27
38.390         0
38.400        13
38.410        13
38.420        13
38.430        13
38.440        20
38.450        33
38.460         7
38.470         0
38.480        13
38.490        13
38.500         7
38.510        27
38.520        13
38.530         7
38.540        27
38.550        13
38.560        33
38.570        13
38.580         0
38.590         7
38.600        13
38.610         7
38.620        33
38.630         7
38.640        13
38.650        20
38.660        20
38.670        20
38.680         7
38.690        20
38.700         7
38.710        33
38.720        20
38.730         7
38.740        20
38.750        27
38.760         7
38.770        20
38.780        13
38.790        53
38.800        13
38.810        33
38.820        20
38.830        13
38.840        33
38.850        20
38.860        27
38.870        13
38.880        27
38.890        20
38.900        27
38.910         7
38.920        13
38.930        47
38.940        27
38.950         7
38.960        27
38.970        20
38.980        20
38.990        13
39.000         0
39.010        13
39.020        20
39.030        33
39.040        60
39.050        40
39.060        40
39.070        27
39.080        33
39.090        20
39.100         7
39.110        27
39.120        13
39.130        33
39.140        27
39.150         7
39.160        40
39.170        33
39.180        13
39.190        20
39.200         0
39.210        20
39.220        20
39.230        47
39.240        27
39.250        27
39.260        33
39.270        27
39.280        13
39.290         0
39.300        13
39.310        27
39.320         7
39.330        27
39.340        20
39.350        33
39.360        27
39.370        13
39.380        13
39.390        40
39.400         7
39.410         7
39.420        27
39.430        13
39.440        33
39.450         7
39.460        33
39.470        20
39.480        20
39.490        20
39.500        13
39.510        20
39.520        13
39.530        33
39.540        13
39.550        33
39.560        20
39.570        33
39.580        40
39.590         7
39.600        40
39.610        20
39.620        27
39.630        20
39.640        33
39.650        40
39.660        27
39.670        40
39.680        33
39.690         7
39.700        27
39.710        47
39.720        20
39.730        47
39.740        40
39.750        27
39.760        33
39.770        40
39.780        47
39.790        73
39.800        47
39.810        40
39.820        73
39.830        67
39.840        67
39.850        80
39.860        73
39.870        73
39.880        87
39.890        47
39.900       100
39.910       133
39.920        87
39.930       133
39.940        80
39.950       113
39.960        80
39.970        80
39.980       120
39.990       113
40.000       153
40.010        93
40.020       147
40.030       100
40.040       127
40.050       127
40.060       133
40.070       120
40.080       100
40.090       100
40.100        67
40.110        80
40.120        73
40.130        73
40.140       127
40.150        87
40.160        20
40.170        87
40.180        47
40.190        40
40.200        53
40.210        60
40.220        53
40.230        33
40.240        53
40.250        47
40.260        60
40.270        27
40.280        20
40.290         7
40.300        13
40.310        33
40.320        20
40.330        33
40.340        67
40.350        53
40.360         0
40.370        13
40.380        20
40.390        40
40.400        27
40.410        53
40.420        13
40.430         7
40.440        27
40.450        20
40.460        20
40.470        33
40.480         7
40.490        13
40.500        20
40.510        20
40.520        13
40.530         7
40.540        20
40.550        33
40.560        33
40.570        13
40.580        20
40.590        40
40.600         0
40.610        13
40.620        13
40.630        13
40.640        53
40.650        13
40.660        20
40.670         0
40.680        13
40.690         7
40.700        13
40.710        40
40.720        20
40.730        33
40.740         0
40.750        53
40.760        27
40.770        20
40.780        20
40.790        27
40.800        13
40.810        27
40.820        27
40.830         0
40.840        20
40.850         7
40.860         7
40.870        27
40.880        20
40.890        13
40.900        27
40.910        13
40.920        33
40.930        13
40.940        27
40.950        33
40.960        40
40.970        20
40.980        33
40.990        13
41.000        40
41.010        27
41.020        27
41.030        20
41.040        13
41.050         7
41.060         7
41.070        20
41.080        13
41.090        13
41.100        33
41.110         7
41.120        13
41.130        33
41.140        20
41.150        20
41.160         7
41.170        13
41.180        20
41.190        20
41.200        27
41.210        20
41.220        40
41.230         7
41.240        20
41.250        13
41.260        40
41.270        13
41.280        20
41.290        13
41.300        27
41.310        20
41.320        27
41.330        20
41.340        33
41.350        20
41.360        33
41.370        20
41.380        33
41.390        13
41.400        13
41.410        47
41.420        13
41.430        33
41.440        27
41.450        20
41.460        27
41.470         7
41.480        27
41.490        33
41.500        20
41.510        33
41.520        67
41.530        27
41.540        27
41.550        33
41.560        40
41.570        67
41.580        20
41.590        53
41.600        67
41.610        73
41.620        73
41.630        47
41.640        53
41.650       100
41.660        93
41.670        80
41.680        67
41.690        93
41.700       147
41.710       100
41.720       147
41.730       140
41.740        67
41.750        73
41.760        87
41.770        53
41.780       100
41.790        67
41.800        87
41.810        60
41.820        60
41.830        73
41.840        67
41.850        53
41.860        33
41.870        40
41.880        13
41.890        40
41.900        33
41.910        40
41.920        27
41.930        40
41.940        47
41.950        13
41.960        27
41.970        27
41.980        27
41.990         7
42.000         0
42.010        33
42.020        27
42.030        40
42.040        33
42.050        13
42.060         7
42.070        27
42.080        47
42.090         0
42.100        27
42.110        13
42.120        33
42.130         7
42.140        33
42.150         7
42.160        20
42.170        20
42.180        20
42.190        27
42.200         7
42.210         7
42.220        13
42.230         7
42.240        33
42.250        20
42.260        20
42.270        53
42.280        13
42.290        33
42.300        47
42.310        47
42.320        27
42.330        27
42.340        27
42.350        13
42.360         7
42.370        27
42.380        40
42.390        20
42.400        20
42.410        20
42.420        13
42.430         7
42.440        33
42.450        33
42.460         0
42.470        27
42.480        20
42.490        13
42.500        20
42.510        40
42.520        27
42.530        20
42.540        27
42.550        27
42.560        27
42.570        33
42.580        13
42.590         0
42.600        13
42.610        13
42.620        13
42.630         7
42.640        20
42.650        13
42.660        20
42.670        27
42.680        27
42.690        20
42.700        27
42.710        40
42.720        13
42.730        27
42.740         7
42.750        40
42.760        13
42.770        13
42.780        20
42.790        13
42.800        13
42.810        40
42.820        40
42.830        33
42.840        33
42.850         7
42.860        13
42.870        20
42.880        40
42.890        27
42.900        40
42.910         7
42.920        47
42.930         7
42.940        20
42.950        20
42.960        20
42.970        53
42.980        33
42.990        20
43.000        13
43.010        27
43.020        13
43.030        27
43.040        20
43.050        13
43.060         7
43.070        13
43.080        33
43.090         7
43.100         0
43.110        20
43.120        40
43.130        20
43.140        13
43.150        40
43.160        20
43.170        33
43.180        33
43.190        27
43.200        13
43.210        53
43.220        33
43.230        40
43.240        53
43.250        27
43.260        27
43.270        60
43.280        27
43.290        40
43.300        27
43.310        20
43.320        33
43.330        73
43.340        73
43.350       107
43.360        93
43.370       127
43.380       107
43.390       187
43.400       127
43.410       253
43.420       107
43.430        87
43.440        67
43.450        67
43.460        60
43.470        80
43.480       113
43.490        53
43.500        53
43.510        80
43.520        87
43.530        80
43.540        80
43.550        47
43.560        27
43.570        33
43.580        47
43.590        20
43.600        33
43.610        27
43.620        33
43.630        47
43.640        40
43.650        20
43.660        20
43.670        20
43.680        13
43.690        33
43.700        47
43.710        33
43.720        33
43.730        27
43.740        33
43.750        13
43.760        33
43.770        20
43.780        27
43.790        33
43.800        27
43.810        27
43.820        20
43.830         7
43.840        13
43.850        40
43.860        20
43.870        33
43.880        20
43.890        13
43.900        40
43.910        13
43.920         7
43.930         7
43.940        27
43.950        13
43.960        33
43.970         7
43.980        13
43.990         7
44.000        47
44.010        40
44.020        13
44.030        13
44.040        13
44.050        40
44.060        27
44.070         7
44.080        20
44.090        27
44.100         7
44.110        13
44.120        33
44.130         7
44.140        33
44.150        20
44.160        20
44.170        13
44.180        20
44.190        40
44.200        20
44.210        20
44.220        20
44.230        20
44.240        13
44.250        33
44.260        40
44.270         0
44.280        13
44.290        27
44.300        47
44.310        40
44.320        20
44.330        20
44.340        27
44.350        13
44.360        27
44.370        13
44.380        20
44.390        33
44.400        27
44.410        27
44.420        13
44.430        40
44.440        27
44.450        40
44.460        27
44.470         7
44.480        27
44.490        20
44.500        27
44.510        47
44.520        27
44.530        20
44.540         7
44.550        13
44.560        40
44.570         7
44.580        33
44.590         7
44.600        60
44.610        47
44.620        20
44.630        33
44.640        53
44.650        33
44.660        27
44.670        13
44.680        33
44.690        20
44.700         7
44.710        20
44.720        60
44.730        33
44.740        47
44.750        13
44.760        53
44.770         7
44.780        20
44.790        27
44.800        40
44.810        40
44.820        20
44.830        13
44.840         7
44.850        13
44.860        47
44.870        53
44.880        33
44.890        40
44.900        47
44.910        47
44.920        40
44.930        33
44.940        40
44.950        47
44.960        20
44.970        40
44.980        47
44.990        33
45.000        20
45.010        13
45.020        47
45.030       100
45.040        40
45.050        60
45.060        73
45.070        67
45.080        53
45.090        27
45.100        80
45.110        93
45.120        33
45.130        60
45.140        40
45.150        47
45.160        40
45.170        53
45.180        33
45.190        27
45.200        47
45.210        27
45.220        20
45.230        67
45.240        67
45.250        67
45.260        93
45.270        40
45.280        53
45.290        67
45.300        40
45.310        53
45.320        67
45.330        47
45.340        60
45.350        40
45.360        53
45.370        53
45.380        27
45.390        53
45.400        67
45.410        47
45.420        47
45.430        40
45.440        93
45.450        73
45.460       100
45.470        80
45.480        93
45.490        73
45.500        67
45.510        73
45.520        87
45.530        40
45.540        60
45.550       120
45.560        80
45.570        87
45.580        87
45.590        53
45.600       133
45.610       140
45.620        60
45.630       100
45.640       127
45.650        93
45.660       107
45.670       120
45.680        80
45.690       187
45.700       107
45.710       140
45.720       140
45.730       127
45.740       133
45.750       113
45.760       147
45.770       160
45.780       147
45.790       140
45.800       207
45.810       213
45.820       213
45.830       213
45.840       267
45.850       253
45.860       200
45.870       227
45.880       147
45.890       240
45.900       273
45.910       313
45.920       340
45.930       387
45.940       426
45.950       387
45.960       313
45.970       420
45.980       400
45.990       327
46.000       440
46.010       533
46.020       473
46.030       446
46.040       513
46.050       526
46.060       626
46.070       586
46.080       613
46.090       766
46.100       546
46.110       800
46.120       660
46.130       653
46.140       846
46.150       720
46.160       906
46.170       880
46.180      1113
46.190       860
46.200       906
46.210      1006
46.220      1040
46.230      1046
46.240      1160
46.250      1113
46.260      1133
46.270      1106
46.280      1346
46.290      1233
46.300      1433
46.310      1253
46.320      1153
46.330      1459
46.340      1279
46.350      1339
46.360      1359
46.370      1220
46.380      1259
46.390      1373
46.400      1233
46.410      1533
46.420      1160
46.430      1399
46.440      1206
46.450      1286
46.460      1279
46.470      1173
46.480      1266
46.490      1293
46.500      1140
46.510      1213
46.520      1066
46.530      1093
46.540      1126
46.550       960
46.560       960
46.570      1000
46.580       980
46.590       833
46.600       886
46.610       760
46.620       866
46.630       753
46.640       726
46.650       786
46.660       700
46.670       646
46.680       373
46.690       546
46.700       426
46.710       513
46.720       553
46.730       440
46.740       506
46.750       393
46.760       486
46.770       333
46.780       393
46.790       293
46.800       347
46.810       313
46.820       320
46.830       313
46.840       227
46.850       273
46.860       280
46.870       247
46.880       260
46.890       180
46.900       260
46.910       207
46.920       233
46.930       200
46.940       200
46.950       167
46.960       173
46.970       187
46.980       107
46.990       107
47.000       127
47.010       113
47.020       147
47.030       100
47.040       113
47.050       113
47.060        93
47.070        40
47.080       127
47.090        80
47.100        73
47.110       127
47.120       127
47.130        87
47.140       100
47.150       100
47.160        53
47.170        67
47.180       107
47.190        73
47.200       153
47.210        80
47.220        80
47.230       107
47.240        80
47.250        73
47.260       107
47.270        47
47.280        73
47.290        73
47.300        67
47.310        93
47.320        80
47.330        60
47.340        87
47.350        47
47.360        67
47.370        60
47.380        60
47.390        73
47.400        80
47.410        60
47.420        67
47.430        67
47.440        73
47.450        20
47.460        33
47.470        80
47.480        60
47.490        53
47.500        67
47.510        53
47.520        33
47.530        67
47.540        73
47.550        67
47.560        47
47.570        33
47.580        40
47.590        47
47.600        33
47.610        40
47.620        53
47.630        67
47.640        27
47.650        47
47.660        47
47.670        53
47.680        60
47.690        47
47.700        60
47.710        60
47.720        53
47.730        47
47.740        53
47.750        47
47.760        27
47.770        53
47.780        33
47.790        27
47.800        53
47.810        60
47.820        47
47.830        87
47.840        20
47.850        13
47.860        20
47.870        27
47.880        20
47.890        33
47.900        73
47.910        33
47.920        53
47.930        47
47.940        40
47.950         7
47.960        27
47.970        20
47.980        27
47.990        27
48.000        20
48.010        20
48.020        27
48.030        33
48.040        53
48.050        67
48.060        13
48.070        47
48.080        33
48.090        27
48.100        20
48.110        20
48.120         7
48.130        13
48.140        20
48.150        13
48.160        20
48.170        47
48.180        53
48.190        13
48.200        20
48.210        13
48.220        40
48.230        40
48.240        27
48.250        47
48.260        53
48.270        27
48.280        27
48.290        33
48.300        13
48.310        20
48.320        33
48.330        47
48.340        27
48.350        20
48.360         7
48.370         7
48.380        40
48.390        47
48.400        33
48.410        27
48.420        33
48.430        27
48.440        33
48.450        27
48.460        20
48.470        20
48.480        60
48.490        13
48.500        33
48.510        47
48.520        20
48.530        40
48.540        33
48.550        40
48.560        13
48.570        40
48.580        53
48.590        40
48.600        33
48.610        40
48.620        13
48.630        27
48.640        27
48.650        20
48.660        20
48.670        47
48.680        20
48.690        27
48.700        20
48.710        40
48.720        20
48.730        13
48.740         0
48.750        20
48.760        40
48.770        33
48.780        13
48.790        33
48.800        27
48.810        40
48.820        47
48.830        47
48.840        27
48.850        33
48.860        20
48.870        20
48.880        47
48.890        20
48.900        20
48.910        27
48.920        33
48.930        20
48.940        53
48.950        13
48.960        47
48.970        20
48.980        47
48.990        53
49.000        47
49.010        27
49.020        13
49.030        13
49.040         7
49.050        47
49.060         7
49.070        47
49.080         0
49.090        40
49.100         0
49.110        40
49.120        13
49.130        13
49.140         7
49.150        13
49.160        27
49.170         7
49.180        13
49.190        20
49.200        20
49.210        20
49.220        40
49.230        13
49.240         7
49.250        13
49.260        20
49.270        33
49.280        20
49.290        13
49.300        20
49.310        20
49.320        20
49.330        13
49.340        27
49.350        20
49.360        13
49.370        13
49.380         0
49.390         7
49.400        20
49.410        13
49.420        53
49.430        27
49.440        33
49.450        40
49.460        27
49.470        27
49.480        40
49.490        40
49.500        33
49.510        20
49.520        40
49.530        20
49.540        33
49.550        40
49.560        27
49.570        40
49.580        20
49.590        33
49.600        20
49.610        40
49.620        13
49.630        13
49.640        13
49.650        27
49.660        33
49.670        13
49.680        27
49.690        27
49.700        20
49.710        13
49.720        13
49.730        20
49.740        13
49.750        20
49.760        27
49.770        13
49.780        53
49.790        27
49.800        20
49.810        13
49.820        20
49.830        13
49.840         7
49.850        27
49.860        33
49.870        33
49.880         7
49.890        33
49.900        13
49.910        13
49.920        20
49.930        20
49.940        33
49.950        33
49.960        13
49.970        13
49.980        27
49.990        13
50.000        27
50.010        13
50.020        33
50.030        20
50.040        33
50.050         7
50.060        13
50.070        13
50.080        47
50.090        33
50.100        20
50.110        13
50.120        20
50.130        27
50.140        33
50.150        53
50.160        40
50.170        40
50.180         0
50.190        20
50.200        47
50.210        27
50.220        20
50.230        13
50.240        13
50.250        27
50.260         7
50.270        33
50.280        33
50.290        20
50.300         0
50.310        47
50.320        20
50.330        13
50.340        33
50.350        27
50.360        33
50.370        47
50.380         7
50.390        13
50.400        53
50.410        40
50.420        33
50.430        20
50.440        40
50.450        13
50.460        20
50.470        13
50.480        47
50.490        33
50.500        20
50.510         7
50.520        27
50.530        27
50.540        40
50.550        27
50.560        20
50.570        20
50.580        20
50.590        13
50.600         7
50.610         7
50.620         7
50.630         0
50.640        20
50.650        27
50.660        20
50.670        33
50.680        40
50.690        13
50.700        47
50.710        20
50.720        27
50.730        20
50.740        27
50.750        20
50.760        53
50.770        20
50.780        13
50.790        33
50.800        33
50.810         7
50.820         7
50.830        13
50.840        13
50.850        47
50.860        13
50.870        33
50.880        33
50.890         0
50.900        40
50.910        27
50.920        27
50.930        20
50.940         7
50.950         7
50.960         7
50.970         7
50.980         7
50.990        20
51.000        27
51.010        13
51.020        27
51.030        20
51.040        27
51.050        13
51.060        13
51.070        20
51.080        40
51.090        20
51.100         7
51.110        27
51.120        33
51.130        40
51.140        13
51.150        20
51.160        67
51.170        13
51.180        13
51.190        27
51.200        33
51.210        13
51.220        20
51.230        47
51.240         7
51.250        13
51.260        13
51.270        13
51.280        20
51.290        27
51.300        33
51.310         7
51.320        27
51.330        33
51.340        20
51.350        40
51.360        20
51.370        27
51.380        20
51.390        27
51.400        13
51.410         0
51.420        20
51.430        20
51.440        13
51.450        20
51.460        33
51.470        33
51.480        27
51.490        13
51.500         7
51.510        13
51.520        33
51.530         0
51.540        20
51.550        13
51.560        20
51.570        27
51.580        27
51.590         0
51.600        20
51.610        13
51.620         7
51.630        33
51.640        33
51.650        13
51.660         7
51.670        33
51.680        13
51.690        20
51.700        20
51.710         0
51.720         7
51.730        20
51.740         7
51.750        13
51.760        27
51.770        20
51.780        13
51.790         7
51.800        27
51.810        20
51.820        20
51.830        13
51.840        13
51.850        27
51.860        13
51.870         7
51.880        20
51.890        33
51.900         7
51.910        40
51.920        27
51.930        27
51.940        27
51.950        27
51.960        27
51.970        33
51.980        27
51.990         7
52.000        27
52.010        33
52.020        13
52.030        27
52.040         7
52.050        20
52.060        27
52.070         7
52.080        33
52.090        27
52.100        13
52.110         7
52.120         7
52.130        40
52.140         7
52.150         7
52.160        27
52.170        13
52.180        13
52.190         7
52.200         0
52.210        20
52.220        13
52.230        20
52.240        20
52.250        27
52.260        33
52.270         7
52.280        40
52.290        33
52.300        27
52.310         7
52.320        33
52.330        20
52.340        13
52.350         7
52.360        40
52.370        13
52.380        27
52.390        27
52.400        13
52.410        47
52.420        13
52.430        40
52.440        13
52.450        47
52.460         7
52.470        20
52.480        33
52.490        27
52.500        53
52.510        13
52.520        27
52.530        33
52.540        27
52.550        33
52.560        67
52.570        73
52.580        67
52.590        60
52.600        47
52.610        73
52.620        27
52.630        47
52.640        27
52.650        40
52.660        53
52.670        33
52.680        20
52.690         7
52.700        47
52.710        13
52.720        33
52.730        47
52.740        40
52.750        27
52.760        13
52.770        33
52.780        27
52.790         7
52.800        33
52.810        20
52.820         7
52.830        20
52.840        20
52.850         7
52.860        27
52.870        20
52.880        13
52.890        27
52.900        20
52.910        27
52.920        13
52.930        40
52.940        20
52.950        20
52.960        47
52.970         7
52.980        20
52.990        20
53.000        20
53.010        13
53.020        27
53.030        27
53.040         0
53.050        13
53.060        13
53.070         7
53.080        13
53.090        27
53.100        27
53.110        20
53.120        33
53.130         7
53.140        13
53.150        20
53.160         7
53.170        13
53.180        27
53.190        27
53.200        33
53.210        20
53.220        53
53.230         0
53.240        13
53.250        33
53.260         7
53.270         7
53.280         7
53.290        13
53.300        13
53.310        33
53.320         7
53.330        20
53.340        20
53.350        27
53.360        33
53.370         7
53.380        20
53.390        13
53.400        13
53.410        20
53.420         7
53.430        27
53.440        20
53.450        33
53.460        13
53.470         7
53.480        47
53.490         7
53.500        13
53.510         7
53.520         7
53.530         0
53.540         7
53.550        27
53.560        13
53.570        13
53.580         7
53.590        13
53.600        40
53.610        47
53.620        20
53.630        47
53.640        13
53.650         0
53.660        13
53.670        13
53.680        13
53.690        27
53.700        20
53.710        13
53.720        33
53.730         7
53.740        47
53.750        33
53.760         7
53.770        33
53.780        13
53.790        33
53.800        13
53.810         7
53.820        27
53.830        20
53.840         7
53.850        20
53.860        20
53.870        13
53.880        33
53.890        20
53.900         7
53.910        13
53.920        40
53.930         7
53.940        13
53.950         0
53.960        33
53.970        27
53.980        33
53.990         0
54.000        20
54.010         0
54.020        53
54.030         0
54.040        13
54.050        13
54.060        33
54.070        13
54.080        13
54.090        13
54.100         7
54.110        20
54.120        27
54.130        13
54.140        20
54.150        13
54.160        20
54.170        13
54.180        33
54.190         7
54.200        33
54.210         7
54.220        13
54.230         7
54.240        40
54.250        13
54.260         7
54.270        20
54.280        27
54.290        20
54.300         7
54.310        13
54.320        20
54.330        20
54.340         7
54.350        20
54.360         7
54.370        27
54.380        27
54.390        27
54.400         0
54.410        33
54.420         7
54.430        27
54.440        20
54.450         0
54.460        27
54.470         7
54.480        13
54.490        20
54.500         7
54.510        20
54.520        33
54.530         7
54.540         7
54.550         7
54.560        20
54.570        40
54.580        27
54.590         7
54.600        13
54.610        20
54.620        20
54.630         0
54.640        40
54.650        27
54.660         7
54.670        13
54.680        13
54.690        27
54.700         7
54.710         0
54.720        33
54.730        13
54.740        20
54.750         0
54.760         7
54.770        27
54.780        33
54.790        27
54.800        20
54.810         7
54.820         7
54.830         7
54.840        27
54.850        13
54.860        40
54.870        20
54.880        13
54.890        20
54.900        20
54.910         7
54.920        13
54.930        40
54.940        13
54.950        13
54.960        13
54.970        27
54.980        20
54.990        33
55.000        20
55.010        13
55.020         7
55.030        20
55.040        20
55.050        20
55.060        20
55.070        13
55.080        33
55.090        13
55.100        20
55.110        13
55.120         0
55.130        20
55.140        13
55.150         7
55.160         7
55.170        33
55.180        47
55.190        33
55.200         7
55.210        13
55.220        13
55.230         7
55.240         7
55.250        20
55.260        20
55.270        27
55.280        33
55.290         7
55.300        40
55.310         7
55.320        20
55.330        20
55.340         7
55.350        13
55.360        13
55.370        13
55.380         0
55.390         0
55.400        27
55.410        33
55.420        33
55.430        20
55.440        27
55.450        20
55.460        20
55.470        13
55.480        20
55.490        20
55.500        33
55.510         7
55.520        33
55.530        47
55.540        13
55.550        20
55.560        40
55.570        27
55.580        40
55.590         7
55.600        13
55.610        27
55.620        13
55.630        27
55.640        20
55.650        13
55.660        13
55.670        40
55.680         7
55.690         7
55.700        33
55.710         7
55.720         7
55.730        13
55.740         7
55.750        33
55.760         7
55.770        33
55.780        20
55.790        13
55.800        13
55.810         0
55.820        13
55.830        20
55.840        33
55.850         7
55.860         7
55.870        33
55.880        13
55.890        13
55.900        27
55.910        20
55.920        20
55.930         7
55.940        20
55.950        27
55.960        13
55.970        33
55.980        13
55.990        13
56.000        20
56.010        47
56.020        13
56.030        33
56.040        13
56.050        13
56.060        13
56.070        13
56.080        13
56.090        20
56.100        13
56.110        27
56.120        27
56.130        40
56.140         0
56.150        20
56.160         7
56.170        20
56.180         7
56.190        20
56.200        20
56.210        20
56.220        40
56.230        20
56.240        27
56.250        13
56.260         0
56.270        13
56.280         0
56.290        20
56.300        40
56.310        20
56.320        13
56.330         7
56.340        33
56.350        13
56.360        20
56.370        27
56.380        13
56.390        33
56.400         7
56.410        33
56.420        13
56.430        27
56.440        27
56.450        20
56.460        13
56.470        13
56.480        33
56.490        20
56.500        40
56.510        20
56.520        13
56.530         7
56.540        27
56.550        13
56.560         7
56.570         7
56.580         7
56.590        27
56.600        20
56.610         0
56.620         7
56.630        27
56.640        33
56.650        20
56.660         7
56.670        27
56.680         0
56.690        13
56.700         7
56.710         7
56.720        20
56.730        13
56.740         7
56.750         7
56.760         7
56.770        13
56.780        20
56.790        33
56.800        13
56.810        33
56.820        27
56.830        20
56.840        20
56.850        20
56.860         7
56.870        20
56.880        27
56.890        13
56.900         7
56.910         7
56.920        20
56.930        20
56.940        13
56.950         7
56.960        20
56.970        13
56.980        13
56.990        33
57.000        27
57.010         7
57.020        33
57.030        20
57.040        13
57.050         0
57.060        27
57.070        13
57.080        27
57.090         7
57.100        13
57.110        20
57.120        13
57.130        47
57.140        20
57.150        33
57.160        13
57.170        27
57.180        13
57.190         7
57.200        27
57.210        40
57.220        13
57.230        13
57.240        13
57.250        40
57.260        20
57.270        20
57.280        27
57.290         7
57.300        40
57.310        27
57.320        27
57.330        60
57.340        73
57.350        40
57.360        60
57.370        33
57.380        40
57.390        33
57.400        27
57.410        53
57.420        47
57.430        13
57.440        80
57.450        40
57.460        47
57.470        67
57.480        87
57.490       160
57.500        93
57.510       120
57.520       107
57.530       187
57.540       207
57.550       207
57.560       180
57.570       207
57.580       153
57.590        87
57.600        93
57.610        33
57.620        40
57.630        53
57.640        33
57.650        60
57.660        60
57.670        60
57.680        73
57.690        87
57.700        80
57.710        60
57.720       113
57.730        87
57.740        93
57.750        73
57.760        47
57.770        27
57.780        20
57.790        20
57.800        13
57.810        27
57.820        33
57.830        27
57.840        20
57.850        33
57.860        53
57.870        40
57.880         7
57.890        33
57.900        20
57.910        27
57.920        13
57.930        60
57.940        60
57.950        13
57.960        33
57.970        20
57.980        13
57.990        47
58.000        47
58.010        60
58.020        13
58.030        47
58.040        40
58.050        33
58.060        40
58.070        20
58.080        27
58.090        47
58.100        13
58.110        33
58.120        20
58.130        20
58.140        20
58.150        33
58.160        53
58.170        33
58.180        13
58.190        13
58.200        27
58.210        33
58.220        13
58.230         7
58.240         7
58.250         7
58.260        20
58.270         7
58.280         7
58.290        20
58.300        20
58.310        13
58.320         7
58.330        13
58.340        13
58.350        13
58.360         7
58.370        27
58.380        27
58.390         7
58.400        20
58.410        13
58.420        47
58.430        20
58.440         0
58.450        13
58.460        33
58.470        27
58.480        13
58.490         7
58.500         7
58.510        47
58.520        27
58.530         7
58.540        27
58.550        27
58.560         7
58.570        20
58.580         7
58.590        13
58.600         7
58.610        27
58.620        20
58.630        13
58.640        20
58.650        20
58.660        13
58.670        20
58.680         0
58.690        20
58.700        27
58.710        20
58.720        13
58.730         7
58.740         7
58.750         7
58.760         7
58.770        13
58.780        20
58.790         0
58.800         7
58.810         0
58.820        13
58.830         7
58.840         0
58.850         7
58.860        13
58.870         7
58.880        13
58.890        13
58.900         0
58.910        20
58.920        13
58.930        13
58.940         7
58.950        20
58.960        20
58.970        13
58.980        13
58.990         7
59.000        20
59.010         7
59.020        27
59.030        27
59.040         7
59.050        27
59.060        13
59.070         0
59.080        53
59.090        13
59.100        20
59.110         0
59.120        13
59.130        20
59.140        20
59.150        13
59.160        20
59.170        33
59.180        40
59.190         7
59.200         7
59.210        27
59.220        13
59.230        13
59.240        33
59.250        27
59.260        33
59.270        20
59.280        13
59.290        40
59.300         7
59.310        13
59.320        13
59.330         0
59.340         0
59.350         7
59.360        13
59.370        20
59.380         7
59.390        27
59.400         7
59.410        13
59.420        13
59.430        20
59.440        27
59.450        27
59.460         7
59.470        13
59.480         7
59.490        13
59.500        13
59.510        33
59.520        33
59.530        27
59.540        33
59.550        40
59.560        47
59.570        33
59.580         0
59.590        13
59.600         7
59.610         0
59.620        40
59.630        20
59.640        33
59.650        13
59.660        13
59.670         7
59.680        20
59.690        13
59.700        27
59.710         7
59.720        13
59.730        20
59.740        20
59.750        20
59.760        33
59.770         0
59.780        27
59.790        13
59.800         7
59.810        20
59.820        27
59.830        13
59.840        20
59.850        27
59.860        20
59.870         0
59.880         7
59.890        13
59.900        20
59.910        27
59.920         7
59.930        13
59.940        20
59.950        27
59.960        13
59.970         7
59.980        13
59.990         7
60.000         7
