20.000        60
20.010        20
20.020        60
20.030        20
20.040        53
20.050        20
20.060        53
20.070        20
20.080        67
20.090        53
20.100        53
20.110        47
20.120        20
20.130        20
20.140        13
20.150        20
20.160        27
20.170        73
20.180        40
20.190        13
20.200        73
20.210        40
20.220        13
20.230       113
20.240        20
20.250        60
20.260        33
20.270        27
20.280        27
20.290        53
20.300        20
20.310        27
20.320        47
20.330        40
20.340        27
20.350        60
20.360        13
20.370        27
20.380        53
20.390        33
20.400        53
20.410        53
20.420        27
20.430        27
20.440        27
20.450        27
20.460        47
20.470        13
20.480        27
20.490        33
20.500        33
20.510        47
20.520        20
20.530        40
20.540        47
20.550        13
20.560        73
20.570        40
20.580        60
20.590        47
20.600         7
20.610        47
20.620        40
20.630        40
20.640        20
20.650        47
20.660        60
20.670        47
20.680        60
20.690        27
20.700        47
20.710        47
20.720         7
20.730        13
20.740        53
20.750        47
20.760        80
20.770        40
20.780        13
20.790        33
20.800        40
20.810        53
20.820        33
20.830        40
20.840        33
20.850        60
20.860        67
20.870        47
20.880        33
20.890        40
20.900        27
20.910        27
20.920        33
20.930        33
20.940        33
20.950        27
20.960        47
20.970        60
20.980        33
20.990        47
21.000        40
21.010        60
21.020        47
21.030        60
21.040        27
21.050        20
21.060        33
21.070        47
21.080        67
21.090        60
21.100        20
21.110        27
21.120        13
21.130        40
21.140        27
21.150        40
21.160        40
21.170        27
21.180        33
21.190        53
21.200        13
21.210        47
21.220        13
21.230        33
21.240        27
21.250        33
21.260        27
21.270        33
21.280        33
21.290        40
21.300        40
21.310        27
21.320        33
21.330        67
21.340        20
21.350        20
21.360        40
21.370        47
21.380        53
21.390        27
21.400        47
21.410        33
21.420        27
21.430        40
21.440        20
21.450        47
21.460        20
21.470        47
21.480        40
21.490        53
21.500        40
21.510        20
21.520        33
21.530        53
21.540        40
21.550        47
21.560        47
21.570        27
21.580        13
21.590        40
21.600        60
21.610        13
21.620        47
21.630        33
21.640        60
21.650        27
21.660        80
21.670        33
21.680        40
21.690        20
21.700        67
21.710        40
21.720        20
21.730        33
21.740        33
21.750        27
21.760        33
21.770        13
21.780        20
21.790        47
21.800        33
21.810        27
21.820        53
21.830        20
21.840        33
21.850        33
21.860        47
21.870        13
21.880        13
21.890        47
21.900        47
21.910        47
21.920        40
21.930        60
21.940        27
21.950        27
21.960        60
21.970        33
21.980        67
21.990        33
22.000        53
22.010        67
22.020        27
22.030        13
22.040        47
22.050        20
22.060        33
22.070        73
22.080        53
22.090        33
22.100        27
22.110        20
22.120        53
22.130         7
22.140        20
22.150         7
22.160        33
22.170        53
22.180        40
22.190        60
22.200        33
22.210        27
22.220        33
22.230        33
22.240        20
22.250        53
22.260        47
22.270        47
22.280        20
22.290        53
22.300        27
22.310        53
22.320        20
22.330        40
22.340        40
22.350        13
22.360        33
22.370        33
22.380        73
22.390        60
22.400        27
22.410        73
22.420        40
22.430        53
22.440        47
22.450        20
22.460        20
22.470        47
22.480        47
22.490        47
22.500        53
22.510        80
22.520        40
22.530        80
22.540        60
22.550        87
22.560        47
22.570        33
22.580        87
22.590        93
22.600       100
22.610       107
22.620       113
22.630        80
22.640       107
22.650       120
22.660       113
22.670       127
22.680       120
22.690        73
22.700        93
22.710       113
22.720        93
22.730       113
22.740        80
22.750       113
22.760       133
22.770        87
22.780       113
22.790        93
22.800        87
22.810        53
22.820        73
22.830       100
22.840       100
22.850        27
22.860        87
22.870        60
22.880        67
22.890        60
22.900        80
22.910        40
22.920        67
22.930        47
22.940        53
22.950        33
22.960        67
22.970        53
22.980        47
22.990        40
23.000        53
23.010        47
23.020        80
23.030        80
23.040        73
23.050        53
23.060        53
23.070        47
23.080        27
23.090        60
23.100        40
23.110        27
23.120        13
23.130         0
23.140        27
23.150        47
23.160        27
23.170        33
23.180        73
23.190        20
23.200        27
23.210        40
23.220        40
23.230        47
23.240        40
23.250        40
23.260        47
23.270        13
23.280        53
23.290        40
23.300        67
23.310        87
23.320        33
23.330        20
23.340        40
23.350        80
23.360        27
23.370        20
23.380        47
23.390        53
23.400        40
23.410        27
23.420        20
23.430        53
23.440        20
23.450        27
23.460        13
23.470        40
23.480        67
23.490        20
23.500        27
23.510        40
23.520        33
23.530        13
23.540        40
23.550        60
23.560        33
23.570        47
23.580        33
23.590        13
23.600        20
23.610        40
23.620        40
23.630        40
23.640        53
23.650        27
23.660        33
23.670        13
23.680        47
23.690        33
23.700        20
23.710        13
23.720        20
23.730        40
23.740        20
23.750        40
23.760        40
23.770        47
23.780        33
23.790         0
23.800        27
23.810        40
23.820        20
23.830        20
23.840        27
23.850        40
23.860        20
23.870        33
23.880        53
23.890        33
23.900         7
23.910        33
23.920        60
23.930         7
23.940         7
23.950        20
23.960         0
23.970        33
23.980        40
23.990        27
24.000        27
24.010        27
24.020        33
24.030        13
24.040        47
24.050        47
24.060         7
24.070        33
24.080        53
24.090        20
24.100        20
24.110        40
24.120        47
24.130        33
24.140        33
24.150        27
24.160        27
24.170        33
24.180        27
24.190        53
24.200        27
24.210        13
24.220        20
24.230        40
24.240        13
24.250        33
24.260        20
24.270        40
24.280        27
24.290        20
24.300        27
24.310        53
24.320        20
24.330        33
24.340        33
24.350        33
24.360        20
24.370        27
24.380        27
24.390        40
24.400        47
24.410        33
24.420        27
24.430        33
24.440        40
24.450        20
24.460        33
24.470        20
24.480        13
24.490        33
24.500        33
24.510        40
24.520        33
24.530        20
24.540        27
24.550        27
24.560        27
24.570        13
24.580        27
24.590        53
24.600        20
24.610        13
24.620        27
24.630        60
24.640        20
24.650        33
24.660         0
24.670        40
24.680        20
24.690        53
24.700        27
24.710        47
24.720        27
24.730        20
24.740        20
24.750        33
24.760        47
24.770        20
24.780        13
24.790         7
24.800        27
24.810        40
24.820        40
24.830        33
24.840        20
24.850        13
24.860        33
24.870        13
24.880        27
24.890        27
24.900        20
24.910        33
24.920        33
24.930        67
24.940         7
24.950        20
24.960        27
24.970        27
24.980        47
24.990        27
25.000        27
25.010        33
25.020        13
25.030        13
25.040        33
25.050         7
25.060        40
25.070        20
25.080        47
25.090        20
25.100        20
25.110        33
25.120        27
25.130        47
25.140        27
25.150        27
25.160         7
25.170        53
25.180        33
25.190         7
25.200        47
25.210        27
25.220         7
25.230        40
25.240        33
25.250        40
25.260        20
25.270         7
25.280         0
25.290         7
25.300        53
25.310        27
25.320        47
25.330         7
25.340        20
25.350        33
25.360        47
25.370        40
25.380        53
25.390        87
25.400        60
25.410        47
25.420        80
25.430        53
25.440        40
25.450        47
25.460        60
25.470        53
25.480        53
25.490        67
25.500        40
25.510        47
25.520        20
25.530        53
25.540        67
25.550        93
25.560        47
25.570        53
25.580        73
25.590        40
25.600        33
25.610        40
25.620        40
25.630        60
25.640        33
25.650        60
25.660        33
25.670        47
25.680        40
25.690         7
25.700        20
25.710        33
25.720        13
25.730        33
25.740        40
25.750        47
25.760        40
25.770        20
25.780        73
25.790        27
25.800        20
25.810        20
25.820        27
25.830        53
25.840        20
25.850        27
25.860        40
25.870        13
25.880        13
25.890        33
25.900        33
25.910        20
25.920        13
25.930        33
25.940        33
25.950        27
25.960        33
25.970        20
25.980        13
25.990        13
26.000        33
26.010        20
26.020        47
26.030        20
26.040        13
26.050        33
26.060         7
26.070        33
26.080        33
26.090        20
26.100        47
26.110        13
26.120        20
26.130        47
26.140        53
26.150        27
26.160        20
26.170        60
26.180        33
26.190        13
26.200        53
26.210        20
26.220        27
26.230        13
26.240        33
26.250        27
26.260        67
26.270        27
26.280        40
26.290        13
26.300         7
26.310        33
26.320        33
26.330        13
26.340        53
26.350        33
26.360        13
26.370        27
26.380        40
26.390        40
26.400        27
26.410        33
26.420        40
26.430        40
26.440         0
26.450        13
26.460        13
26.470        27
26.480        33
26.490        33
26.500        33
26.510        20
26.520        27
26.530        20
26.540        20
26.550        20
26.560        33
26.570        13
26.580        13
26.590        40
26.600        40
26.610        20
26.620        33
26.630        27
26.640        27
26.650        40
26.660        47
26.670         7
26.680         7
26.690        47
26.700        33
26.710        40
26.720        40
26.730        33
26.740        33
26.750        13
26.760         7
26.770        20
26.780         7
26.790        33
26.800        27
26.810         7
26.820        27
26.830        40
26.840        13
26.850         7
26.860        60
26.870        20
26.880        47
26.890        27
26.900        33
26.910        33
26.920        13
26.930        20
26.940        40
26.950        20
26.960         7
26.970        13
26.980        47
26.990        47
27.000         0
27.010        20
27.020         7
27.030        33
27.040        33
27.050         7
27.060        27
27.070        13
27.080        27
27.090        27
27.100        13
27.110        20
27.120        13
27.130         7
27.140        67
27.150         7
27.160        20
27.170        27
27.180        27
27.190        13
27.200         7
27.210         0
27.220        20
27.230        27
27.240        27
27.250        27
27.260        27
27.270         7
27.280        27
27.290        20
27.300        27
27.310        13
27.320        27
27.330        40
27.340        20
27.350        27
27.360         0
27.370        47
27.380        13
27.390        20
27.400        20
27.410        13
27.420        53
27.430        33
27.440        13
27.450        13
27.460        47
27.470        27
27.480        20
27.490        33
27.500        27
27.510         7
27.520        33
27.530        33
27.540        13
27.550         7
27.560        27
27.570        13
27.580        13
27.590        13
27.600        40
27.610        20
27.620        13
27.630        13
27.640        13
27.650         7
27.660        13
27.670        13
27.680        33
27.690        20
27.700        47
27.710         7
27.720        33
27.730        20
27.740        27
27.750        47
27.760        27
27.770        20
27.780        27
27.790        33
27.800        27
27.810        13
27.820         7
27.830        40
27.840        33
27.850        20
27.860        20
27.870        20
27.880        20
27.890        40
27.900        33
27.910        20
27.920        13
27.930        13
27.940        20
27.950        13
27.960        40
27.970        27
27.980        27
27.990        13
28.000         7
28.010        20
28.020        27
28.030        20
28.040         7
28.050        13
28.060        20
28.070        33
28.080        33
28.090         7
28.100        27
28.110        33
28.120        20
28.130         7
28.140        40
28.150        20
28.160        27
28.170        33
28.180         7
28.190        13
28.200        40
28.210        33
28.220        13
28.230        33
28.240        20
28.250        33
28.260        13
28.270        33
28.280        27
28.290        20
28.300        27
28.310        13
28.320         7
28.330         7
28.340         7
28.350        20
28.360        20
28.370        13
28.380        20
28.390        47
28.400        33
28.410        13
28.420        27
28.430         7
28.440        27
28.450        27
28.460        33
28.470        40
28.480         0
28.490        33
28.500        40
28.510        33
28.520        20
28.530        20
28.540        20
28.550        33
28.560        33
28.570        20
28.580        20
28.590        20
28.600         7
28.610        27
28.620        20
28.630        20
28.640        20
28.650        40
28.660        13
28.670        13
28.680         7
28.690        13
28.700        27
28.710        27
28.720        53
28.730        60
28.740        13
28.750        27
28.760        13
28.770        20
28.780         7
28.790        27
28.800        13
28.810        13
28.820        13
28.830        27
28.840        27
28.850        27
28.860        40
28.870        13
28.880        13
28.890         7
28.900         7
28.910        13
28.920        33
28.930        40
28.940        67
28.950        53
28.960        33
28.970        40
28.980        40
28.990        40
29.000        13
29.010        27
29.020        20
29.030        20
29.040         0
29.050        20
29.060        53
29.070        33
29.080        13
29.090        13
29.100        20
29.110        27
29.120         7
29.130        33
29.140        33
29.150        40
29.160        27
29.170        40
29.180         7
29.190        27
29.200        40
29.210        33
29.220        33
29.230        53
29.240        33
29.250         7
29.260        40
29.270        13
29.280        33
29.290        47
29.300        13
29.310        27
29.320        20
29.330        27
29.340        40
29.350        20
29.360        20
29.370         0
29.380        20
29.390        20
29.400         7
29.410        27
29.420        47
29.430        27
29.440        27
29.450         7
29.460         7
29.470        13
29.480        13
29.490        13
29.500        40
29.510        40
29.520        20
29.530        13
29.540        33
29.550         7
29.560        13
29.570        27
29.580        27
29.590        27
29.600         7
29.610         0
29.620         7
29.630        20
29.640        13
29.650        27
29.660        13
29.670         0
29.680        13
29.690         7
29.700        20
29.710        20
29.720         7
29.730        47
29.740        47
29.750         7
29.760        40
29.770        33
29.780        13
29.790        13
29.800         7
29.810        27
29.820        27
29.830         0
29.840        40
29.850        13
29.860        40
29.870        40
29.880         7
29.890        27
29.900        20
29.910         7
29.920        47
29.930        20
29.940        20
29.950         7
29.960        20
29.970        13
29.980        27
29.990        20
30.000        27
30.010         7
30.020        40
30.030         7
30.040         7
30.050        20
30.060        33
30.070        27
30.080        33
30.090        53
30.100        20
30.110        20
30.120        33
30.130         7
30.140         7
30.150        33
30.160        27
30.170        27
30.180        27
30.190        20
30.200        13
30.210        20
30.220        20
30.230        40
30.240        47
30.250         7
30.260        13
30.270        20
30.280        47
30.290        20
30.300        40
30.310        13
30.320        27
30.330         0
30.340        53
30.350        13
30.360        33
30.370        47
30.380        13
30.390        20
30.400         0
30.410         7
30.420        33
30.430        33
30.440        20
30.450        27
30.460         7
30.470        27
30.480        40
30.490         7
30.500        13
30.510        20
30.520        20
30.530        27
30.540         0
30.550        40
30.560        27
30.570        53
30.580        27
30.590        27
30.600        47
30.610        20
30.620        27
30.630        27
30.640        53
30.650        20
30.660        33
30.670        27
30.680        20
30.690         0
30.700        20
30.710        20
30.720        27
30.730        27
30.740        13
30.750        20
30.760        20
30.770         7
30.780        40
30.790        13
30.800        13
30.810         7
30.820        20
30.830         7
30.840        13
30.850        33
30.860        27
30.870        53
30.880        47
30.890        33
30.900         0
30.910        13
30.920         0
30.930        13
30.940        27
30.950        47
30.960        27
30.970        20
30.980        27
30.990        27
31.000        27
31.010        13
31.020        13
31.030        27
31.040        27
31.050        20
31.060        13
31.070        27
31.080        20
31.090        20
31.100         7
31.110        20
31.120         7
31.130        13
31.140        40
31.150        20
31.160        33
31.170         0
31.180        27
31.190        47
31.200        33
31.210        20
31.220        20
31.230        27
31.240         0
31.250         0
31.260         7
31.270        33
31.280        13
31.290        47
31.300        13
31.310        13
31.320        13
31.330        47
31.340        27
31.350        20
31.360        40
31.370        20
31.380        27
31.390        40
31.400        20
31.410        20
31.420        27
31.430        20
31.440        20
31.450         0
31.460        13
31.470        13
31.480        33
31.490        27
31.500        13
31.510         7
31.520        33
31.530        13
31.540        20
31.550        20
31.560        20
31.570        13
31.580        40
31.590        40
31.600        20
31.610         7
31.620        33
31.630         0
31.640        40
31.650        20
31.660        20
31.670         7
31.680        20
31.690        53
31.700        33
31.710        20
31.720        27
31.730        13
31.740        13
31.750        13
31.760        27
31.770        27
31.780        20
31.790        27
31.800        13
31.810        13
31.820        27
31.830        20
31.840        33
31.850        20
31.860        47
31.870        20
31.880        40
31.890        33
31.900        20
31.910        33
31.920        33
31.930         7
31.940        47
31.950        40
31.960        27
31.970         7
31.980        27
31.990        20
32.000        27
32.010        40
32.020        47
32.030        40
32.040        27
32.050        27
32.060        53
32.070        13
32.080        47
32.090        27
32.100        27
32.110        53
32.120        33
32.130        13
32.140        40
32.150        60
32.160        40
32.170        40
32.180        53
32.190        53
32.200        47
32.210        40
32.220        47
32.230        47
32.240        67
32.250        87
32.260        93
32.270        80
32.280        60
32.290        40
32.300        60
32.310       113
32.320        67
32.330       113
32.340        80
32.350       113
32.360        87
32.370        53
32.380        73
32.390        73
32.400        93
32.410       100
32.420        93
32.430        73
32.440        80
32.450       100
32.460        87
32.470        93
32.480        73
32.490        33
32.500        60
32.510        60
32.520        73
32.530        47
32.540       107
32.550        73
32.560        47
32.570        67
32.580        73
32.590        27
32.600        67
32.610        73
32.620        33
32.630        40
32.640        60
32.650        27
32.660        13
32.670        60
32.680        47
32.690        20
32.700        27
32.710        27
32.720        47
32.730        40
32.740        53
32.750        47
32.760         7
32.770         7
32.780        40
32.790        33
32.800        13
32.810        40
32.820        13
32.830        53
32.840        20
32.850         7
32.860        20
32.870        20
32.880        27
32.890        27
32.900        20
32.910         7
32.920        20
32.930        13
32.940        33
32.950        13
32.960        27
32.970        13
32.980        53
32.990        20
33.000        27
33.010        33
33.020        27
33.030        33
33.040         0
33.050        13
33.060        40
33.070        40
33.080        20
33.090        27
33.100        27
33.110        33
33.120        40
33.130        33
33.140        13
33.150        13
33.160        27
33.170        20
33.180        20
33.190        33
33.200        33
33.210         7
33.220        53
33.230        40
33.240        20
33.250        13
33.260         7
33.270         0
33.280        40
33.290        47
33.300        20
33.310        13
33.320        20
33.330        20
33.340        40
33.350        40
33.360        27
33.370        40
33.380         7
33.390        27
33.400         7
33.410        20
33.420        27
33.430        13
33.440        27
33.450        33
33.460        20
33.470         0
33.480        27
33.490        13
33.500        27
33.510        40
33.520        20
33.530         7
33.540        33
33.550        13
33.560         0
33.570        27
33.580        40
33.590        20
33.600        13
33.610        13
33.620        20
33.630        53
33.640        13
33.650        20
33.660        13
33.670        13
33.680         0
33.690         7
33.700        13
33.710        13
33.720        40
33.730        33
33.740        20
33.750        40
33.760        13
33.770        27
33.780        13
33.790        27
33.800        20
33.810        13
33.820        27
33.830        20
33.840        33
33.850         0
33.860        40
33.870        27
33.880        27
33.890        27
33.900        20
33.910         7
33.920        13
33.930         7
33.940        20
33.950        27
33.960        33
33.970        13
33.980        13
33.990        13
34.000        27
34.010         7
34.020         7
34.030        47
34.040        40
34.050        33
34.060        13
34.070        33
34.080        27
34.090        27
34.100        20
34.110         7
34.120        13
34.130        33
34.140        20
34.150        20
34.160        13
34.170        13
34.180        13
34.190         7
34.200        33
34.210        27
34.220         7
34.230        20
34.240        13
34.250        13
34.260        13
34.270         0
34.280        33
34.290        33
34.300        33
34.310        20
34.320        27
34.330         7
34.340        20
34.350        20
34.360         7
34.370        13
34.380         0
34.390        13
34.400        13
34.410         7
34.420         7
34.430        20
34.440         0
34.450        27
34.460        13
34.470        13
34.480        20
34.490        13
34.500        27
34.510        47
34.520        40
34.530         0
34.540        13
34.550        27
34.560        13
34.570        20
34.580        20
34.590        20
34.600         7
34.610        13
34.620        33
34.630         7
34.640         7
34.650        20
34.660        20
34.670        20
34.680        20
34.690        27
34.700        20
34.710         0
34.720        20
34.730        27
34.740        20
34.750         7
34.760        20
34.770        13
34.780        13
34.790        33
34.800        13
34.810         7
34.820        20
34.830        53
34.840        20
34.850        13
34.860        13
34.870        27
34.880        27
34.890        27
34.900        40
34.910        40
34.920        47
34.930        53
34.940        20
34.950        13
34.960        20
34.970        33
34.980        13
34.990        13
35.000        27
35.010        13
35.020        27
35.030        27
35.040        47
35.050        53
35.060        40
35.070        13
35.080        67
35.090        53
35.100        40
35.110        80
35.120        80
35.130       127
35.140       153
35.150       160
35.160       180
35.170       127
35.180       180
35.190       173
35.200       127
35.210       120
35.220       113
35.230       127
35.240       113
35.250       140
35.260        87
35.270        60
35.280        40
35.290        80
35.300        80
35.310        13
35.320        33
35.330        40
35.340        13
35.350        53
35.360        33
35.370        40
35.380        33
35.390        13
35.400        33
35.410        53
35.420         7
35.430        40
35.440        13
35.450        20
35.460        20
35.470        20
35.480        27
35.490        20
35.500        27
35.510        13
35.520        20
35.530         7
35.540        20
35.550        13
35.560        33
35.570        20
35.580        33
35.590        27
35.600        13
35.610         7
35.620        33
35.630        33
35.640        13
35.650         7
35.660         7
35.670         7
35.680        13
35.690        20
35.700        27
35.710        40
35.720         7
35.730        20
35.740         0
35.750        27
35.760         7
35.770        27
35.780        13
35.790        13
35.800        27
35.810        20
35.820        20
35.830        13
35.840         7
35.850        13
35.860        40
35.870        13
35.880        20
35.890         7
35.900        40
35.910        27
35.920        13
35.930        53
35.940        27
35.950        20
35.960        13
35.970        33
35.980        27
35.990        13
36.000         0
36.010        27
36.020        47
36.030        13
36.040        47
36.050        27
36.060        27
36.070        13
36.080        13
36.090        20
36.100        20
36.110        33
36.120        20
36.130        13
36.140        13
36.150        27
36.160         0
36.170         0
36.180        20
36.190         7
36.200        20
36.210        27
36.220        40
36.230        20
36.240        20
36.250        20
36.260        20
36.270        20
36.280        27
36.290         7
36.300        13
36.310        33
36.320        20
36.330        20
36.340        13
36.350         7
36.360         7
36.370        20
36.380        20
36.390        13
36.400        27
36.410        13
36.420        27
36.430        27
36.440        13
36.450        20
36.460        27
36.470        13
36.480         7
36.490         0
36.500         0
36.510        20
36.520        20
36.530        20
36.540        13
36.550        27
36.560        20
36.570        20
36.580         7
36.590        33
36.600        33
36.610        20
36.620        20
36.630        47
36.640         7
36.650        47
36.660        13
36.670        33
36.680        27
36.690         7
36.700        20
36.710        20
36.720        13
36.730         7
36.740        13
36.750         7
36.760         7
36.770        33
36.780        33
36.790        33
36.800        27
36.810        33
36.820         7
36.830        20
36.840         7
36.850        27
36.860        13
36.870         7
36.880        13
36.890        27
36.900        27
36.910        33
36.920        27
36.930        33
36.940        27
36.950        33
36.960        40
36.970        13
36.980        20
36.990        27
37.000        13
37.010        20
37.020        20
37.030        13
37.040        20
37.050         7
37.060        13
37.070        47
37.080        20
37.090        27
37.100        20
37.110        20
37.120        33
37.130        20
37.140        33
37.150        40
37.160        33
37.170        13
37.180         0
37.190        27
37.200        13
37.210        13
37.220         7
37.230        27
37.240        20
37.250        20
37.260        20
37.270        20
37.280         7
37.290        13
37.300        27
37.310        20
37.320        27
37.330        13
37.340        13
37.350        33
37.360         0
37.370        13
37.380        27
37.390         7
37.400        13
37.410        20
37.420         7
37.430        13
37.440         7
37.450        13
37.460         7
37.470         7
37.480        20
37.490        27
37.500         7
37.510         7
37.520         7
37.530        40
37.540        27
37.550        13
37.560        20
37.570        20
37.580         7
37.590         7
37.600        20
37.610        13
37.620        20
37.630         7
37.640        13
37.650        27
37.660         0
37.670        27
37.680        13
37.690        20
37.700        13
37.710        27
37.720        40
37.730        27
37.740        13
37.750        73
37.760        60
37.770        33
37.780        40
37.790        47
37.800        13
37.810        20
37.820        27
37.830        67
37.840        47
37.850        33
37.860        33
37.870        33
37.880        20
37.890        13
37.900        27
37.910        40
37.920        13
37.930        13
37.940        13
37.950        47
37.960        53
37.970        27
37.980        27
37.990        27
38.000         7
38.010        13
38.020        33
38.030        13
38.040        20
38.050        20
38.060        13
38.070         7
38.080        20
38.090        40
38.100         0
38.110        13
38.120        27
38.130        13
38.140        13
38.150        27
38.160         7
38.170        13
38.180         0
38.190        20
38.200        20
38.210        27
38.220        40
38.230        20
38.240         7
38.250        27
38.260        27
38.270        20
38.280         0
38.290         7
38.300        13
38.310         7
38.320        27
38.330        13
38.340        27
38.350        27
38.360         7
38.370        40
38.380        13
38.390        13
38.400        20
38.410        13
38.420         7
38.430         0
38.440        20
38.450        20
38.460        27
38.470        27
38.480        33
38.490        13
38.500        20
38.510        40
38.520        13
38.530         0
38.540        13
38.550        27
38.560        13
38.570        27
38.580        20
38.590        13
38.600         0
38.610         7
38.620        27
38.630        27
38.640        20
38.650         0
38.660        13
38.670         0
38.680         0
38.690        47
38.700        20
38.710        13
38.720        13
38.730        20
38.740        20
38.750        13
38.760        20
38.770        20
38.780         7
38.790        27
38.800        13
38.810        27
38.820        13
38.830        27
38.840        47
38.850         7
38.860        20
38.870        20
38.880        13
38.890         7
38.900        13
38.910        27
38.920         7
38.930        20
38.940         7
38.950         0
38.960        13
38.970        13
38.980        13
38.990        40
39.000         0
39.010        13
39.020         7
39.030        13
39.040        20
39.050        27
39.060        20
39.070        20
39.080        27
39.090         0
39.100        47
39.110        13
39.120        13
39.130        13
39.140        13
39.150        20
39.160        20
39.170         7
39.180        20
39.190         7
39.200        20
39.210        20
39.220        27
39.230         0
39.240        20
39.250        27
39.260        20
39.270        27
39.280        27
39.290         0
39.300         0
39.310         0
39.320         7
39.330        33
39.340        13
39.350        20
39.360        13
39.370        27
39.380        40
39.390        33
39.400        13
39.410        20
39.420        20
39.430        20
39.440        20
39.450         7
39.460        13
39.470        27
39.480        13
39.490        20
39.500         0
39.510        13
39.520        13
39.530        13
39.540        33
39.550        40
39.560        33
39.570        33
39.580        20
39.590        13
39.600         0
39.610        20
39.620        27
39.630        33
39.640        20
39.650        47
39.660        13
39.670        13
39.680         7
39.690        13
39.700        40
39.710        27
39.720        27
39.730        47
39.740        20
39.750        53
39.760        40
39.770        47
39.780        53
39.790        20
39.800        47
39.810        53
39.820        33
39.830        60
39.840        53
39.850        53
39.860        20
39.870        53
39.880        47
39.890        67
39.900        47
39.910        60
39.920        73
39.930        60
39.940        40
39.950        47
39.960        53
39.970        80
39.980        73
39.990        47
40.000        53
40.010        53
40.020        73
40.030        40
40.040        73
40.050        33
40.060        93
40.070        87
40.080        87
40.090        53
40.100        33
40.110        27
40.120        40
40.130        27
40.140        80
40.150        40
40.160        47
40.170        27
40.180        33
40.190        27
40.200        40
40.210        47
40.220        33
40.230         0
40.240        33
40.250        20
40.260        27
40.270        20
40.280        27
40.290        20
40.300        33
40.310        20
40.320        13
40.330        20
40.340         7
40.350        13
40.360        20
40.370        20
40.380        47
40.390         7
40.400        20
40.410        20
40.420        20
40.430        47
40.440        13
40.450        13
40.460        33
40.470        20
40.480         0
40.490        13
40.500        27
40.510        27
40.520        27
40.530        33
40.540         7
40.550        13
40.560        33
40.570         7
40.580         7
40.590         7
40.600         7
40.610        20
40.620         0
40.630        13
40.640        20
40.650        27
40.660         7
40.670        20
40.680        20
40.690        47
40.700        27
40.710        20
40.720        33
40.730        33
40.740        13
40.750        13
40.760        40
40.770        40
40.780        13
40.790        20
40.800        13
40.810        27
40.820        40
40.830        33
40.840         7
40.850        20
40.860        33
40.870        20
40.880        27
40.890         7
40.900        33
40.910         7
40.920        33
40.930        20
40.940        33
40.950         7
40.960        40
40.970         7
40.980        27
40.990        13
41.000        27
41.010        13
41.020        13
41.030        27
41.040         7
41.050        40
41.060        47
41.070        13
41.080        60
41.090         7
41.100        40
41.110        27
41.120        20
41.130        13
41.140        40
41.150        40
41.160        13
41.170        27
41.180        60
41.190        27
41.200        27
41.210        13
41.220        20
41.230        27
41.240        27
41.250        33
41.260        27
41.270        27
41.280        13
41.290        53
41.300        20
41.310        20
41.320         7
41.330        27
41.340        20
41.350        13
41.360        13
41.370        20
41.380        27
41.390        20
41.400        20
41.410        27
41.420        20
41.430        27
41.440        33
41.450        13
41.460        20
41.470        33
41.480        20
41.490         7
41.500        20
41.510        27
41.520        20
41.530        27
41.540        27
41.550        40
41.560        20
41.570        60
41.580        40
41.590        47
41.600        40
41.610        40
41.620        40
41.630        80
41.640       113
41.650       113
41.660        87
41.670       100
41.680       200
41.690       193
41.700       133
41.710       187
41.720       260
41.730       187
41.740       187
41.750       153
41.760       127
41.770       113
41.780        67
41.790        87
41.800        93
41.810       127
41.820        93
41.830       113
41.840       113
41.850        80
41.860       100
41.870        67
41.880        53
41.890        40
41.900        33
41.910        13
41.920        40
41.930        47
41.940        13
41.950        20
41.960        27
41.970        13
41.980        40
41.990        27
42.000        13
42.010        27
42.020        27
42.030        20
42.040        53
42.050         7
42.060        20
42.070        13
42.080        33
42.090        53
42.100        20
42.110        20
42.120        33
42.130        33
42.140        20
42.150        40
42.160        27
42.170        20
42.180        40
42.190        27
42.200        20
42.210        33
42.220        13
42.230        13
42.240        27
42.250        20
42.260        20
42.270        13
42.280        13
42.290        20
42.300        27
42.310        20
42.320        27
42.330        13
42.340        33
42.350        33
42.360        47
42.370        20
42.380        20
42.390        33
42.400        33
42.410        20
42.420        47
42.430        27
42.440        13
42.450         7
42.460        20
42.470        20
42.480         7
42.490        20
42.500        13
42.510        27
42.520        33
42.530        13
42.540         7
42.550        13
42.560        27
42.570         7
42.580        13
42.590        13
42.600        20
42.610        40
42.620        27
42.630         7
42.640        13
42.650        13
42.660        47
42.670        13
42.680         7
42.690         7
42.700        27
42.710         7
42.720        13
42.730         7
42.740        13
42.750        20
42.760        13
42.770        40
42.780        27
42.790        27
42.800         7
42.810        20
42.820        47
42.830        33
42.840        20
42.850        40
42.860        33
42.870        27
42.880        20
42.890        27
42.900         7
42.910        13
42.920        27
42.930        27
42.940        20
42.950        33
42.960        20
42.970         0
42.980        33
42.990        27
43.000        33
43.010        33
43.020        33
43.030        20
43.040         0
43.050         7
43.060        20
43.070        47
43.080        40
43.090        13
43.100        33
43.110        13
43.120        20
43.130        13
43.140         7
43.150        27
43.160        27
43.170        40
43.180         0
43.190        27
43.200        27
43.210        13
43.220        13
43.230        33
43.240        33
43.250        20
43.260        27
43.270        20
43.280        53
43.290        27
43.300        33
43.310        13
43.320        40
43.330        20
43.340        53
43.350        60
43.360        13
43.370       100
43.380        80
43.390        73
43.400        67
43.410       100
43.420        80
43.430        67
43.440        73
43.450        67
43.460        53
43.470        60
43.480        27
43.490        27
43.500        27
43.510        47
43.520        53
43.530        27
43.540        53
43.550        27
43.560        47
43.570        13
43.580         7
43.590        20
43.600        27
43.610        27
43.620        13
43.630        27
43.640        13
43.650        13
43.660        27
43.670         0
43.680        27
43.690        33
43.700        27
43.710        13
43.720         7
43.730         0
43.740        13
43.750        13
43.760        13
43.770        20
43.780        13
43.790        27
43.800         7
43.810        27
43.820        20
43.830        13
43.840        13
43.850        13
43.860        27
43.870        13
43.880        27
43.890         7
43.900         7
43.910        33
43.920        20
43.930        33
43.940        53
43.950        20
43.960        13
43.970         7
43.980        27
43.990        13
44.000        33
44.010        13
44.020        27
44.030        13
44.040        40
44.050        47
44.060         7
44.070        33
44.080        13
44.090        27
44.100        27
44.110        27
44.120        20
44.130        13
44.140        20
44.150         7
44.160        13
44.170        20
44.180        20
44.190        13
44.200        20
44.210        20
44.220        13
44.230        20
44.240        27
44.250        20
44.260        27
44.270         7
44.280        13
44.290        27
44.300        27
44.310        13
44.320        20
44.330        20
44.340        13
44.350        20
44.360        33
44.370        33
44.380         7
44.390        13
44.400        47
44.410        20
44.420        27
44.430        13
44.440        40
44.450         7
44.460        20
44.470        33
44.480         7
44.490         7
44.500        47
44.510        33
44.520        13
44.530        33
44.540        13
44.550        13
44.560        27
44.570        33
44.580        20
44.590        33
44.600        13
44.610        33
44.620        13
44.630        33
44.640        33
44.650        60
44.660        13
44.670        47
44.680        33
44.690        33
44.700        60
44.710        40
44.720        13
44.730        27
44.740        27
44.750        27
44.760        27
44.770        20
44.780        33
44.790        27
44.800        13
44.810        47
44.820        27
44.830        33
44.840        27
44.850        27
44.860        20
44.870        27
44.880        53
44.890        13
44.900        33
44.910        73
44.920        27
44.930        33
44.940        67
44.950        33
44.960        27
44.970        33
44.980        33
44.990        40
45.000        47
45.010        20
45.020        27
45.030        33
45.040        20
45.050        53
45.060        27
45.070        33
45.080        40
45.090        20
45.100        13
45.110        27
45.120        27
45.130        40
45.140        27
45.150        47
45.160        60
45.170        20
45.180        33
45.190        33
45.200        47
45.210        40
45.220        47
45.230        40
45.240        53
45.250        33
45.260        20
45.270        47
45.280        40
45.290        40
45.300        53
45.310        40
45.320        67
45.330        27
45.340        33
45.350        60
45.360        47
45.370        20
45.380        40
45.390        40
45.400        80
45.410        53
45.420        40
45.430        60
45.440        60
45.450        60
45.460        53
45.470        53
45.480        47
45.490        60
45.500        40
45.510        33
45.520        87
45.530        33
45.540        80
45.550        53
45.560        80
45.570        87
45.580        80
45.590        67
45.600        67
45.610        73
45.620       100
45.630        67
45.640        60
45.650        80
45.660        80
45.670       100
45.680        53
45.690       153
45.700       107
45.710       100
45.720       100
45.730       120
45.740       127
45.750       120
45.760        73
45.770       127
45.780       147
45.790        93
45.800       153
45.810        73
45.820       120
45.830       120
45.840       147
45.850       140
45.860       167
45.870       167
45.880       187
45.890       147
45.900       220
45.910       160
45.920       180
45.930       180
45.940       200
45.950       213
45.960       260
45.970       187
45.980       273
45.990       320
46.000       300
46.010       393
46.020       273
46.030       327
46.040       307
46.050       360
46.060       280
46.070       327
46.080       466
46.090       426
46.100       433
46.110       520
46.120       453
46.130       433
46.140       506
46.150       400
46.160       453
46.170       573
46.180       493
46.190       520
46.200       540
46.210       533
46.220       720
46.230       540
46.240       833
46.250       746
46.260       846
46.270       666
46.280       800
46.290       666
46.300       733
46.310       833
46.320       866
46.330       820
46.340       693
46.350       760
46.360       906
46.370       760
46.380       826
46.390       720
46.400       613
46.410       840
46.420       766
46.430       706
46.440       800
46.450       693
46.460       760
46.470       693
46.480       826
46.490       700
46.500       646
46.510       640
46.520       700
46.530       586
46.540       540
46.550       606
46.560       620
46.570       606
46.580       513
46.590       500
46.600       473
46.610       400
46.620       540
46.630       540
46.640       466
46.650       446
46.660       400
46.670       420
46.680       340
46.690       380
46.700       360
46.710       300
46.720       333
46.730       293
46.740       247
46.750       333
46.760       313
46.770       213
46.780       267
46.790       167
46.800       193
46.810       220
46.820       207
46.830       253
46.840       153
46.850       167
46.860       187
46.870       147
46.880       160
46.890       180
46.900       100
46.910       113
46.920       173
46.930       107
46.940       160
46.950       133
46.960       147
46.970        93
46.980       147
46.990        80
47.000        93
47.010       120
47.020        47
47.030        47
47.040       113
47.050       107
47.060        73
47.070       100
47.080        67
47.090        53
47.100        40
47.110        47
47.120        87
47.130        73
47.140        60
47.150        53
47.160        53
47.170        73
47.180        73
47.190        80
47.200        53
47.210        60
47.220        73
47.230        60
47.240        80
47.250        80
47.260        60
47.270        20
47.280        73
47.290        47
47.300        87
47.310        60
47.320        33
47.330        40
47.340        80
47.350        27
47.360        40
47.370        67
47.380        47
47.390        20
47.400        13
47.410        33
47.420        53
47.430        47
47.440        47
47.450        33
47.460        47
47.470        20
47.480        27
47.490        13
47.500        27
47.510        20
47.520        40
47.530        40
47.540        53
47.550        53
47.560        27
47.570        27
47.580        53
47.590        27
47.600        27
47.610        60
47.620        87
47.630        13
47.640        13
47.650        40
47.660        27
47.670        40
47.680        40
47.690         7
47.700        40
47.710        27
47.720        13
47.730        20
47.740        40
47.750        33
47.760        27
47.770        27
47.780        27
47.790        27
47.800        40
47.810        47
47.820        40
47.830        13
47.840        27
47.850        27
47.860        33
47.870        13
47.880        53
47.890        20
47.900        33
47.910        20
47.920        33
47.930        20
47.940        20
47.950        40
47.960         7
47.970        33
47.980        40
47.990        53
48.000        13
48.010        40
48.020        13
48.030        27
48.040        13
48.050        13
48.060        20
48.070        20
48.080        33
48.090        27
48.100        40
48.110         0
48.120        20
48.130        13
48.140        13
48.150        20
48.160        27
48.170        20
48.180         0
48.190        20
48.200        20
48.210        40
48.220        40
48.230        20
48.240        27
48.250        13
48.260        13
48.270        20
48.280        40
48.290        33
48.300        13
48.310        20
48.320         0
48.330        20
48.340        40
48.350        27
48.360        33
48.370        40
48.380        13
48.390        13
48.400        20
48.410         7
48.420        33
48.430        53
48.440        33
48.450        20
48.460        33
48.470        13
48.480        20
48.490        27
48.500         7
48.510         7
48.520        27
48.530        27
48.540        20
48.550        20
48.560        27
48.570        40
48.580        20
48.590        40
48.600        47
48.610         7
48.620        13
48.630        20
48.640        20
48.650        40
48.660        27
48.670         7
48.680        27
48.690        27
48.700        20
48.710        13
48.720        13
48.730        40
48.740         0
48.750        20
48.760        40
48.770        40
48.780        27
48.790        20
48.800        33
48.810        53
48.820        20
48.830        27
48.840        20
48.850        53
48.860        20
48.870        33
48.880         0
48.890        20
48.900         0
48.910         0
48.920        40
48.930        27
48.940        40
48.950        13
48.960        47
48.970        13
48.980        13
48.990        13
49.000        20
49.010        27
49.020         7
49.030        33
49.040        13
49.050        40
49.060        40
49.070        47
49.080        27
49.090        13
49.100        33
49.110         7
49.120        27
49.130        33
49.140        27
49.150        33
49.160        27
49.170         0
49.180        13
49.190        33
49.200        33
49.210         7
49.220        20
49.230        27
49.240         7
49.250        13
49.260        20
49.270        20
49.280        13
49.290         7
49.300        13
49.310        33
49.320        47
49.330        27
49.340        20
49.350        20
49.360        20
49.370        20
49.380        13
49.390        20
49.400        20
49.410        20
49.420        27
49.430        33
49.440         7
49.450        20
49.460        33
49.470         7
49.480        20
49.490        13
49.500        27
49.510        13
49.520        33
49.530        20
49.540        13
49.550        13
49.560        27
49.570        20
49.580        27
49.590         0
49.600        20
49.610        20
49.620        33
49.630         7
49.640        33
49.650        20
49.660         7
49.670        13
49.680        13
49.690        13
49.700        33
49.710         7
49.720         0
49.730        20
49.740        13
49.750        40
49.760         7
49.770        20
49.780        13
49.790         0
49.800        20
49.810        13
49.820        13
49.830        13
49.840        13
49.850         7
49.860         7
49.870        33
49.880         7
49.890        13
49.900        33
49.910         7
49.920        13
49.930        20
49.940        13
49.950        20
49.960         7
49.970        20
49.980        47
49.990        27
50.000        33
50.010        27
50.020        33
50.030        27
50.040        13
50.050        13
50.060         7
50.070        20
50.080        20
50.090         7
50.100        60
50.110        20
50.120         7
50.130        20
50.140        27
50.150        13
50.160         0
50.170        27
50.180        13
50.190        20
50.200         7
50.210        13
50.220        27
50.230         7
50.240        20
50.250        33
50.260         7
50.270        33
50.280         7
50.290        27
50.300         7
50.310         7
50.320        13
50.330        27
50.340         7
50.350        27
50.360         7
50.370         7
50.380        20
50.390        13
50.400        33
50.410        13
50.420        33
50.430         7
50.440        13
50.450        20
50.460         7
50.470        13
50.480        27
50.490         7
50.500        20
50.510         7
50.520        33
50.530         0
50.540        27
50.550         0
50.560        13
50.570        13
50.580         0
50.590        40
50.600         7
50.610        40
50.620        33
50.630        20
50.640        27
50.650        20
50.660        13
50.670        27
50.680        20
50.690        27
50.700        13
50.710        13
50.720        20
50.730        27
50.740        20
50.750        33
50.760        27
50.770         7
50.780        20
50.790         7
50.800         7
50.810        13
50.820        27
50.830         7
50.840        13
50.850        20
50.860        20
50.870        13
50.880        40
50.890        33
50.900        33
50.910        33
50.920        20
50.930        20
50.940         7
50.950        27
50.960        33
50.970        13
50.980        27
50.990        20
51.000         7
51.010         0
51.020        13
51.030         7
51.040        20
51.050         7
51.060        20
51.070        13
51.080         7
51.090         7
51.100        20
51.110         7
51.120        40
51.130        27
51.140        20
51.150        20
51.160        27
51.170         0
51.180        33
51.190        20
51.200        20
51.210         7
51.220        20
51.230         7
51.240        53
51.250         7
51.260         0
51.270        20
51.280        20
51.290        20
51.300        20
51.310        40
51.320        13
51.330        33
51.340        20
51.350        13
51.360         7
51.370        27
51.380        40
51.390         7
51.400         7
51.410        20
51.420        13
51.430        20
51.440        33
51.450        20
51.460        27
51.470        47
51.480        20
51.490        40
51.500        20
51.510        27
51.520        13
51.530        20
51.540        20
51.550        20
51.560        20
51.570        27
51.580         0
51.590        20
51.600        20
51.610        20
51.620        20
51.630        20
51.640        20
51.650        20
51.660         7
51.670        20
51.680         7
51.690        33
51.700         7
51.710        27
51.720        13
51.730        20
51.740        13
51.750        20
51.760        27
51.770        20
51.780        13
51.790        13
51.800         7
51.810        33
51.820         7
51.830        13
51.840         0
51.850        13
51.860        20
51.870         0
51.880        13
51.890        40
51.900         7
51.910        13
51.920        13
51.930        20
51.940        13
51.950        13
51.960        27
51.970        20
51.980         7
51.990        40
52.000        27
52.010        20
52.020        13
52.030         7
52.040        20
52.050        27
52.060        13
52.070        13
52.080        13
52.090        20
52.100        20
52.110        13
52.120        20
52.130        20
52.140        27
52.150        20
52.160        13
52.170        20
52.180        27
52.190        27
52.200         7
52.210        13
52.220        27
52.230        20
52.240        13
52.250        33
52.260        13
52.270         7
52.280        20
52.290        20
52.300         7
52.310        13
52.320         7
52.330        13
52.340         7
52.350        27
52.360         7
52.370        20
52.380        20
52.390        40
52.400        33
52.410        20
52.420        27
52.430         7
52.440        20
52.450        13
52.460         7
52.470        40
52.480        20
52.490        27
52.500        33
52.510        27
52.520        40
52.530        20
52.540         7
52.550        13
52.560        60
52.570        27
52.580        20
52.590        27
52.600         0
52.610        13
52.620        20
52.630        13
52.640        40
52.650         0
52.660        27
52.670        33
52.680         7
52.690         7
52.700        13
52.710        13
52.720        20
52.730         7
52.740        13
52.750        27
52.760        27
52.770        13
52.780        27
52.790        27
52.800        13
52.810        13
52.820        13
52.830         7
52.840        20
52.850         7
52.860        27
52.870         7
52.880        40
52.890         0
52.900        13
52.910        13
52.920        20
52.930        33
52.940        13
52.950        13
52.960        13
52.970        13
52.980         7
52.990        33
53.000        33
53.010        13
53.020         7
53.030        20
53.040         7
53.050        13
53.060        20
53.070         7
53.080        13
53.090        27
53.100         7
53.110        33
53.120        13
53.130        13
53.140        27
53.150        27
53.160        27
53.170         7
53.180        13
53.190        13
53.200        20
53.210        33
53.220        13
53.230        27
53.240        20
53.250        20
53.260         0
53.270        20
53.280        20
53.290        13
53.300        13
53.310        20
53.320        13
53.330        27
53.340        13
53.350        20
53.360         7
53.370        13
53.380        20
53.390        13
53.400        20
53.410        27
53.420        13
53.430         7
53.440         7
53.450        13
53.460        13
53.470        20
53.480         7
53.490         7
53.500        27
53.510        13
53.520         7
53.530        47
53.540         7
53.550        13
53.560         7
53.570         7
53.580        27
53.590        27
53.600        13
53.610         7
53.620        33
53.630        27
53.640         7
53.650        27
53.660        13
53.670         7
53.680         0
53.690        13
53.700        20
53.710         7
53.720        33
53.730        20
53.740        13
53.750        20
53.760        27
53.770         7
53.780        20
53.790        13
53.800        13
53.810        20
53.820        13
53.830         7
53.840        33
53.850         0
53.860        27
53.870         0
53.880         0
53.890         0
53.900        13
53.910         0
53.920         0
53.930        27
53.940         0
53.950        27
53.960        20
53.970         7
53.980         7
53.990        13
54.000         7
54.010         7
54.020        33
54.030        13
54.040        13
54.050         0
54.060        13
54.070        40
54.080        13
54.090        13
54.100         7
54.110        13
54.120        20
54.130        13
54.140         7
54.150        13
54.160        27
54.170        33
54.180        13
54.190        27
54.200         0
54.210         7
54.220         0
54.230        20
54.240        33
54.250         7
54.260        27
54.270         7
54.280        13
54.290         0
54.300        20
54.310         7
54.320        13
54.330        20
54.340        20
54.350         0
54.360         0
54.370        33
54.380        20
54.390         7
54.400        20
54.410         7
54.420        47
54.430        27
54.440        47
54.450         0
54.460         7
54.470         7
54.480        33
54.490        27
54.500        20
54.510         7
54.520         7
54.530         7
54.540         0
54.550        20
54.560        13
54.570        20
54.580        13
54.590         7
54.600         7
54.610         0
54.620         0
54.630        20
54.640        33
54.650        20
54.660         7
54.670        13
54.680        20
54.690        60
54.700        27
54.710        13
54.720        13
54.730        27
54.740        13
54.750        20
54.760         7
54.770        27
54.780         7
54.790        20
54.800        20
54.810        40
54.820        27
54.830        13
54.840        13
54.850        13
54.860        27
54.870        20
54.880        20
54.890        20
54.900        27
54.910        20
54.920        33
54.930        27
54.940        27
54.950        20
54.960        20
54.970         7
54.980        27
54.990        27
55.000        27
55.010        20
55.020         0
55.030        27
55.040         7
55.050        13
55.060         7
55.070         7
55.080        13
55.090        20
55.100         0
55.110         7
55.120         7
55.130        27
55.140         7
55.150        27
55.160        13
55.170        33
55.180         7
55.190        20
55.200         0
55.210         7
55.220         7
55.230         7
55.240        13
55.250         0
55.260         7
55.270        27
55.280        20
55.290        27
55.300         7
55.310        13
55.320        13
55.330        40
55.340        20
55.350         7
55.360        20
55.370        20
55.380        13
55.390         7
55.400        13
55.410        27
55.420        20
55.430        13
55.440        13
55.450        13
55.460        27
55.470         7
55.480        20
55.490        13
55.500        13
55.510         7
55.520        13
55.530         7
55.540        13
55.550        13
55.560        20
55.570        33
55.580         7
55.590         7
55.600        13
55.610         7
55.620        20
55.630         0
55.640         7
55.650        27
55.660         7
55.670        20
55.680        20
55.690        13
55.700        20
55.710        13
55.720         7
55.730        20
55.740         7
55.750        13
55.760         0
55.770         0
55.780         7
55.790        20
55.800         7
55.810        20
55.820        33
55.830         7
55.840        20
55.850        27
55.860        40
55.870        13
55.880        47
55.890        20
55.900        13
55.910        33
55.920         7
55.930        13
55.940        20
55.950        27
55.960        13
55.970         0
55.980        13
55.990        13
56.000         7
56.010        20
56.020        20
56.030        20
56.040        13
56.050         0
56.060        13
56.070         0
56.080        13
56.090         7
56.100        27
56.110        13
56.120         7
56.130         0
56.140         7
56.150        13
56.160         7
56.170         0
56.180        20
56.190         7
56.200        40
56.210         0
56.220        20
56.230        20
56.240         7
56.250         7
56.260        13
56.270         0
56.280         7
56.290         0
56.300         7
56.310        13
56.320        20
56.330        40
56.340         0
56.350         7
56.360         0
56.370         7
56.380        20
56.390        13
56.400         7
56.410         7
56.420        13
56.430        20
56.440         7
56.450         7
56.460        13
56.470        27
56.480        13
56.490        20
56.500        40
56.510        27
56.520        20
56.530        13
56.540        20
56.550         0
56.560        20
56.570        13
56.580        20
56.590        40
56.600        13
56.610        27
56.620        20
56.630         7
56.640        40
56.650         7
56.660        40
56.670        27
56.680        13
56.690        13
56.700        20
56.710        13
56.720         7
56.730         7
56.740         7
56.750         7
56.760         7
56.770        13
56.780        13
56.790        20
56.800        13
56.810         0
56.820        27
56.830        13
56.840        13
56.850        13
56.860        27
56.870        13
56.880         7
56.890        13
56.900        13
56.910         7
56.920        13
56.930         0
56.940        13
56.950        33
56.960        27
56.970         0
56.980        33
56.990        13
57.000        13
57.010         7
57.020        27
57.030        20
57.040        27
57.050        33
57.060         7
57.070         0
57.080         7
57.090        47
57.100        33
57.110        13
57.120         7
57.130        13
57.140        20
57.150        13
57.160        13
57.170        33
57.180        20
57.190        33
57.200        33
57.210        27
57.220        20
57.230        20
57.240         7
57.250        33
57.260        13
57.270        40
57.280        27
57.290        47
57.300        20
57.310        27
57.320        27
57.330        33
57.340        33
57.350        27
57.360        40
57.370        33
57.380        53
57.390        60
57.400       120
57.410        53
57.420       100
57.430       113
57.440        87
57.450       167
57.460       200
57.470       227
57.480       147
57.490       227
57.500       313
57.510       400
57.520       433
57.530       526
57.540       586
57.550       400
57.560       293
57.570       300
57.580       220
57.590       153
57.600       153
57.610        80
57.620       207
57.630       133
57.640       160
57.650       160
57.660       173
57.670       220
57.680       267
57.690       267
57.700       300
57.710       240
57.720       200
57.730       127
57.740        67
57.750        40
57.760        47
57.770        47
57.780        47
57.790        53
57.800        47
57.810        40
57.820        40
57.830        27
57.840        47
57.850        47
57.860        33
57.870        27
57.880        47
57.890         7
57.900        20
57.910        20
57.920        27
57.930        33
57.940        33
57.950         7
57.960         7
57.970        13
57.980        20
57.990        33
58.000        20
58.010        27
58.020        47
58.030         0
58.040        20
58.050        33
58.060        13
58.070        20
58.080        20
58.090        40
58.100        33
58.110        13
58.120        13
58.130         0
58.140         7
58.150        27
58.160        40
58.170        33
58.180        40
58.190        27
58.200        13
58.210        20
58.220        27
58.230         0
58.240        13
58.250        33
58.260        20
58.270         7
58.280         7
58.290         0
58.300        20
58.310         7
58.320        33
58.330         0
58.340        27
58.350         7
58.360        33
58.370        27
58.380        13
58.390        27
58.400        27
58.410        13
58.420         7
58.430        27
58.440        53
58.450         7
58.460         7
58.470         7
58.480        27
58.490        20
58.500        13
58.510         7
58.520        20
58.530         7
58.540         7
58.550        20
58.560        20
58.570         7
58.580        13
58.590        20
58.600         0
58.610        27
58.620        13
58.630        33
58.640         7
58.650        13
58.660        27
58.670        27
58.680        27
58.690        20
58.700         7
58.710        13
58.720         7
58.730        20
58.740         7
58.750         7
58.760         7
58.770        27
58.780        13
58.790        27
58.800         0
58.810         7
58.820         7
58.830        20
58.840         7
58.850        13
58.860         7
58.870        40
58.880        13
58.890        27
58.900        20
58.910         7
58.920        13
58.930        33
58.940        20
58.950        13
58.960         7
58.970         7
58.980         7
58.990        20
59.000        13
59.010         0
59.020        27
59.030        13
59.040        13
59.050         7
59.060        27
59.070        20
59.080        13
59.090         7
59.100        13
59.110        20
59.120        13
59.130        13
59.140        13
59.150        27
59.160        13
59.170         7
59.180        13
59.190        13
59.200         0
59.210        27
59.220         0
59.230        40
59.240         7
59.250        33
59.260        27
59.270         7
59.280        27
59.290        20
59.300        13
59.310        20
59.320        27
59.330         7
59.340         7
59.350        20
59.360        27
59.370        13
59.380        13
59.390         0
59.400        20
59.410        13
59.420        20
59.430        33
59.440        20
59.450         7
59.460        20
59.470         7
59.480         7
59.490        33
59.500        27
59.510        20
59.520        20
59.530        13
59.540         7
59.550        20
59.560        20
59.570        47
59.580        27
59.590         0
59.600         7
59.610        13
59.620         0
59.630        13
59.640         0
59.650        13
59.660         7
59.670        20
59.680        20
59.690        13
59.700        20
59.710        20
59.720        47
59.730        33
59.740        13
59.750        13
59.760        20
59.770        13
59.780        33
59.790        27
59.800        20
59.810        40
59.820         7
59.830        13
59.840        13
59.850         0
59.860        27
59.870        40
59.880         7
59.890        20
59.900         0
59.910        13
59.920        33
59.930        20
59.940         7
59.950        13
59.960        27
59.970        13
59.980        13
59.990         7
60.000         7
