20.000        47
20.010        47
20.020        60
20.030        40
20.040        60
20.050        53
20.060        27
20.070        60
20.080        20
20.090        73
20.100        80
20.110        47
20.120        33
20.130        47
20.140        53
20.150        27
20.160        27
20.170        20
20.180        40
20.190        73
20.200        13
20.210        33
20.220        67
20.230        53
20.240        40
20.250        47
20.260        27
20.270        13
20.280        73
20.290        20
20.300        20
20.310        47
20.320        40
20.330        53
20.340        13
20.350        47
20.360        40
20.370        53
20.380        80
20.390        40
20.400        27
20.410        47
20.420        40
20.430        40
20.440        40
20.450        20
20.460        13
20.470        20
20.480        13
20.490        73
20.500        40
20.510        40
20.520        73
20.530        67
20.540        53
20.550        47
20.560        40
20.570        13
20.580        33
20.590        33
20.600        33
20.610        80
20.620        33
20.630        40
20.640        40
20.650        20
20.660        20
20.670        40
20.680        20
20.690        13
20.700        33
20.710        53
20.720        33
20.730        40
20.740        20
20.750        33
20.760        67
20.770        73
20.780        73
20.790        27
20.800        80
20.810        40
20.820        60
20.830        33
20.840        33
20.850        53
20.860        27
20.870        47
20.880        53
20.890        33
20.900        40
20.910        20
20.920        60
20.930        33
20.940        40
20.950        13
20.960        47
20.970        40
20.980        60
20.990        20
21.000        53
21.010        27
21.020        20
21.030        53
21.040        40
21.050        20
21.060        47
21.070        33
21.080        47
21.090        47
21.100        33
21.110        33
21.120        60
21.130         7
21.140        20
21.150        67
21.160        40
21.170        47
21.180        40
21.190        27
21.200        73
21.210        40
21.220        73
21.230        67
21.240        60
21.250        27
21.260        60
21.270        47
21.280        67
21.290         7
21.300        33
21.310        40
21.320        47
21.330        47
21.340        40
21.350        20
21.360        60
21.370        67
21.380        53
21.390        67
21.400        27
21.410        20
21.420        53
21.430        40
21.440        33
21.450        27
21.460        60
21.470        53
21.480        47
21.490        27
21.500        53
21.510        40
21.520        40
21.530        47
21.540        47
21.550        53
21.560        33
21.570        33
21.580        40
21.590        40
21.600        60
21.610        47
21.620        13
21.630        53
21.640        13
21.650        60
21.660        47
21.670        40
21.680        53
21.690        40
21.700        20
21.710        47
21.720        67
21.730        67
21.740        47
21.750        47
21.760        27
21.770        33
21.780        33
21.790        27
21.800        73
21.810        47
21.820        20
21.830        53
21.840        67
21.850        33
21.860        47
21.870        40
21.880        27
21.890        60
21.900        27
21.910        13
21.920        20
21.930        20
21.940        47
21.950        47
21.960        40
21.970        53
21.980        47
21.990        40
22.000         7
22.010        60
22.020        47
22.030         7
22.040        13
22.050        40
22.060        67
22.070        20
22.080        13
22.090        47
22.100        33
22.110        47
22.120         0
22.130        47
22.140        40
22.150        53
22.160        27
22.170        53
22.180        13
22.190        47
22.200        20
22.210        27
22.220        33
22.230        27
22.240        33
22.250        40
22.260         0
22.270        20
22.280        53
22.290        27
22.300        33
22.310        27
22.320        40
22.330        40
22.340        13
22.350        27
22.360        47
22.370        27
22.380        47
22.390        33
22.400        33
22.410        20
22.420        60
22.430        40
22.440        53
22.450        40
22.460        47
22.470        33
22.480        33
22.490        33
22.500        27
22.510        47
22.520        40
22.530        40
22.540        53
22.550        27
22.560        53
22.570        27
22.580        13
22.590        40
22.600        33
22.610        47
22.620        40
22.630        40
22.640        33
22.650        33
22.660        40
22.670        60
22.680        33
22.690        53
22.700        33
22.710        60
22.720        53
22.730        20
22.740        20
22.750        27
22.760        27
22.770        40
22.780        27
22.790        27
22.800        40
22.810         7
22.820        33
22.830        40
22.840        33
22.850        60
22.860         7
22.870        40
22.880        53
22.890        33
22.900        33
22.910         7
22.920        27
22.930        40
22.940        40
22.950        27
22.960        47
22.970        20
22.980        33
22.990        60
23.000        33
23.010        53
23.020        13
23.030        40
23.040        20
23.050        27
23.060        33
23.070        13
23.080        13
23.090        33
23.100        33
23.110        20
23.120        47
23.130         7
23.140        40
23.150        33
23.160        33
23.170        13
23.180        20
23.190        33
23.200        53
23.210        33
23.220        47
23.230        73
23.240        13
23.250        20
23.260        27
23.270        20
23.280        40
23.290        33
23.300        20
23.310        47
23.320        47
23.330        60
23.340        33
23.350        27
23.360        33
23.370        20
23.380        20
23.390        40
23.400        20
23.410        27
23.420        33
23.430        27
23.440        33
23.450        27
23.460        53
23.470       100
23.480        20
23.490        20
23.500        33
23.510         7
23.520        40
23.530        53
23.540       100
23.550        47
23.560        60
23.570         7
23.580        20
23.590        27
23.600        20
23.610        67
23.620        33
23.630        27
23.640        20
23.650        27
23.660        40
23.670        33
23.680        20
23.690        27
23.700        13
23.710        27
23.720        47
23.730        67
23.740        47
23.750        40
23.760        13
23.770         7
23.780        40
23.790        33
23.800        40
23.810        40
23.820         7
23.830        20
23.840        27
23.850        33
23.860        27
23.870        33
23.880        27
23.890        20
23.900        40
23.910        53
23.920        33
23.930        53
23.940        20
23.950        27
23.960        27
23.970        20
23.980        33
23.990        40
24.000        40
24.010        20
24.020        47
24.030        47
24.040        40
24.050        47
24.060        47
24.070        47
24.080        20
24.090        13
24.100        33
24.110        33
24.120        33
24.130        40
24.140        13
24.150        47
24.160        20
24.170         7
24.180        33
24.190        13
24.200        13
24.210        33
24.220         0
24.230        33
24.240        27
24.250        33
24.260        27
24.270        33
24.280        40
24.290        47
24.300        53
24.310        27
24.320        27
24.330        13
24.340        27
24.350        20
24.360        20
24.370        40
24.380        27
24.390        33
24.400        13
24.410        20
24.420        53
24.430        13
24.440         7
24.450        27
24.460         7
24.470        33
24.480        40
24.490        47
24.500        40
24.510         7
24.520        27
24.530        40
24.540        33
24.550        40
24.560        27
24.570        13
24.580        33
24.590        13
24.600        53
24.610        33
24.620        47
24.630        13
24.640        13
24.650        13
24.660        20
24.670        13
24.680        47
24.690        20
24.700        53
24.710        33
24.720        33
24.730        40
24.740        40
24.750        47
24.760        47
24.770        20
24.780        33
24.790        53
24.800        53
24.810        40
24.820        47
24.830        33
24.840        53
24.850        47
24.860        20
24.870        33
24.880        33
24.890        20
24.900        20
24.910        13
24.920        33
24.930        27
24.940        27
24.950        67
24.960        20
24.970        13
24.980        33
24.990        20
25.000         0
25.010        33
25.020        40
25.030        20
25.040        20
25.050        27
25.060        33
25.070        27
25.080        33
25.090        60
25.100        80
25.110        27
25.120        53
25.130        53
25.140        47
25.150        40
25.160        13
25.170        40
25.180        33
25.190         7
25.200        33
25.210        20
25.220        60
25.230        13
25.240        73
25.250        20
25.260        27
25.270        53
25.280        33
25.290        20
25.300        20
25.310        47
25.320        47
25.330        47
25.340        53
25.350        13
25.360        27
25.370        33
25.380        53
25.390        80
25.400        47
25.410        60
25.420        40
25.430        47
25.440        40
25.450        60
25.460        60
25.470        60
25.480        40
25.490        47
25.500        47
25.510        40
25.520        60
25.530        47
25.540        47
25.550        20
25.560        47
25.570        33
25.580        40
25.590        27
25.600        40
25.610        13
25.620        20
25.630        73
25.640         7
25.650        20
25.660        13
25.670         7
25.680        27
25.690        27
25.700         7
25.710        33
25.720        27
25.730        20
25.740        20
25.750        53
25.760        20
25.770        13
25.780         7
25.790        33
25.800        13
25.810        27
25.820        33
25.830        27
25.840        27
25.850        33
25.860        13
25.870        20
25.880        13
25.890        47
25.900        40
25.910        27
25.920        13
25.930        13
25.940        33
25.950        27
25.960        13
25.970        27
25.980        40
25.990        33
26.000        13
26.010        27
26.020        47
26.030        47
26.040        33
26.050        20
26.060        33
26.070        27
26.080        27
26.090        13
26.100        20
26.110        27
26.120        20
26.130        27
26.140        27
26.150        27
26.160        33
26.170        40
26.180        13
26.190        47
26.200        40
26.210        47
26.220        20
26.230        53
26.240        47
26.250        40
26.260        53
26.270        33
26.280        20
26.290        33
26.300        20
26.310        20
26.320        40
26.330        20
26.340        13
26.350        40
26.360        27
26.370        33
26.380        13
26.390        13
26.400        33
26.410        47
26.420        20
26.430        27
26.440        47
26.450        27
26.460        53
26.470        47
26.480        13
26.490        47
26.500        27
26.510        40
26.520        27
26.530        33
26.540        33
26.550        27
26.560        20
26.570        53
26.580        27
26.590        33
26.600        20
26.610        73
26.620        53
26.630        80
26.640         7
26.650        40
26.660        40
26.670        40
26.680         7
26.690        47
26.700        27
26.710        20
26.720        27
26.730        33
26.740        20
26.750        27
26.760        33
26.770        27
26.780        27
26.790        40
26.800        20
26.810        27
26.820        40
26.830        20
26.840        20
26.850        33
26.860        20
26.870        27
26.880        33
26.890        13
26.900        20
26.910         7
26.920        20
26.930        53
26.940        33
26.950         0
26.960        47
26.970        33
26.980        33
26.990        13
27.000        47
27.010        33
27.020        40
27.030        13
27.040        13
27.050        20
27.060        27
27.070         7
27.080        20
27.090        40
27.100        40
27.110        20
27.120        20
27.130        33
27.140        47
27.150        33
27.160         7
27.170         0
27.180        47
27.190        27
27.200        13
27.210        13
27.220        27
27.230        20
27.240        27
27.250        13
27.260        33
27.270        27
27.280        33
27.290        60
27.300        33
27.310        27
27.320         7
27.330        20
27.340        13
27.350         7
27.360        27
27.370        47
27.380         7
27.390        40
27.400        33
27.410        13
27.420        20
27.430        20
27.440         7
27.450         7
27.460         7
27.470        13
27.480        27
27.490        27
27.500        27
27.510        33
27.520        40
27.530        33
27.540        20
27.550         7
27.560        20
27.570        20
27.580        27
27.590        27
27.600         7
27.610        20
27.620        20
27.630        60
27.640        20
27.650        33
27.660         7
27.670        20
27.680        27
27.690        27
27.700        33
27.710        53
27.720        20
27.730        27
27.740        53
27.750        47
27.760        20
27.770        13
27.780        27
27.790        20
27.800        20
27.810        20
27.820        33
27.830        20
27.840        27
27.850        20
27.860        20
27.870        20
27.880        33
27.890        40
27.900        53
27.910        40
27.920        33
27.930        47
27.940        33
27.950        40
27.960        33
27.970         0
27.980        27
27.990        13
28.000        40
28.010        13
28.020        40
28.030        20
28.040        27
28.050        47
28.060        27
28.070        27
28.080        40
28.090        20
28.100        27
28.110        27
28.120        40
28.130        53
28.140        53
28.150        20
28.160        60
28.170        33
28.180        40
28.190        67
28.200        40
28.210        33
28.220        47
28.230        33
28.240        47
28.250        13
28.260        27
28.270        47
28.280        33
28.290        40
28.300         7
28.310        47
28.320         7
28.330        13
28.340        13
28.350        47
28.360        27
28.370        27
28.380        27
28.390        40
28.400        33
28.410        27
28.420        27
28.430        20
28.440        53
28.450        33
28.460        27
28.470        20
28.480         7
28.490        27
28.500        27
28.510        27
28.520         7
28.530        47
28.540         7
28.550        27
28.560        33
28.570        20
28.580        33
28.590        20
28.600        33
28.610        40
28.620        47
28.630        47
28.640        40
28.650        27
28.660        27
28.670        40
28.680        33
28.690        33
28.700        13
28.710        40
28.720        47
28.730        27
28.740         7
28.750        20
28.760        27
28.770        20
28.780        87
28.790         7
28.800        13
28.810        33
28.820        13
28.830        13
28.840        47
28.850        13
28.860        33
28.870        13
28.880        40
28.890        20
28.900        13
28.910        47
28.920        40
28.930        20
28.940        67
28.950        40
28.960         7
28.970        33
28.980        20
28.990        33
29.000         7
29.010        27
29.020        13
29.030        47
29.040        40
29.050         7
29.060        20
29.070        27
29.080        40
29.090        33
29.100        20
29.110        13
29.120        47
29.130        53
29.140        33
29.150        20
29.160        40
29.170        27
29.180        33
29.190        27
29.200        27
29.210        33
29.220        40
29.230        60
29.240        20
29.250        67
29.260         0
29.270        33
29.280        53
29.290        47
29.300        80
29.310        20
29.320        40
29.330        33
29.340        67
29.350        53
29.360        13
29.370        20
29.380        20
29.390        47
29.400        40
29.410        33
29.420        40
29.430        60
29.440        20
29.450        40
29.460        33
29.470        67
29.480        20
29.490        20
29.500        47
29.510        40
29.520        13
29.530        13
29.540        40
29.550        33
29.560        40
29.570        53
29.580        27
29.590        40
29.600        27
29.610        13
29.620        47
29.630        40
29.640        20
29.650        27
29.660         7
29.670        33
29.680        47
29.690        20
29.700         7
29.710        53
29.720        20
29.730        20
29.740        20
29.750        20
29.760        20
29.770        27
29.780         7
29.790        13
29.800        20
29.810         7
29.820        40
29.830        13
29.840        20
29.850        27
29.860        40
29.870         7
29.880        20
29.890        20
29.900        40
29.910         7
29.920        40
29.930         7
29.940        27
29.950        20
29.960        40
29.970        13
29.980        27
29.990         7
30.000        27
30.010        47
30.020        20
30.030        20
30.040        13
30.050        20
30.060        27
30.070        27
30.080        33
30.090        27
30.100        40
30.110        40
30.120        53
30.130        20
30.140        20
30.150        13
30.160        20
30.170        47
30.180        27
30.190        47
30.200         7
30.210        40
30.220        40
30.230        27
30.240        20
30.250        27
30.260       100
30.270        67
30.280        53
30.290        20
30.300        27
30.310        47
30.320        40
30.330        33
30.340        73
30.350        67
30.360        20
30.370        47
30.380        47
30.390        33
30.400         7
30.410        27
30.420        40
30.430        33
30.440        40
30.450        53
30.460        20
30.470        47
30.480        60
30.490        40
30.500        47
30.510        27
30.520        80
30.530        40
30.540        33
30.550        80
30.560        40
30.570        27
30.580        40
30.590        67
30.600        20
30.610        60
30.620        40
30.630        53
30.640        33
30.650        33
30.660        40
30.670        53
30.680        53
30.690        67
30.700        40
30.710        60
30.720        60
30.730        80
30.740        33
30.750        60
30.760        20
30.770        33
30.780        60
30.790        40
30.800        73
30.810        67
30.820        33
30.830        27
30.840        73
30.850        80
30.860        87
30.870        53
30.880       107
30.890        73
30.900        47
30.910        80
30.920       113
30.930       100
30.940        87
30.950       107
30.960       127
30.970       120
30.980       220
30.990       247
31.000       260
31.010       347
31.020       307
31.030       320
31.040       367
31.050       486
31.060       486
31.070       553
31.080       553
31.090       666
31.100       780
31.110       780
31.120      1006
31.130      1106
31.140      1453
31.150      1220
31.160      1526
31.170      1639
31.180      2033
31.190      2099
31.200      2146
31.210      2426
31.220      2726
31.230      2686
31.240      2726
31.250      2759
31.260      2612
31.270      2866
31.280      2979
31.290      2732
31.300      2632
31.310      2519
31.320      2412
31.330      2459
31.340      2359
31.350      2172
31.360      2046
31.370      1786
31.380      1686
31.390      1679
31.400      1446
31.410      1166
31.420      1020
31.430       846
31.440       813
31.450       660
31.460       746
31.470       700
31.480       553
31.490       493
31.500       426
31.510       367
31.520       240
31.530       253
31.540       180
31.550       213
31.560       147
31.570       127
31.580       160
31.590        80
31.600       120
31.610       133
31.620       120
31.630       160
31.640        53
31.650        87
31.660        67
31.670        73
31.680        80
31.690        73
31.700        47
31.710        87
31.720       100
31.730        47
31.740        67
31.750        67
31.760        80
31.770        87
31.780        87
31.790        80
31.800        53
31.810        47
31.820        27
31.830        87
31.840        53
31.850        60
31.860        47
31.870        33
31.880        73
31.890        27
31.900        40
31.910        20
31.920        60
31.930        53
31.940        13
31.950        40
31.960         7
31.970        53
31.980        87
31.990        67
32.000        13
32.010        40
32.020        53
32.030        40
32.040        13
32.050        60
32.060        20
32.070        27
32.080        47
32.090        27
32.100        87
32.110        13
32.120        27
32.130        33
32.140        53
32.150        73
32.160        47
32.170        33
32.180        40
32.190        47
32.200        53
32.210        40
32.220        20
32.230        67
32.240        33
32.250        33
32.260        60
32.270        20
32.280        53
32.290        47
32.300        33
32.310        20
32.320        33
32.330        40
32.340        20
32.350        47
32.360        60
32.370        40
32.380        33
32.390        20
32.400        53
32.410        40
32.420        60
32.430        27
32.440        40
32.450        47
32.460        33
32.470        27
32.480         7
32.490        33
32.500        33
32.510        33
32.520        27
32.530        27
32.540        27
32.550        27
32.560        47
32.570        27
32.580        27
32.590        27
32.600         0
32.610        33
32.620        20
32.630        27
32.640        47
32.650        60
32.660        40
32.670        47
32.680        33
32.690        33
32.700        40
32.710        47
32.720        27
32.730        27
32.740        20
32.750        47
32.760        20
32.770        20
32.780        33
32.790        40
32.800        33
32.810        27
32.820        40
32.830        40
32.840        27
32.850        60
32.860         7
32.870        33
32.880        40
32.890        27
32.900        53
32.910        27
32.920        40
32.930        60
32.940        27
32.950        27
32.960        13
32.970        20
32.980        13
32.990        20
33.000        13
33.010        40
33.020        27
33.030        33
33.040        40
33.050        33
33.060        60
33.070        33
33.080        27
33.090        13
33.100        47
33.110        40
33.120        13
33.130        13
33.140        40
33.150        13
33.160        27
33.170        13
33.180        13
33.190        47
33.200        27
33.210        47
33.220        13
33.230        33
33.240        33
33.250         7
33.260         0
33.270        47
33.280        20
33.290        33
33.300        13
33.310        33
33.320        40
33.330        33
33.340        40
33.350        13
33.360        27
33.370        27
33.380        27
33.390        27
33.400        27
33.410         7
33.420        20
33.430        27
33.440        27
33.450        67
33.460        20
33.470        47
33.480        27
33.490        27
33.500        20
33.510        13
33.520        13
33.530        33
33.540        33
33.550        27
33.560        20
33.570        27
33.580         7
33.590        33
33.600        13
33.610        20
33.620        27
33.630        27
33.640        13
33.650        60
33.660        27
33.670        20
33.680        27
33.690        33
33.700        33
33.710        27
33.720        33
33.730        27
33.740        53
33.750        40
33.760        47
33.770        20
33.780        47
33.790        13
33.800        47
33.810        27
33.820        27
33.830        33
33.840        13
33.850         7
33.860        53
33.870        20
33.880        13
33.890        33
33.900        33
33.910        27
33.920        20
33.930         7
33.940         7
33.950        27
33.960        13
33.970        33
33.980        40
33.990        47
34.000         0
34.010        27
34.020        20
34.030        20
34.040        20
34.050        20
34.060        20
34.070        27
34.080        13
34.090         7
34.100        33
34.110        27
34.120        27
34.130        27
34.140        27
34.150        47
34.160        53
34.170        27
34.180        27
34.190        47
34.200        13
34.210        20
34.220        27
34.230        40
34.240        27
34.250        20
34.260        47
34.270        53
34.280         7
34.290        20
34.300        13
34.310        20
34.320        53
34.330        27
34.340        33
34.350        20
34.360        20
34.370         7
34.380        53
34.390        20
34.400        20
34.410        20
34.420        27
34.430        13
34.440        13
34.450        20
34.460        27
34.470        13
34.480        47
34.490        13
34.500        13
34.510        40
34.520        33
34.530         0
34.540        27
34.550        47
34.560        13
34.570        33
34.580        13
34.590         7
34.600        40
34.610        13
34.620        13
34.630        13
34.640        27
34.650        33
34.660        13
34.670        40
34.680        33
34.690        40
34.700        13
34.710        40
34.720         7
34.730        60
34.740        53
34.750        13
34.760        20
34.770        20
34.780        33
34.790         7
34.800        33
34.810        33
34.820         7
34.830        40
34.840        13
34.850        20
34.860        47
34.870        20
34.880        27
34.890        20
34.900        13
34.910        13
34.920        27
34.930        27
34.940        20
34.950        20
34.960        40
34.970        27
34.980        20
34.990        20
35.000        20
35.010        53
35.020        40
35.030        27
35.040        47
35.050        33
35.060        40
35.070        47
35.080        87
35.090        53
35.100        67
35.110        33
35.120        40
35.130       107
35.140       100
35.150       127
35.160        87
35.170       100
35.180       133
35.190        87
35.200        80
35.210        60
35.220        73
35.230        73
35.240        47
35.250        80
35.260        33
35.270        47
35.280        67
35.290        60
35.300        33
35.310        33
35.320        40
35.330        27
35.340        20
35.350         7
35.360        33
35.370        33
35.380        60
35.390        20
35.400        40
35.410        27
35.420        53
35.430        47
35.440        13
35.450         7
35.460         7
35.470        13
35.480         7
35.490        20
35.500         7
35.510        27
35.520        40
35.530        13
35.540        27
35.550        20
35.560        20
35.570        53
35.580        27
35.590        33
35.600        27
35.610        13
35.620        20
35.630         0
35.640        20
35.650        40
35.660        40
35.670        27
35.680        40
35.690        33
35.700        53
35.710        40
35.720         7
35.730        53
35.740        20
35.750        27
35.760        13
35.770        20
35.780        27
35.790        20
35.800        13
35.810        20
35.820         7
35.830        33
35.840         7
35.850        33
35.860        13
35.870        27
35.880        27
35.890        67
35.900        13
35.910        33
35.920        27
35.930         0
35.940        27
35.950        27
35.960        40
35.970        13
35.980         7
35.990         7
36.000        27
36.010        13
36.020        40
36.030        27
36.040        33
36.050        40
36.060         0
36.070        27
36.080        40
36.090        20
36.100        33
36.110        33
36.120         7
36.130        40
36.140        53
36.150        20
36.160        40
36.170        33
36.180        13
36.190        47
36.200        20
36.210         0
36.220        13
36.230        13
36.240         7
36.250         7
36.260        27
36.270        20
36.280         0
36.290        20
36.300        27
36.310        33
36.320         7
36.330        13
36.340        27
36.350        33
36.360         7
36.370        13
36.380        33
36.390        20
36.400        27
36.410         7
36.420        40
36.430        47
36.440         7
36.450         7
36.460        13
36.470        13
36.480        20
36.490        40
36.500        13
36.510         7
36.520        33
36.530        40
36.540        20
36.550        27
36.560        13
36.570        33
36.580        27
36.590        20
36.600        13
36.610        13
36.620        13
36.630        47
36.640        47
36.650         7
36.660         0
36.670        13
36.680        33
36.690        27
36.700        20
36.710        13
36.720        27
36.730        33
36.740        20
36.750         7
36.760        13
36.770        20
36.780        27
36.790        20
36.800        40
36.810        13
36.820        33
36.830        27
36.840        47
36.850        13
36.860        13
36.870        13
36.880        27
36.890        33
36.900        33
36.910        40
36.920        20
36.930        13
36.940        33
36.950        20
36.960        20
36.970        27
36.980         7
36.990        27
37.000        27
37.010        20
37.020        33
37.030        27
37.040        20
37.050        33
37.060        53
37.070         7
37.080        20
37.090        47
37.100        60
37.110        33
37.120         0
37.130         7
37.140         7
37.150        20
37.160        27
37.170        13
37.180        40
37.190        13
37.200         0
37.210        47
37.220        20
37.230        20
37.240        20
37.250        13
37.260        20
37.270        20
37.280        20
37.290        27
37.300        13
37.310        27
37.320        27
37.330        33
37.340        20
37.350        27
37.360        40
37.370        47
37.380        20
37.390        13
37.400        27
37.410        67
37.420        27
37.430        27
37.440        20
37.450        40
37.460        27
37.470        27
37.480        53
37.490        20
37.500        27
37.510        33
37.520        27
37.530        13
37.540        13
37.550        40
37.560        13
37.570         7
37.580        13
37.590        13
37.600        20
37.610        27
37.620        20
37.630        27
37.640        27
37.650        20
37.660        33
37.670        27
37.680        53
37.690        13
37.700        20
37.710        13
37.720         7
37.730        27
37.740        13
37.750        20
37.760        20
37.770        20
37.780        33
37.790        33
37.800        20
37.810        40
37.820         7
37.830        20
37.840        33
37.850        47
37.860        80
37.870        27
37.880        47
37.890        27
37.900        33
37.910        40
37.920        33
37.930        27
37.940        13
37.950        20
37.960        40
37.970        20
37.980        27
37.990         7
38.000        33
38.010        20
38.020        27
38.030        27
38.040         0
38.050         7
38.060         7
38.070        53
38.080        27
38.090        27
38.100        33
38.110        40
38.120        60
38.130        13
38.140        13
38.150        13
38.160        13
38.170        33
38.180        40
38.190        20
38.200         7
38.210        27
38.220        13
38.230         7
38.240        53
38.250        20
38.260        27
38.270        33
38.280        20
38.290         7
38.300        33
38.310        40
38.320        20
38.330        87
38.340        27
38.350        20
38.360        40
38.370        27
38.380        40
38.390        47
38.400        40
38.410        47
38.420        67
38.430        60
38.440        40
38.450        87
38.460        60
38.470        60
38.480        53
38.490        40
38.500        60
38.510       107
38.520        73
38.530       100
38.540       127
38.550       160
38.560        87
38.570        73
38.580       120
38.590       133
38.600        93
38.610       140
38.620       147
38.630       120
38.640       133
38.650       173
38.660        93
38.670       187
38.680       133
38.690       193
38.700       147
38.710       120
38.720       133
38.730       133
38.740       107
38.750       140
38.760       100
38.770       107
38.780       147
38.790        47
38.800        73
38.810        47
38.820        67
38.830        67
38.840        40
38.850        47
38.860        20
38.870        53
38.880        13
38.890        60
38.900        33
38.910        40
38.920        27
38.930        53
38.940        33
38.950        27
38.960        33
38.970        40
38.980        33
38.990        27
39.000        27
39.010        40
39.020        40
39.030        20
39.040        27
39.050        27
39.060         7
39.070        27
39.080        13
39.090        20
39.100        33
39.110        33
39.120        33
39.130        27
39.140        13
39.150        33
39.160        13
39.170        27
39.180        20
39.190        53
39.200        20
39.210        13
39.220        33
39.230        27
39.240        13
39.250        40
39.260        27
39.270        20
39.280         7
39.290         7
39.300        13
39.310        27
39.320        20
39.330        27
39.340        13
39.350        27
39.360        27
39.370         7
39.380        40
39.390        27
39.400        47
39.410         7
39.420        27
39.430        27
39.440        20
39.450         7
39.460        27
39.470        33
39.480        20
39.490        27
39.500         7
39.510        27
39.520         7
39.530         7
39.540        40
39.550        20
39.560        20
39.570        13
39.580         7
39.590        20
39.600        13
39.610        33
39.620        27
39.630        40
39.640        33
39.650        40
39.660        33
39.670        27
39.680        13
39.690        33
39.700        27
39.710        27
39.720        27
39.730        20
39.740        13
39.750         0
39.760         0
39.770        40
39.780        33
39.790        20
39.800        27
39.810         7
39.820         7
39.830         0
39.840        13
39.850        13
39.860        13
39.870        27
39.880        27
39.890        33
39.900        13
39.910        20
39.920        27
39.930        13
39.940        33
39.950        13
39.960        20
39.970        33
39.980        13
39.990        27
40.000        13
40.010        33
40.020        20
40.030        13
40.040        27
40.050        20
40.060        20
40.070        53
40.080        20
40.090        20
40.100        40
40.110        33
40.120        20
40.130        20
40.140        13
40.150        20
40.160        27
40.170        33
40.180        33
40.190         7
40.200        13
40.210        13
40.220        40
40.230        33
40.240        27
40.250        27
40.260        13
40.270         7
40.280        27
40.290        13
40.300        27
40.310        20
40.320        40
40.330         0
40.340        27
40.350        27
40.360        20
40.370        13
40.380        27
40.390        13
40.400         0
40.410        20
40.420        13
40.430         7
40.440        20
40.450        33
40.460        53
40.470        13
40.480        27
40.490        33
40.500        13
40.510        40
40.520        47
40.530         0
40.540        13
40.550        33
40.560        13
40.570        27
40.580        20
40.590        13
40.600        13
40.610        27
40.620        13
40.630        27
40.640         0
40.650        20
40.660        13
40.670        33
40.680        27
40.690         7
40.700        13
40.710        47
40.720        20
40.730        20
40.740         7
40.750        27
40.760        13
40.770        13
40.780        33
40.790        20
40.800        47
40.810        47
40.820        27
40.830        20
40.840         7
40.850        20
40.860        13
40.870        27
40.880        13
40.890        20
40.900        27
40.910        13
40.920        27
40.930        20
40.940        13
40.950        27
40.960        20
40.970        20
40.980         7
40.990         0
41.000        13
41.010        33
41.020        13
41.030        20
41.040        27
41.050        20
41.060        27
41.070         7
41.080        20
41.090        27
41.100        13
41.110        67
41.120        40
41.130        47
41.140        13
41.150        47
41.160        20
41.170        20
41.180        40
41.190        13
41.200        33
41.210        27
41.220        13
41.230        27
41.240         7
41.250        33
41.260        20
41.270        13
41.280        13
41.290        13
41.300        13
41.310        20
41.320        13
41.330        40
41.340        20
41.350        20
41.360        33
41.370        27
41.380        20
41.390        20
41.400        27
41.410        27
41.420        13
41.430        27
41.440        33
41.450        13
41.460        20
41.470        13
41.480        27
41.490        40
41.500        20
41.510         7
41.520        33
41.530        13
41.540        27
41.550        13
41.560        27
41.570        27
41.580        33
41.590        40
41.600        27
41.610        47
41.620        33
41.630        33
41.640        33
41.650        47
41.660        47
41.670        53
41.680        73
41.690        60
41.700        47
41.710        67
41.720        40
41.730        73
41.740        87
41.750        80
41.760        20
41.770        53
41.780        53
41.790         0
41.800        60
41.810        20
41.820        40
41.830        87
41.840        53
41.850        47
41.860        20
41.870        53
41.880        13
41.890        20
41.900        27
41.910        27
41.920        20
41.930         7
41.940        53
41.950        33
41.960        20
41.970        13
41.980        27
41.990        20
42.000        20
42.010        20
42.020        33
42.030        27
42.040        27
42.050        20
42.060        20
42.070        13
42.080         7
42.090        20
42.100        13
42.110         7
42.120        13
42.130        27
42.140        27
42.150        20
42.160         7
42.170        13
42.180        27
42.190        27
42.200        27
42.210        13
42.220        13
42.230        20
42.240        33
42.250        20
42.260        20
42.270        20
42.280        27
42.290        13
42.300        20
42.310        20
42.320        47
42.330        27
42.340        60
42.350        20
42.360        53
42.370        13
42.380        13
42.390        13
42.400        13
42.410        13
42.420        20
42.430        20
42.440        20
42.450        33
42.460        33
42.470        47
42.480        13
42.490        33
42.500        20
42.510        20
42.520        33
42.530        27
42.540        13
42.550         7
42.560         7
42.570         7
42.580        20
42.590         0
42.600        13
42.610        13
42.620        20
42.630        27
42.640        40
42.650         7
42.660        20
42.670        13
42.680        27
42.690        20
42.700        20
42.710        13
42.720         7
42.730        13
42.740        13
42.750        13
42.760        20
42.770        27
42.780        20
42.790        33
42.800        40
42.810        27
42.820        27
42.830        33
42.840         7
42.850        20
42.860        47
42.870        27
42.880        47
42.890        13
42.900         7
42.910         0
42.920        20
42.930        13
42.940        20
42.950        27
42.960        47
42.970         7
42.980        13
42.990        33
43.000        33
43.010        33
43.020        40
43.030        47
43.040        27
43.050        20
43.060        20
43.070        47
43.080        13
43.090        40
43.100        33
43.110         7
43.120        20
43.130        27
43.140        40
43.150        20
43.160        33
43.170         7
43.180        27
43.190        20
43.200        33
43.210        33
43.220        40
43.230        20
43.240        20
43.250        13
43.260        27
43.270        13
43.280        13
43.290        60
43.300        47
43.310        27
43.320        40
43.330        27
43.340        20
43.350        53
43.360        40
43.370        53
43.380        53
43.390        80
43.400        93
43.410        87
43.420        40
43.430        47
43.440        40
43.450        40
43.460        53
43.470        40
43.480        60
43.490        40
43.500        73
43.510         7
43.520        53
43.530        53
43.540        40
43.550        20
43.560        20
43.570        33
43.580         7
43.590        27
43.600         0
43.610        20
43.620        40
43.630        13
43.640         7
43.650        20
43.660         7
43.670        27
43.680        27
43.690         0
43.700        33
43.710         0
43.720        20
43.730         7
43.740        33
43.750        20
43.760        13
43.770        13
43.780        27
43.790         7
43.800        20
43.810         7
43.820        33
43.830         7
43.840        13
43.850        47
43.860         7
43.870        20
43.880        20
43.890        20
43.900        53
43.910        20
43.920         7
43.930        20
43.940        20
43.950        20
43.960         7
43.970        13
43.980        33
43.990         7
44.000        33
44.010        20
44.020        20
44.030        40
44.040        27
44.050        13
44.060        33
44.070        13
44.080        27
44.090        20
44.100         0
44.110        20
44.120         7
44.130         7
44.140        20
44.150        20
44.160         0
44.170        13
44.180        33
44.190         0
44.200        20
44.210         7
44.220        20
44.230        53
44.240        20
44.250        47
44.260        20
44.270        27
44.280        13
44.290        20
44.300         7
44.310        27
44.320        13
44.330        33
44.340        13
44.350        20
44.360         0
44.370        20
44.380        13
44.390        33
44.400        33
44.410        27
44.420        27
44.430        13
44.440        40
44.450        20
44.460        33
44.470        13
44.480        33
44.490         7
44.500         7
44.510         7
44.520         7
44.530        27
44.540        20
44.550        53
44.560        20
44.570        33
44.580        20
44.590        13
44.600        27
44.610        13
44.620        27
44.630        20
44.640         7
44.650         7
44.660        27
44.670        27
44.680        20
44.690        27
44.700        40
44.710        47
44.720        20
44.730        27
44.740        33
44.750        13
44.760        13
44.770         0
44.780        13
44.790        27
44.800        20
44.810         0
44.820        27
44.830         0
44.840         7
44.850        13
44.860        40
44.870        47
44.880        20
44.890        47
44.900        27
44.910        33
44.920        40
44.930         0
44.940        20
44.950        33
44.960        20
44.970        20
44.980        40
44.990        33
45.000         7
45.010        53
45.020        60
45.030        40
45.040        20
45.050        20
45.060        13
45.070        13
45.080        40
45.090        20
45.100        33
45.110        20
45.120        20
45.130         7
45.140        33
45.150        27
45.160        27
45.170        13
45.180        47
45.190        13
45.200        20
45.210        13
45.220        20
45.230        20
45.240        20
45.250        27
45.260         7
45.270        13
45.280        13
45.290        33
45.300        27
45.310        13
45.320        20
45.330        20
45.340        20
45.350        27
45.360         7
45.370        27
45.380        27
45.390        13
45.400        13
45.410         0
45.420        40
45.430        33
45.440        13
45.450        27
45.460        27
45.470         7
45.480        27
45.490        27
45.500         7
45.510        20
45.520        13
45.530        13
45.540        27
45.550        20
45.560        27
45.570        13
45.580        27
45.590        13
45.600        20
45.610         7
45.620        33
45.630        13
45.640        33
45.650        20
45.660        13
45.670        47
45.680         7
45.690        13
45.700        47
45.710        27
45.720        13
45.730        20
45.740        20
45.750        27
45.760        27
45.770        13
45.780        27
45.790        20
45.800        27
45.810         7
45.820         7
45.830        20
45.840        27
45.850        20
45.860        20
45.870         7
45.880        27
45.890         7
45.900         7
45.910        27
45.920        20
45.930        40
45.940        20
45.950        13
45.960        33
45.970        27
45.980        13
45.990        13
46.000        13
46.010        13
46.020        13
46.030        20
46.040        13
46.050        27
46.060        20
46.070         7
46.080        33
46.090        13
46.100        13
46.110        27
46.120        20
46.130        20
46.140        27
46.150        27
46.160        13
46.170        13
46.180        13
46.190         7
46.200        33
46.210         0
46.220        40
46.230        33
46.240        20
46.250        53
46.260         0
46.270        13
46.280         7
46.290        13
46.300        20
46.310        20
46.320        13
46.330         7
46.340        27
46.350        27
46.360        33
46.370        13
46.380         7
46.390        13
46.400        20
46.410        27
46.420        20
46.430         0
46.440        40
46.450         7
46.460        40
46.470         7
46.480        20
46.490        20
46.500         7
46.510        20
46.520        13
46.530        33
46.540        27
46.550        33
46.560        20
46.570         7
46.580         7
46.590        13
46.600        20
46.610        20
46.620        27
46.630        33
46.640        40
46.650        27
46.660        27
46.670        13
46.680        33
46.690        13
46.700         7
46.710         0
46.720        27
46.730         0
46.740         0
46.750        33
46.760        20
46.770        27
46.780        13
46.790         7
46.800        20
46.810        33
46.820         0
46.830         7
46.840         7
46.850        27
46.860         7
46.870        47
46.880        33
46.890        20
46.900        40
46.910        20
46.920        27
46.930        13
46.940        33
46.950        33
46.960        13
46.970        13
46.980        20
46.990         7
47.000        20
47.010        13
47.020        13
47.030        13
47.040         7
47.050        13
47.060         0
47.070        20
47.080         7
47.090        47
47.100        33
47.110        13
47.120        27
47.130        13
47.140         7
47.150        13
47.160        53
47.170        27
47.180        33
47.190        33
47.200         7
47.210        20
47.220        33
47.230        27
47.240        20
47.250        33
47.260        13
47.270        20
47.280         7
47.290         7
47.300        20
47.310        13
47.320        27
47.330         7
47.340        27
47.350        13
47.360        27
47.370        27
47.380        27
47.390         0
47.400        20
47.410        13
47.420        20
47.430         7
47.440        53
47.450        20
47.460        27
47.470        27
47.480        27
47.490        33
47.500        13
47.510         7
47.520        13
47.530         7
47.540        13
47.550        13
47.560        13
47.570        33
47.580        20
47.590        13
47.600         7
47.610         7
47.620        40
47.630        13
47.640        33
47.650        20
47.660        20
47.670        13
47.680        13
47.690        13
47.700        33
47.710         7
47.720        13
47.730        13
47.740        27
47.750        20
47.760        27
47.770         7
47.780         7
47.790         7
47.800        27
47.810        20
47.820        13
47.830        40
47.840         7
47.850        13
47.860        27
47.870        13
47.880        20
47.890        13
47.900        27
47.910        27
47.920        20
47.930         7
47.940        20
47.950        27
47.960        27
47.970         7
47.980        13
47.990        13
48.000        13
48.010        33
48.020        27
48.030        27
48.040        27
48.050        40
48.060         0
48.070        27
48.080         7
48.090        27
48.100         7
48.110        27
48.120        13
48.130        20
48.140        27
48.150        13
48.160        20
48.170        27
48.180        20
48.190        13
48.200        13
48.210         7
48.220        33
48.230        13
48.240        27
48.250        33
48.260        13
48.270        13
48.280        13
48.290        40
48.300         0
48.310         7
48.320        27
48.330        13
48.340        27
48.350        13
48.360        47
48.370        27
48.380        33
48.390        13
48.400         7
48.410        20
48.420        13
48.430        47
48.440        27
48.450         0
48.460        13
48.470         7
48.480        47
48.490        20
48.500         7
48.510         7
48.520        13
48.530         7
48.540         7
48.550        27
48.560        27
48.570        27
48.580         7
48.590        40
48.600         7
48.610        13
48.620        13
48.630         7
48.640         7
48.650         0
48.660        13
48.670        20
48.680         0
48.690        20
48.700         7
48.710        27
48.720        27
48.730        20
48.740        20
48.750        13
48.760        13
48.770        20
48.780        13
48.790        27
48.800        13
48.810        20
48.820        27
48.830        20
48.840        13
48.850        13
48.860        20
48.870         7
48.880        13
48.890         0
48.900        40
48.910        13
48.920        27
48.930        13
48.940        13
48.950         0
48.960        13
48.970        20
48.980         0
48.990        20
49.000        20
49.010        40
49.020        33
49.030        13
49.040        27
49.050         7
49.060         7
49.070        33
49.080        13
49.090        27
49.100        33
49.110        20
49.120         7
49.130         7
49.140        47
49.150        33
49.160        27
49.170         7
49.180         7
49.190         7
49.200         7
49.210        13
49.220        20
49.230         7
49.240         7
49.250         7
49.260         7
49.270        27
49.280        13
49.290        20
49.300        13
49.310         7
49.320         0
49.330        20
49.340        20
49.350        27
49.360        13
49.370         7
49.380        20
49.390        47
49.400         7
49.410        20
49.420         7
49.430        13
49.440        53
49.450        20
49.460        27
49.470        13
49.480        20
49.490        27
49.500        13
49.510        20
49.520        13
49.530        40
49.540         7
49.550        20
49.560        47
49.570        27
49.580         7
49.590        13
49.600        13
49.610        40
49.620        13
49.630         7
49.640         0
49.650        27
49.660        13
49.670        20
49.680        20
49.690         7
49.700         7
49.710         0
49.720        27
49.730        27
49.740        13
49.750        20
49.760         7
49.770        20
49.780        47
49.790        13
49.800        27
49.810        27
49.820        13
49.830        13
49.840        20
49.850         7
49.860         0
49.870        20
49.880        20
49.890        20
49.900        20
49.910         0
49.920        27
49.930         0
49.940        33
49.950         7
49.960         7
49.970        33
49.980         0
49.990         7
50.000        13
50.010        13
50.020        20
50.030        13
50.040         0
50.050        20
50.060        20
50.070        13
50.080         7
50.090         7
50.100        13
50.110        20
50.120         0
50.130         7
50.140        13
50.150         0
50.160        33
50.170        20
50.180        27
50.190        20
50.200        20
50.210        33
50.220        13
50.230         0
50.240        20
50.250        27
50.260        20
50.270        20
50.280        20
50.290         7
50.300        13
50.310        13
50.320        47
50.330         7
50.340         0
50.350        27
50.360         0
50.370         7
50.380         7
50.390        13
50.400         7
50.410         7
50.420        20
50.430        27
50.440        13
50.450         7
50.460        20
50.470        27
50.480        13
50.490        13
50.500        33
50.510        20
50.520        13
50.530        13
50.540        20
50.550        13
50.560        20
50.570        13
50.580        33
50.590        20
50.600         7
50.610        13
50.620        20
50.630        13
50.640        13
50.650        27
50.660        20
50.670        33
50.680        13
50.690        33
50.700        27
50.710        13
50.720        40
50.730        27
50.740        27
50.750        13
50.760        20
50.770        20
50.780        20
50.790        20
50.800         7
50.810         7
50.820        33
50.830        13
50.840        33
50.850         0
50.860        20
50.870        27
50.880         0
50.890        13
50.900        20
50.910        33
50.920        27
50.930         7
50.940        13
50.950        13
50.960        33
50.970        33
50.980        20
50.990        13
51.000        33
51.010         0
51.020         0
51.030        20
51.040        47
51.050        13
51.060        20
51.070         0
51.080         0
51.090        20
51.100         0
51.110        27
51.120        13
51.130        33
51.140         7
51.150        27
51.160         7
51.170         7
51.180        27
51.190        40
51.200         7
51.210        13
51.220        20
51.230        27
51.240        13
51.250        13
51.260        13
51.270         7
51.280         7
51.290        20
51.300        20
51.310        20
51.320        27
51.330        33
51.340         0
51.350        27
51.360        13
51.370        27
51.380        20
51.390        33
51.400        13
51.410         7
51.420        20
51.430        27
51.440         7
51.450        27
51.460        40
51.470        13
51.480        13
51.490        20
51.500         0
51.510        20
51.520        13
51.530        27
51.540        27
51.550        20
51.560         7
51.570        13
51.580         0
51.590        33
51.600         7
51.610         7
51.620        13
51.630        20
51.640        13
51.650         7
51.660        13
51.670        20
51.680         7
51.690        13
51.700        13
51.710         7
51.720         7
51.730        40
51.740        20
51.750        33
51.760        20
51.770         0
51.780        27
51.790        20
51.800        20
51.810        20
51.820         7
51.830        27
51.840        27
51.850         0
51.860         0
51.870        20
51.880         0
51.890         7
51.900        13
51.910        13
51.920        27
51.930        13
51.940        13
51.950        13
51.960         7
51.970        13
51.980        20
51.990        20
52.000        20
52.010         7
52.020        47
52.030        27
52.040        13
52.050        13
52.060        13
52.070        20
52.080        13
52.090        27
52.100        20
52.110         7
52.120        27
52.130         7
52.140         7
52.150         7
52.160         0
52.170        40
52.180        20
52.190        27
52.200        27
52.210        33
52.220        40
52.230        27
52.240         7
52.250         7
52.260        27
52.270        27
52.280        40
52.290        13
52.300         0
52.310         7
52.320        33
52.330         0
52.340        47
52.350        20
52.360        20
52.370        20
52.380        27
52.390        27
52.400         0
52.410        13
52.420        27
52.430        13
52.440        13
52.450        27
52.460        13
52.470        33
52.480        47
52.490        33
52.500        33
52.510        27
52.520        33
52.530        13
52.540        33
52.550        20
52.560        27
52.570        33
52.580        40
52.590        33
52.600        20
52.610        20
52.620        40
52.630        20
52.640        13
52.650        20
52.660        13
52.670        13
52.680        27
52.690        27
52.700        20
52.710        27
52.720        13
52.730        40
52.740        33
52.750        33
52.760        20
52.770        27
52.780        20
52.790        13
52.800        13
52.810         7
52.820        13
52.830         7
52.840        13
52.850        27
52.860        13
52.870        20
52.880        20
52.890         7
52.900        13
52.910        20
52.920         7
52.930        33
52.940         7
52.950        20
52.960        13
52.970        27
52.980        13
52.990         7
53.000         0
53.010         7
53.020         7
53.030         0
53.040         0
53.050         7
53.060        27
53.070        20
53.080         7
53.090         7
53.100        20
53.110        13
53.120         7
53.130        13
53.140        27
53.150        20
53.160        13
53.170        33
53.180        27
53.190        20
53.200        40
53.210         7
53.220         7
53.230         0
53.240         7
53.250        27
53.260        20
53.270         0
53.280        27
53.290        13
53.300        20
53.310         0
53.320         7
53.330         7
53.340        27
53.350        13
53.360        27
53.370         0
53.380        27
53.390         7
53.400        13
53.410        13
53.420        20
53.430        13
53.440        13
53.450        33
53.460        20
53.470         7
53.480         0
53.490        20
53.500        13
53.510        20
53.520         0
53.530        13
53.540        27
53.550        20
53.560         7
53.570        13
53.580        13
53.590        47
53.600         7
53.610         7
53.620        27
53.630        13
53.640        20
53.650        27
53.660         0
53.670        20
53.680        33
53.690         7
53.700        13
53.710        13
53.720         7
53.730        20
53.740        47
53.750        20
53.760        20
53.770         7
53.780        13
53.790        20
53.800        20
53.810        13
53.820        13
53.830         7
53.840         7
53.850        13
53.860        13
53.870        13
53.880        33
53.890        20
53.900        20
53.910         0
53.920         7
53.930        33
53.940        13
53.950         0
53.960         7
53.970        20
53.980        13
53.990        13
54.000        20
54.010         7
54.020        13
54.030        13
54.040        20
54.050         7
54.060        20
54.070        27
54.080        13
54.090         0
54.100        27
54.110         7
54.120         0
54.130        13
54.140         0
54.150         7
54.160        20
54.170        13
54.180         0
54.190        20
54.200        33
54.210        13
54.220        20
54.230         7
54.240        20
54.250        40
54.260         7
54.270         0
54.280        27
54.290        47
54.300        20
54.310         7
54.320         0
54.330        13
54.340        33
54.350        33
54.360        20
54.370         0
54.380        13
54.390         0
54.400        13
54.410        20
54.420        13
54.430        27
54.440        40
54.450        13
54.460        27
54.470        27
54.480        27
54.490        13
54.500         7
54.510         7
54.520        13
54.530        20
54.540        13
54.550        20
54.560         7
54.570        20
54.580         7
54.590        20
54.600         7
54.610        20
54.620        27
54.630        33
54.640         7
54.650        13
54.660         0
54.670        27
54.680        20
54.690         7
54.700        27
54.710         7
54.720        13
54.730        13
54.740        20
54.750         7
54.760        13
54.770        20
54.780        13
54.790        13
54.800        13
54.810        20
54.820        27
54.830        27
54.840        20
54.850        13
54.860         0
54.870        27
54.880        40
54.890        27
54.900        40
54.910        33
54.920        20
54.930        20
54.940         7
54.950        27
54.960        13
54.970        13
54.980        20
54.990        13
55.000        27
55.010         0
55.020        13
55.030        33
55.040        27
55.050        13
55.060        13
55.070        13
55.080        20
55.090        13
55.100        27
55.110        40
55.120        13
55.130        27
55.140        13
55.150        20
55.160        40
55.170        27
55.180         7
55.190        27
55.200        47
55.210        33
55.220        27
55.230        13
55.240        13
55.250         7
55.260        13
55.270        27
55.280        80
55.290        27
55.300        20
55.310        33
55.320         7
55.330         7
55.340        20
55.350        27
55.360        53
55.370        20
55.380        33
55.390        13
55.400        20
55.410        33
55.420        20
55.430        40
55.440        47
55.450        20
55.460        27
55.470        73
55.480        40
55.490        27
55.500        47
55.510        47
55.520        13
55.530        60
55.540        40
55.550        20
55.560        73
55.570        67
55.580        67
55.590        87
55.600        93
55.610        93
55.620        53
55.630        60
55.640        60
55.650        33
55.660        53
55.670        67
55.680        93
55.690       100
55.700        53
55.710       140
55.720       100
55.730        40
55.740        73
55.750        73
55.760        93
55.770       113
55.780        73
55.790       127
55.800       133
55.810        53
55.820        60
55.830        93
55.840        93
55.850       107
55.860        53
55.870       100
55.880        67
55.890        93
55.900       120
55.910        73
55.920        60
55.930        67
55.940        80
55.950        73
55.960        47
55.970        40
55.980        40
55.990        60
56.000         7
56.010        53
56.020        40
56.030        27
56.040        47
56.050        27
56.060        13
56.070        53
56.080        53
56.090         7
56.100        13
56.110        27
56.120        13
56.130        33
56.140        47
56.150        47
56.160         7
56.170        33
56.180        33
56.190        40
56.200        33
56.210        13
56.220        27
56.230        20
56.240        13
56.250         7
56.260        13
56.270        20
56.280        40
56.290        20
56.300        20
56.310         7
56.320        13
56.330        20
56.340        20
56.350        20
56.360        13
56.370         7
56.380        13
56.390         7
56.400        20
56.410        47
56.420        20
56.430        13
56.440        47
56.450        20
56.460        13
56.470        20
56.480         7
56.490         7
56.500        40
56.510        27
56.520         7
56.530        27
56.540         7
56.550        27
56.560        27
56.570        20
56.580        27
56.590         7
56.600         7
56.610        13
56.620         7
56.630        13
56.640        27
56.650        13
56.660        27
56.670        27
56.680        20
56.690         7
56.700        20
56.710        33
56.720        13
56.730        33
56.740        20
56.750         7
56.760         7
56.770        20
56.780        13
56.790         7
56.800         7
56.810        33
56.820        27
56.830        20
56.840         0
56.850         7
56.860        20
56.870        20
56.880         0
56.890         7
56.900        13
56.910        27
56.920        13
56.930        13
56.940        40
56.950        27
56.960         0
56.970        33
56.980        20
56.990        20
57.000        27
57.010        13
57.020        20
57.030        33
57.040         7
57.050         7
57.060         7
57.070        20
57.080        27
57.090         7
57.100         7
57.110        27
57.120        20
57.130        13
57.140        20
57.150         7
57.160         0
57.170        20
57.180        20
57.190        13
57.200        20
57.210        13
57.220         0
57.230         0
57.240        20
57.250        20
57.260        20
57.270         7
57.280         7
57.290        13
57.300        27
57.310         7
57.320        20
57.330         7
57.340        13
57.350        20
57.360         0
57.370        20
57.380        20
57.390        60
57.400        40
57.410        33
57.420        73
57.430        13
57.440        20
57.450        60
57.460        33
57.470       100
57.480        87
57.490       113
57.500       140
57.510       147
57.520       120
57.530       133
57.540       127
57.550       147
57.560        80
57.570        60
57.580        47
57.590        47
57.600        33
57.610        33
57.620        73
57.630        40
57.640       107
57.650        73
57.660        27
57.670       107
57.680        80
57.690        60
57.700        80
57.710        73
57.720        73
57.730        33
57.740        20
57.750        13
57.760        13
57.770        33
57.780        20
57.790         7
57.800        20
57.810        27
57.820        13
57.830        13
57.840        27
57.850        13
57.860         7
57.870        27
57.880        27
57.890        40
57.900        20
57.910        27
57.920        13
57.930         7
57.940        27
57.950        27
57.960        13
57.970        33
57.980        27
57.990         7
58.000        20
58.010         0
58.020         7
58.030        13
58.040        13
58.050         7
58.060         0
58.070         0
58.080        13
58.090         7
58.100         7
58.110        13
58.120        27
58.130        13
58.140        40
58.150        27
58.160        27
58.170        27
58.180        20
58.190         7
58.200        13
58.210        20
58.220        27
58.230        20
58.240         7
58.250        27
58.260        47
58.270         0
58.280        13
58.290        27
58.300        40
58.310        40
58.320        27
58.330        27
58.340        13
58.350        13
58.360        27
58.370        13
58.380        13
58.390         0
58.400        27
58.410        13
58.420        13
58.430        20
58.440        33
58.450        27
58.460        20
58.470        13
58.480        33
58.490        33
58.500         0
58.510        13
58.520        27
58.530        27
58.540         7
58.550        20
58.560        13
58.570         7
58.580         0
58.590         7
58.600        20
58.610        20
58.620         7
58.630        20
58.640        27
58.650        27
58.660         7
58.670        13
58.680         0
58.690        20
58.700        20
58.710        20
58.720         7
58.730        20
58.740         7
58.750         7
58.760        13
58.770         7
58.780        13
58.790        13
58.800        20
58.810        20
58.820        33
58.830         0
58.840        27
58.850        20
58.860         7
58.870        13
58.880        27
58.890        20
58.900        20
58.910        20
58.920         7
58.930        27
58.940        13
58.950        13
58.960         7
58.970        13
58.980        20
58.990         0
59.000        20
59.010        13
59.020         7
59.030         0
59.040         7
59.050         7
59.060        13
59.070         7
59.080        27
59.090         0
59.100         0
59.110        13
59.120        27
59.130         7
59.140         0
59.150         7
59.160         0
59.170        27
59.180        40
59.190         0
59.200        13
59.210        20
59.220         7
59.230         0
59.240         7
59.250         7
59.260        13
59.270        20
59.280        40
59.290        13
59.300        13
59.310        27
59.320        20
59.330        20
59.340        33
59.350        13
59.360         7
59.370        13
59.380        27
59.390         7
59.400        27
59.410         7
59.420        33
59.430        13
59.440        13
59.450         7
59.460         7
59.470        13
59.480         7
59.490        13
59.500        13
59.510         7
59.520         0
59.530         0
59.540         0
59.550         7
59.560         7
59.570        20
59.580        33
59.590        13
59.600        13
59.610        20
59.620         0
59.630        13
59.640        20
59.650        13
59.660        20
59.670        27
59.680        20
59.690        20
59.700        20
59.710        27
59.720         7
59.730        27
59.740         0
59.750        33
59.760        27
59.770        20
59.780        13
59.790         7
59.800         7
59.810        20
59.820        20
59.830        20
59.840        13
59.850        20
59.860        13
59.870         7
59.880         7
59.890        13
59.900        13
59.910        13
59.920        20
59.930         0
59.940        33
59.950         7
59.960        40
59.970         7
59.980        20
59.990        20
60.000        40
