20.000        73
20.010        40
20.020        53
20.030        67
20.040        33
20.050        40
20.060        47
20.070        33
20.080        40
20.090        27
20.100        40
20.110        40
20.120        67
20.130         7
20.140        27
20.150        20
20.160        33
20.170        33
20.180        27
20.190        40
20.200        60
20.210        40
20.220        33
20.230        93
20.240        53
20.250        53
20.260        60
20.270        40
20.280        53
20.290        53
20.300        53
20.310        40
20.320        20
20.330        27
20.340        27
20.350        73
20.360        33
20.370        47
20.380        27
20.390        33
20.400        73
20.410        73
20.420        53
20.430        27
20.440        40
20.450        47
20.460        33
20.470        40
20.480        47
20.490        67
20.500        40
20.510        20
20.520        53
20.530        60
20.540        60
20.550        40
20.560        47
20.570       100
20.580        47
20.590        60
20.600        33
20.610        20
20.620        53
20.630        33
20.640        27
20.650        27
20.660        20
20.670        53
20.680        47
20.690        47
20.700        60
20.710        20
20.720        53
20.730        27
20.740        47
20.750        47
20.760        67
20.770        53
20.780        13
20.790        33
20.800        33
20.810        33
20.820        40
20.830        33
20.840        20
20.850        20
20.860        33
20.870        40
20.880        33
20.890        40
20.900        20
20.910        53
20.920        33
20.930        80
20.940        27
20.950        33
20.960        20
20.970        33
20.980        53
20.990        47
21.000        33
21.010        33
21.020        20
21.030        47
21.040        47
21.050        13
21.060        20
21.070        33
21.080        27
21.090        40
21.100        73
21.110        40
21.120        27
21.130        53
21.140        13
21.150        40
21.160        53
21.170        53
21.180        33
21.190        40
21.200        40
21.210        47
21.220        27
21.230        67
21.240        20
21.250        53
21.260        53
21.270        33
21.280        53
21.290        40
21.300        33
21.310        40
21.320        40
21.330        67
21.340        33
21.350        60
21.360        40
21.370        47
21.380        33
21.390        53
21.400        13
21.410        40
21.420        20
21.430        20
21.440        33
21.450        33
21.460        47
21.470        40
21.480        53
21.490        60
21.500        27
21.510        40
21.520        40
21.530        40
21.540        47
21.550        27
21.560        40
21.570        53
21.580        47
21.590        33
21.600        13
21.610        47
21.620        60
21.630        47
21.640        27
21.650        67
21.660        27
21.670        13
21.680        27
21.690        13
21.700        47
21.710         7
21.720        73
21.730        40
21.740        27
21.750        47
21.760        20
21.770        27
21.780        27
21.790        60
21.800        67
21.810        33
21.820        53
21.830        40
21.840        73
21.850        60
21.860        73
21.870        80
21.880        47
21.890        80
21.900        73
21.910        60
21.920        47
21.930        80
21.940        87
21.950        53
21.960        40
21.970        47
21.980        40
21.990        40
22.000        33
22.010        47
22.020        27
22.030        47
22.040        47
22.050        80
22.060        87
22.070        47
22.080        53
22.090         7
22.100        53
22.110        27
22.120        53
22.130        47
22.140        53
22.150        27
22.160        27
22.170        33
22.180        47
22.190        60
22.200        33
22.210        27
22.220        33
22.230        47
22.240        40
22.250        27
22.260        47
22.270        47
22.280        53
22.290        33
22.300        20
22.310        27
22.320        20
22.330        33
22.340        40
22.350        40
22.360        33
22.370        33
22.380        40
22.390        33
22.400        27
22.410        20
22.420        20
22.430        33
22.440        60
22.450        40
22.460        47
22.470        47
22.480        20
22.490        40
22.500        20
22.510        47
22.520        20
22.530        53
22.540        27
22.550        27
22.560        53
22.570        40
22.580        40
22.590        27
22.600        27
22.610        40
22.620        47
22.630        20
22.640        53
22.650        33
22.660        20
22.670        20
22.680        33
22.690        47
22.700        20
22.710        47
22.720        13
22.730        53
22.740        33
22.750        13
22.760        27
22.770        47
22.780        20
22.790        47
22.800        20
22.810        33
22.820        27
22.830        20
22.840        60
22.850        47
22.860        67
22.870        33
22.880        33
22.890        13
22.900        40
22.910        40
22.920        53
22.930        20
22.940        60
22.950        67
22.960        20
22.970        53
22.980        47
22.990        33
23.000        33
23.010        27
23.020        27
23.030        33
23.040        47
23.050        47
23.060        33
23.070        33
23.080        40
23.090        33
23.100        27
23.110        33
23.120        40
23.130        40
23.140        33
23.150        13
23.160        27
23.170        47
23.180        20
23.190        20
23.200        20
23.210        53
23.220        13
23.230        40
23.240        47
23.250        40
23.260        13
23.270        27
23.280        27
23.290        27
23.300        27
23.310        20
23.320        67
23.330        40
23.340        33
23.350        47
23.360        27
23.370        47
23.380        13
23.390        27
23.400        27
23.410        33
23.420        27
23.430        33
23.440        53
23.450        20
23.460        20
23.470        53
23.480        20
23.490        33
23.500        33
23.510        27
23.520        33
23.530        33
23.540        13
23.550        33
23.560        53
23.570        33
23.580        40
23.590        33
23.600        13
23.610        47
23.620        47
23.630        40
23.640        20
23.650        53
23.660        27
23.670        20
23.680        20
23.690        33
23.700        40
23.710        73
23.720        20
23.730        33
23.740        33
23.750        60
23.760        47
23.770        20
23.780        47
23.790        40
23.800        53
23.810        47
23.820        33
23.830        20
23.840        73
23.850        20
23.860        47
23.870        33
23.880        20
23.890        33
23.900         7
23.910        20
23.920        40
23.930        40
23.940        20
23.950        27
23.960        33
23.970        40
23.980        20
23.990        47
24.000        73
24.010        27
24.020        27
24.030        53
24.040        27
24.050        60
24.060        27
24.070        33
24.080        40
24.090        20
24.100        40
24.110        33
24.120        47
24.130        40
24.140        33
24.150        47
24.160        53
24.170        20
24.180        13
24.190        33
24.200        40
24.210        27
24.220        27
24.230        27
24.240        33
24.250        33
24.260        40
24.270        53
24.280        27
24.290        20
24.300        33
24.310        33
24.320        20
24.330        27
24.340        53
24.350        13
24.360        27
24.370        47
24.380        33
24.390         7
24.400        20
24.410        53
24.420        53
24.430        20
24.440        53
24.450        60
24.460        40
24.470        20
24.480        60
24.490        27
24.500        40
24.510        33
24.520        27
24.530        33
24.540        40
24.550        20
24.560        53
24.570        47
24.580        33
24.590        20
24.600        53
24.610        20
24.620        13
24.630        60
24.640        27
24.650        27
24.660        47
24.670        20
24.680        20
24.690        40
24.700        47
24.710        27
24.720        33
24.730        40
24.740        33
24.750         7
24.760        13
24.770        33
24.780        13
24.790        27
24.800         7
24.810        40
24.820        20
24.830        13
24.840        47
24.850        47
24.860        20
24.870        27
24.880        40
24.890         0
24.900        40
24.910        27
24.920        27
24.930        27
24.940        20
24.950        40
24.960        20
24.970        20
24.980        40
24.990        53
25.000        33
25.010        33
25.020         7
25.030        80
25.040        13
25.050         7
25.060        53
25.070        33
25.080        40
25.090        40
25.100        33
25.110        33
25.120        53
25.130        40
25.140        33
25.150        13
25.160        53
25.170        27
25.180        20
25.190        60
25.200         7
25.210        40
25.220        20
25.230        47
25.240        20
25.250        53
25.260        13
25.270        27
25.280        40
25.290        27
25.300        20
25.310        60
25.320        13
25.330        13
25.340        33
25.350        13
25.360        20
25.370        33
25.380        40
25.390        33
25.400        67
25.410        27
25.420        33
25.430        47
25.440        47
25.450        27
25.460        13
25.470        40
25.480        27
25.490        27
25.500        33
25.510        33
25.520        27
25.530        60
25.540        20
25.550        53
25.560        60
25.570         7
25.580        40
25.590         7
25.600        13
25.610        13
25.620        33
25.630        33
25.640        20
25.650         7
25.660        47
25.670        33
25.680         0
25.690        53
25.700        40
25.710        53
25.720        27
25.730        33
25.740        27
25.750        20
25.760        47
25.770        13
25.780        27
25.790        60
25.800        27
25.810        27
25.820        20
25.830        40
25.840        13
25.850        27
25.860        47
25.870        20
25.880        33
25.890        67
25.900        47
25.910        13
25.920        27
25.930        33
25.940        27
25.950        53
25.960        20
25.970        27
25.980        20
25.990        27
26.000        13
26.010        27
26.020        47
26.030        27
26.040        33
26.050        47
26.060         0
26.070         0
26.080        40
26.090        33
26.100        40
26.110        27
26.120        47
26.130        40
26.140        20
26.150        27
26.160        27
26.170        40
26.180        33
26.190        33
26.200        20
26.210        40
26.220        33
26.230        20
26.240        33
26.250        33
26.260        27
26.270        33
26.280         7
26.290        47
26.300        13
26.310        13
26.320        33
26.330        33
26.340        27
26.350        13
26.360        53
26.370        33
26.380        40
26.390        20
26.400        27
26.410        33
26.420        27
26.430        33
26.440        13
26.450        20
26.460        47
26.470        47
26.480        33
26.490        13
26.500        40
26.510        33
26.520         7
26.530        40
26.540        20
26.550        20
26.560        27
26.570        27
26.580        27
26.590        47
26.600        13
26.610        33
26.620        27
26.630        20
26.640        13
26.650        20
26.660        27
26.670         0
26.680        13
26.690        33
26.700        33
26.710        53
26.720        20
26.730        13
26.740        60
26.750        47
26.760        47
26.770         0
26.780        33
26.790        47
26.800        20
26.810        40
26.820        33
26.830         7
26.840        27
26.850        40
26.860        27
26.870        20
26.880        47
26.890        27
26.900        13
26.910        27
26.920        47
26.930        27
26.940        13
26.950         7
26.960        53
26.970        20
26.980        20
26.990        20
27.000        20
27.010        20
27.020        13
27.030        27
27.040        20
27.050        13
27.060        33
27.070        27
27.080        53
27.090         7
27.100        20
27.110        27
27.120        33
27.130        40
27.140         0
27.150        20
27.160        20
27.170        20
27.180        27
27.190        13
27.200         7
27.210         0
27.220        27
27.230         0
27.240        33
27.250        20
27.260        53
27.270        20
27.280        27
27.290        27
27.300        33
27.310        47
27.320        67
27.330        40
27.340        33
27.350         7
27.360        27
27.370         7
27.380        33
27.390        13
27.400        20
27.410        13
27.420        20
27.430        27
27.440        20
27.450        27
27.460        47
27.470        33
27.480        33
27.490        40
27.500        33
27.510        27
27.520        20
27.530        53
27.540        40
27.550         7
27.560        53
27.570        33
27.580        40
27.590        33
27.600        53
27.610        67
27.620        13
27.630        40
27.640        47
27.650        27
27.660        40
27.670        40
27.680        27
27.690        20
27.700         0
27.710        47
27.720        13
27.730        60
27.740        20
27.750        33
27.760        27
27.770        20
27.780        20
27.790        27
27.800         7
27.810        60
27.820        20
27.830        47
27.840        20
27.850        20
27.860        40
27.870        40
27.880        27
27.890        47
27.900        40
27.910        40
27.920        20
27.930        27
27.940        60
27.950        33
27.960        40
27.970        47
27.980        27
27.990        33
28.000        27
28.010        33
28.020        47
28.030        27
28.040        27
28.050        80
28.060        67
28.070        67
28.080        67
28.090        60
28.100        73
28.110        40
28.120        80
28.130        53
28.140        27
28.150        53
28.160        20
28.170        27
28.180        33
28.190        40
28.200         7
28.210        33
28.220        40
28.230        27
28.240        60
28.250        33
28.260        27
28.270        47
28.280        40
28.290        40
28.300        33
28.310        13
28.320        40
28.330        27
28.340        40
28.350        33
28.360        33
28.370         7
28.380        40
28.390        27
28.400        33
28.410        27
28.420        20
28.430        33
28.440        33
28.450        13
28.460        33
28.470        27
28.480        27
28.490        27
28.500        27
28.510        13
28.520        20
28.530        40
28.540        27
28.550        20
28.560        33
28.570        40
28.580        40
28.590        27
28.600        40
28.610        13
28.620        20
28.630        20
28.640        27
28.650        27
28.660        20
28.670        33
28.680        27
28.690        33
28.700         7
28.710        13
28.720         0
28.730        13
28.740        13
28.750        20
28.760         0
28.770        27
28.780        13
28.790        27
28.800        33
28.810        33
28.820        27
28.830        40
28.840        40
28.850        27
28.860         7
28.870        27
28.880        60
28.890        13
28.900        20
28.910        33
28.920        13
28.930        33
28.940         0
28.950        27
28.960        33
28.970        33
28.980        53
28.990        13
29.000        33
29.010        13
29.020        27
29.030        27
29.040         7
29.050        33
29.060        27
29.070        13
29.080        27
29.090        33
29.100         7
29.110        20
29.120         7
29.130        60
29.140        53
29.150        47
29.160        60
29.170        53
29.180        33
29.190        40
29.200        40
29.210        40
29.220        27
29.230        27
29.240        47
29.250        40
29.260        13
29.270        27
29.280        20
29.290        27
29.300        27
29.310        20
29.320        47
29.330        40
29.340        27
29.350        27
29.360        40
29.370         7
29.380        13
29.390        27
29.400        20
29.410        33
29.420        13
29.430        33
29.440        20
29.450        33
29.460        47
29.470        47
29.480        40
29.490         7
29.500        20
29.510        27
29.520        13
29.530         0
29.540        33
29.550        27
29.560        33
29.570        40
29.580        33
29.590        27
29.600        13
29.610        60
29.620        20
29.630        20
29.640        33
29.650        20
29.660        13
29.670         7
29.680        33
29.690        33
29.700        27
29.710         7
29.720        20
29.730        27
29.740        13
29.750        47
29.760        20
29.770         7
29.780        33
29.790        27
29.800        53
29.810        27
29.820        40
29.830        53
29.840        13
29.850        40
29.860        33
29.870        20
29.880        27
29.890        33
29.900        60
29.910        47
29.920        33
29.930        27
29.940        20
29.950        87
29.960        13
29.970        13
29.980        20
29.990        27
30.000        47
30.010        13
30.020         7
30.030        20
30.040        27
30.050         7
30.060        40
30.070        80
30.080        40
30.090        67
30.100        33
30.110        47
30.120        53
30.130        20
30.140        87
30.150        87
30.160        47
30.170        20
30.180        13
30.190        73
30.200        60
30.210        53
30.220        47
30.230        53
30.240        67
30.250        60
30.260        87
30.270        27
30.280        33
30.290        73
30.300        47
30.310        40
30.320        27
30.330        40
30.340        20
30.350        53
30.360        20
30.370        53
30.380        60
30.390        53
30.400        73
30.410        67
30.420        47
30.430        47
30.440        47
30.450        40
30.460        73
30.470        60
30.480        53
30.490        67
30.500        53
30.510        40
30.520        47
30.530        67
30.540        47
30.550        60
30.560        93
30.570        67
30.580        20
30.590        53
30.600        73
30.610        67
30.620        33
30.630        67
30.640        60
30.650        80
30.660        73
30.670        13
30.680        73
30.690        60
30.700        80
30.710        47
30.720        60
30.730        80
30.740       107
30.750        80
30.760        80
30.770        87
30.780        87
30.790        80
30.800       113
30.810        80
30.820       120
30.830       140
30.840       120
30.850       180
30.860        80
30.870       193
30.880       253
30.890       220
30.900       220
30.910       240
30.920       293
30.930       387
30.940       393
30.950       353
30.960       540
30.970       546
30.980       506
30.990       833
31.000       926
31.010       986
31.020      1220
31.030      1086
31.040      1593
31.050      1526
31.060      1879
31.070      1946
31.080      2459
31.090      2859
31.100      2979
31.110      3292
31.120      3612
31.130      4678
31.140      4125
31.150      4232
31.160      4485
31.170      4745
31.180      4545
31.190      4651
31.200      4145
31.210      4212
31.220      4238
31.230      4145
31.240      3639
31.250      3439
31.260      3372
31.270      2806
31.280      2559
31.290      2246
31.300      1979
31.310      1786
31.320      1759
31.330      1313
31.340      1153
31.350       993
31.360       873
31.370       793
31.380       666
31.390       533
31.400       506
31.410       440
31.420       440
31.430       353
31.440       260
31.450       380
31.460       293
31.470       200
31.480       180
31.490       193
31.500       160
31.510       147
31.520       140
31.530       147
31.540       127
31.550        87
31.560       153
31.570       100
31.580       167
31.590       127
31.600       200
31.610       113
31.620       140
31.630        93
31.640       107
31.650        53
31.660       127
31.670       100
31.680       127
31.690        93
31.700       100
31.710       120
31.720        67
31.730        73
31.740        60
31.750        93
31.760        67
31.770        53
31.780        80
31.790        73
31.800        40
31.810        73
31.820        40
31.830       107
31.840        67
31.850        60
31.860       120
31.870        73
31.880       100
31.890        67
31.900        73
31.910        87
31.920        40
31.930        27
31.940        47
31.950        67
31.960        33
31.970        60
31.980        80
31.990        53
32.000        53
32.010        73
32.020        60
32.030        60
32.040        60
32.050        67
32.060        53
32.070        20
32.080        60
32.090        73
32.100        60
32.110        80
32.120        47
32.130        47
32.140        20
32.150        33
32.160        40
32.170        67
32.180        67
32.190        33
32.200        53
32.210        40
32.220        73
32.230        60
32.240        67
32.250        40
32.260        80
32.270        40
32.280        40
32.290        40
32.300        67
32.310        27
32.320        47
32.330        53
32.340        33
32.350        47
32.360        47
32.370        53
32.380        20
32.390        67
32.400        40
32.410        13
32.420        27
32.430        33
32.440        27
32.450        33
32.460        33
32.470        73
32.480        60
32.490         7
32.500        40
32.510        47
32.520        60
32.530        60
32.540        40
32.550         7
32.560        40
32.570        33
32.580        27
32.590        47
32.600        40
32.610        47
32.620        67
32.630        33
32.640        27
32.650        40
32.660        47
32.670        27
32.680        13
32.690        40
32.700        53
32.710        27
32.720        40
32.730        53
32.740        20
32.750        47
32.760        33
32.770        13
32.780        40
32.790        47
32.800        47
32.810        40
32.820        73
32.830        33
32.840        47
32.850        33
32.860        20
32.870        13
32.880        47
32.890        40
32.900        33
32.910        40
32.920        40
32.930        20
32.940        40
32.950        47
32.960        60
32.970        33
32.980        53
32.990        33
33.000        33
33.010        27
33.020        20
33.030        40
33.040        40
33.050        27
33.060        27
33.070         0
33.080        13
33.090        67
33.100        40
33.110        27
33.120        20
33.130        27
33.140        47
33.150        27
33.160        40
33.170        20
33.180        13
33.190        80
33.200        27
33.210        27
33.220        27
33.230        33
33.240        27
33.250        53
33.260        27
33.270        27
33.280         7
33.290        33
33.300        47
33.310        40
33.320        40
33.330         7
33.340        73
33.350        27
33.360         7
33.370        40
33.380        13
33.390        20
33.400         7
33.410        40
33.420        33
33.430        27
33.440        27
33.450        60
33.460        40
33.470        27
33.480        53
33.490        20
33.500        33
33.510        47
33.520         7
33.530        27
33.540        13
33.550        27
33.560        33
33.570        53
33.580        47
33.590        27
33.600         7
33.610        40
33.620        27
33.630        27
33.640        33
33.650        20
33.660        33
33.670        40
33.680        47
33.690        27
33.700        47
33.710        33
33.720        13
33.730        33
33.740        60
33.750        13
33.760        40
33.770         7
33.780        27
33.790        27
33.800        47
33.810        40
33.820        40
33.830        53
33.840         7
33.850        13
33.860        27
33.870        20
33.880        27
33.890        40
33.900        40
33.910        73
33.920        33
33.930        33
33.940        53
33.950        27
33.960        60
33.970        13
33.980        33
33.990        53
34.000        60
34.010        27
34.020        27
34.030        40
34.040        20
34.050        33
34.060        13
34.070        40
34.080        33
34.090        13
34.100        27
34.110        33
34.120        40
34.130        27
34.140        33
34.150        47
34.160        40
34.170        20
34.180        27
34.190        27
34.200        40
34.210        47
34.220        20
34.230        20
34.240         0
34.250        27
34.260        40
34.270        20
34.280        40
34.290        33
34.300        27
34.310        13
34.320        13
34.330        13
34.340        27
34.350        20
34.360        47
34.370        27
34.380        40
34.390        33
34.400        47
34.410        47
34.420        60
34.430        33
34.440        53
34.450         7
34.460        47
34.470        33
34.480        60
34.490        20
34.500        40
34.510        47
34.520        27
34.530        40
34.540        40
34.550        13
34.560        40
34.570        13
34.580        27
34.590        60
34.600        33
34.610        20
34.620        33
34.630        13
34.640        53
34.650        40
34.660        13
34.670        27
34.680        13
34.690         7
34.700        27
34.710        20
34.720        13
34.730        20
34.740        40
34.750        20
34.760        40
34.770        40
34.780        33
34.790        27
34.800        40
34.810         7
34.820        27
34.830        13
34.840        40
34.850        33
34.860        27
34.870        13
34.880        20
34.890        53
34.900        27
34.910        20
34.920         7
34.930        27
34.940        20
34.950        27
34.960        27
34.970        20
34.980        47
34.990        27
35.000        53
35.010        33
35.020        40
35.030        47
35.040        53
35.050        67
35.060        47
35.070        33
35.080        73
35.090        67
35.100        93
35.110        87
35.120       133
35.130        80
35.140       107
35.150        47
35.160        87
35.170        60
35.180        73
35.190        47
35.200        40
35.210        80
35.220        40
35.230        80
35.240        47
35.250        27
35.260        60
35.270        27
35.280        13
35.290        20
35.300        27
35.310        47
35.320        33
35.330        40
35.340        20
35.350         0
35.360        47
35.370        40
35.380        33
35.390        47
35.400        40
35.410        40
35.420        47
35.430        27
35.440        20
35.450        27
35.460        20
35.470        13
35.480        53
35.490        27
35.500        20
35.510        13
35.520        13
35.530         7
35.540        13
35.550        20
35.560        67
35.570        13
35.580        27
35.590        33
35.600        40
35.610        13
35.620         7
35.630        47
35.640        40
35.650        27
35.660        20
35.670         0
35.680        33
35.690        33
35.700        40
35.710         7
35.720         0
35.730        20
35.740        27
35.750        40
35.760        33
35.770         7
35.780        13
35.790        27
35.800        20
35.810        27
35.820        13
35.830        13
35.840        20
35.850        20
35.860        27
35.870        33
35.880        33
35.890        33
35.900        27
35.910        27
35.920         7
35.930        27
35.940        13
35.950        27
35.960         0
35.970        40
35.980        27
35.990        27
36.000        20
36.010        13
36.020        33
36.030        20
36.040        20
36.050         7
36.060        40
36.070        13
36.080        13
36.090        33
36.100        33
36.110         0
36.120        47
36.130        20
36.140        27
36.150        47
36.160        27
36.170        27
36.180        40
36.190        47
36.200        13
36.210        27
36.220         0
36.230        20
36.240        27
36.250        40
36.260         7
36.270        13
36.280        40
36.290        13
36.300        33
36.310        33
36.320        47
36.330        27
36.340        20
36.350        13
36.360        33
36.370        20
36.380        33
36.390        27
36.400        27
36.410        33
36.420        40
36.430        20
36.440        20
36.450        47
36.460         7
36.470        33
36.480        13
36.490        40
36.500        20
36.510        13
36.520        33
36.530        13
36.540        13
36.550        13
36.560        27
36.570         7
36.580        27
36.590        33
36.600        20
36.610        27
36.620        20
36.630        27
36.640        33
36.650        13
36.660        13
36.670        40
36.680        20
36.690        20
36.700        47
36.710         7
36.720         7
36.730        60
36.740        33
36.750         0
36.760        13
36.770        47
36.780        20
36.790        20
36.800        13
36.810        13
36.820        33
36.830        20
36.840        40
36.850        27
36.860        27
36.870        13
36.880        13
36.890        20
36.900         7
36.910        20
36.920        33
36.930        27
36.940        33
36.950        33
36.960        40
36.970        53
36.980         0
36.990        33
37.000        20
37.010        40
37.020        13
37.030        13
37.040        13
37.050        40
37.060        47
37.070        33
37.080        27
37.090        27
37.100        53
37.110        40
37.120        40
37.130         7
37.140        13
37.150         7
37.160        13
37.170        20
37.180        13
37.190        20
37.200        13
37.210         0
37.220        33
37.230         7
37.240         7
37.250        13
37.260        33
37.270        47
37.280        13
37.290        33
37.300        13
37.310        20
37.320         7
37.330        40
37.340        20
37.350        20
37.360        40
37.370        13
37.380        33
37.390        20
37.400        53
37.410        20
37.420        20
37.430        13
37.440        13
37.450        13
37.460        20
37.470        13
37.480        40
37.490        20
37.500        20
37.510        27
37.520         0
37.530        27
37.540         0
37.550        27
37.560        27
37.570        27
37.580         0
37.590         7
37.600        13
37.610        20
37.620        20
37.630        27
37.640        27
37.650        27
37.660         0
37.670        13
37.680         7
37.690        53
37.700        20
37.710        20
37.720         7
37.730        33
37.740        33
37.750         0
37.760        33
37.770        20
37.780        20
37.790         7
37.800        20
37.810        27
37.820        27
37.830        27
37.840        27
37.850        33
37.860        27
37.870        33
37.880         7
37.890        13
37.900        47
37.910        13
37.920         7
37.930        20
37.940        27
37.950        20
37.960        27
37.970        33
37.980        27
37.990        13
38.000        20
38.010        33
38.020        20
38.030        33
38.040        20
38.050        20
38.060        27
38.070        13
38.080        20
38.090        27
38.100        27
38.110        40
38.120        47
38.130        33
38.140        27
38.150         0
38.160        13
38.170        33
38.180        40
38.190        33
38.200        20
38.210         7
38.220        33
38.230        27
38.240        47
38.250        13
38.260        13
38.270        13
38.280        27
38.290        20
38.300        20
38.310        40
38.320        27
38.330        40
38.340        33
38.350        40
38.360        47
38.370        27
38.380        20
38.390        40
38.400        33
38.410        47
38.420        47
38.430        27
38.440        27
38.450        60
38.460        27
38.470        40
38.480        47
38.490        20
38.500        13
38.510        40
38.520        47
38.530        40
38.540        33
38.550        67
38.560        53
38.570        27
38.580        20
38.590        33
38.600        40
38.610        27
38.620        40
38.630         0
38.640        33
38.650        47
38.660         0
38.670        40
38.680        33
38.690        20
38.700        60
38.710        27
38.720        53
38.730        33
38.740        60
38.750        27
38.760        13
38.770        27
38.780        40
38.790        20
38.800        33
38.810        40
38.820        20
38.830        33
38.840        27
38.850         7
38.860        20
38.870        33
38.880        27
38.890        47
38.900        40
38.910         0
38.920        33
38.930        53
38.940        20
38.950        33
38.960        13
38.970        27
38.980        13
38.990         7
39.000        27
39.010        47
39.020        27
39.030        20
39.040        27
39.050        40
39.060         7
39.070        13
39.080         7
39.090        27
39.100        33
39.110        13
39.120        13
39.130        27
39.140        40
39.150         7
39.160        13
39.170        27
39.180        13
39.190        13
39.200        27
39.210        27
39.220        20
39.230        20
39.240        27
39.250        20
39.260         7
39.270        13
39.280        20
39.290         0
39.300        13
39.310        20
39.320        20
39.330        20
39.340        13
39.350         7
39.360        13
39.370        13
39.380        13
39.390        20
39.400        13
39.410        20
39.420        13
39.430        20
39.440        20
39.450        13
39.460        27
39.470        20
39.480         7
39.490        27
39.500         0
39.510        27
39.520        13
39.530        20
39.540        13
39.550        20
39.560        40
39.570        13
39.580        27
39.590        40
39.600        20
39.610        20
39.620        47
39.630        13
39.640        13
39.650         7
39.660        20
39.670        33
39.680         0
39.690        13
39.700        33
39.710        40
39.720        20
39.730        47
39.740        53
39.750         7
39.760        20
39.770        13
39.780         7
39.790         7
39.800        20
39.810        20
39.820        33
39.830        60
39.840        13
39.850        13
39.860        20
39.870        40
39.880        13
39.890        27
39.900        40
39.910        40
39.920        27
39.930        40
39.940         7
39.950        40
39.960        27
39.970         7
39.980        47
39.990        20
40.000        20
40.010        40
40.020        20
40.030        27
40.040        13
40.050         7
40.060        40
40.070        20
40.080        20
40.090        20
40.100        20
40.110        33
40.120        33
40.130        13
40.140        20
40.150        13
40.160        20
40.170        20
40.180        20
40.190        33
40.200         7
40.210        20
40.220        33
40.230        20
40.240        27
40.250        13
40.260        40
40.270        13
40.280        27
40.290        13
40.300        20
40.310        13
40.320         7
40.330        27
40.340        27
40.350        40
40.360        20
40.370        33
40.380        20
40.390        13
40.400        20
40.410        20
40.420        20
40.430        20
40.440        20
40.450        27
40.460        20
40.470        20
40.480        27
40.490        40
40.500        20
40.510         0
40.520         7
40.530         7
40.540        13
40.550         7
40.560         7
40.570        13
40.580        20
40.590        27
40.600        33
40.610        27
40.620        13
40.630        27
40.640        20
40.650        40
40.660         7
40.670        20
40.680         7
40.690         0
40.700        27
40.710        40
40.720        13
40.730         0
40.740        33
40.750        20
40.760        20
40.770        27
40.780        20
40.790        33
40.800        13
40.810        13
40.820        33
40.830        13
40.840        27
40.850        27
40.860        27
40.870         7
40.880        13
40.890        13
40.900        20
40.910        13
40.920        20
40.930        20
40.940        20
40.950        13
40.960        40
40.970        20
40.980        13
40.990        20
41.000        20
41.010        33
41.020         7
41.030        27
41.040        20
41.050         7
41.060        13
41.070        20
41.080        67
41.090        20
41.100         0
41.110         7
41.120        27
41.130        27
41.140        27
41.150        47
41.160        13
41.170        20
41.180        20
41.190         0
41.200         7
41.210        33
41.220        13
41.230        33
41.240         7
41.250         0
41.260        20
41.270        20
41.280         0
41.290        13
41.300         7
41.310         7
41.320        20
41.330        13
41.340        20
41.350        20
41.360        20
41.370        20
41.380        40
41.390        40
41.400        20
41.410        13
41.420        20
41.430        27
41.440        20
41.450        20
41.460        13
41.470        40
41.480        53
41.490        20
41.500        27
41.510        13
41.520        20
41.530        27
41.540        40
41.550        27
41.560        33
41.570        20
41.580        40
41.590        47
41.600        13
41.610        67
41.620        53
41.630        47
41.640        60
41.650       107
41.660        53
41.670        53
41.680       113
41.690        73
41.700        53
41.710        80
41.720        27
41.730        20
41.740        67
41.750        53
41.760        73
41.770        67
41.780        67
41.790        60
41.800        33
41.810        33
41.820        33
41.830        20
41.840        13
41.850        33
41.860        13
41.870        13
41.880        13
41.890        27
41.900        20
41.910        13
41.920        20
41.930        20
41.940        40
41.950        20
41.960        27
41.970         7
41.980        33
41.990        20
42.000        20
42.010        20
42.020         7
42.030        40
42.040        20
42.050        20
42.060        13
42.070         7
42.080        33
42.090        33
42.100        47
42.110        40
42.120        13
42.130        33
42.140        40
42.150         7
42.160        20
42.170        13
42.180        47
42.190        40
42.200        13
42.210        13
42.220        40
42.230        27
42.240        13
42.250        40
42.260        33
42.270        13
42.280        27
42.290        33
42.300        13
42.310         7
42.320        33
42.330        20
42.340         7
42.350         0
42.360        33
42.370        13
42.380        33
42.390        53
42.400        13
42.410        40
42.420         7
42.430        20
42.440        40
42.450        13
42.460         7
42.470        13
42.480        33
42.490        20
42.500        27
42.510         7
42.520        20
42.530        33
42.540        27
42.550        20
42.560        47
42.570        13
42.580        13
42.590        13
42.600        33
42.610        27
42.620        27
42.630        33
42.640        27
42.650        13
42.660        20
42.670        20
42.680        47
42.690        27
42.700        40
42.710        13
42.720        27
42.730        20
42.740        27
42.750         0
42.760         7
42.770        20
42.780        20
42.790        13
42.800         7
42.810        33
42.820        27
42.830        20
42.840        20
42.850        27
42.860        20
42.870        27
42.880        27
42.890         7
42.900        20
42.910        33
42.920         7
42.930        20
42.940        20
42.950        13
42.960        13
42.970         7
42.980        20
42.990        27
43.000        20
43.010         7
43.020        13
43.030         7
43.040        20
43.050         7
43.060        33
43.070        27
43.080        20
43.090        27
43.100        20
43.110         7
43.120        20
43.130         7
43.140        20
43.150        33
43.160        20
43.170        20
43.180        40
43.190        27
43.200        27
43.210        40
43.220        40
43.230        33
43.240        13
43.250        40
43.260        53
43.270        47
43.280        60
43.290       107
43.300        93
43.310       133
43.320       140
43.330       147
43.340        93
43.350       200
43.360        87
43.370       120
43.380       140
43.390        53
43.400       100
43.410        87
43.420        93
43.430        87
43.440        53
43.450        80
43.460        93
43.470        53
43.480        60
43.490        40
43.500        67
43.510        67
43.520        27
43.530        13
43.540        33
43.550        13
43.560        27
43.570         7
43.580        20
43.590        33
43.600         7
43.610         7
43.620         7
43.630        13
43.640        13
43.650        20
43.660        27
43.670        47
43.680        20
43.690        20
43.700        13
43.710        13
43.720        33
43.730        27
43.740        27
43.750        33
43.760        33
43.770        27
43.780        20
43.790        27
43.800        13
43.810        13
43.820        13
43.830        40
43.840        20
43.850        27
43.860        27
43.870        40
43.880        27
43.890        33
43.900        13
43.910        20
43.920        13
43.930         0
43.940        47
43.950        20
43.960        20
43.970        27
43.980        20
43.990        27
44.000         7
44.010        27
44.020        20
44.030        33
44.040        27
44.050        20
44.060        27
44.070         0
44.080        20
44.090        20
44.100        27
44.110        13
44.120        13
44.130        20
44.140         7
44.150        40
44.160        67
44.170        20
44.180         7
44.190         7
44.200        20
44.210        53
44.220        13
44.230        13
44.240        13
44.250        33
44.260        27
44.270        33
44.280        13
44.290        33
44.300        13
44.310        20
44.320        13
44.330        20
44.340        33
44.350        20
44.360        47
44.370        13
44.380        33
44.390         7
44.400        33
44.410        27
44.420        13
44.430        33
44.440        33
44.450        27
44.460        13
44.470        20
44.480         7
44.490        13
44.500        33
44.510        40
44.520        20
44.530        27
44.540        20
44.550        33
44.560        73
44.570        40
44.580         7
44.590        40
44.600        33
44.610        33
44.620        47
44.630        27
44.640        53
44.650        53
44.660        60
44.670        40
44.680        67
44.690        60
44.700        60
44.710        53
44.720        87
44.730        60
44.740        80
44.750        67
44.760        67
44.770        93
44.780       107
44.790       113
44.800       100
44.810        80
44.820        93
44.830       160
44.840       120
44.850        80
44.860       127
44.870        80
44.880        80
44.890       107
44.900        80
44.910        73
44.920        93
44.930       107
44.940       160
44.950        73
44.960        27
44.970       100
44.980        80
44.990       107
45.000        47
45.010        73
45.020        47
45.030        60
45.040        67
45.050        33
45.060        40
45.070        47
45.080        33
45.090        40
45.100        27
45.110        53
45.120        60
45.130        40
45.140        33
45.150        80
45.160        40
45.170        27
45.180        27
45.190         0
45.200        20
45.210        13
45.220        13
45.230        13
45.240        13
45.250        20
45.260        13
45.270        60
45.280         7
45.290        20
45.300        20
45.310        13
45.320        27
45.330        20
45.340        27
45.350        60
45.360         0
45.370        20
45.380        40
45.390        33
45.400        20
45.410        47
45.420        20
45.430        13
45.440         7
45.450        40
45.460        20
45.470        20
45.480         0
45.490        73
45.500        27
45.510        33
45.520        13
45.530        13
45.540         7
45.550        20
45.560         7
45.570        13
45.580        40
45.590        27
45.600        40
45.610        13
45.620        20
45.630        27
45.640        20
45.650        20
45.660        20
45.670        40
45.680        27
45.690         7
45.700        13
45.710        20
45.720        20
45.730         0
45.740         7
45.750        20
45.760        27
45.770        13
45.780        20
45.790         7
45.800        13
45.810        13
45.820        47
45.830        33
45.840        20
45.850         7
45.860         7
45.870         7
45.880        27
45.890        33
45.900        13
45.910        33
45.920        13
45.930        13
45.940        53
45.950        13
45.960        27
45.970        20
45.980        20
45.990         7
46.000        27
46.010        33
46.020         0
46.030        20
46.040         0
46.050        33
46.060         7
46.070        33
46.080         7
46.090        40
46.100        13
46.110        20
46.120        33
46.130        13
46.140        13
46.150        13
46.160         0
46.170        60
46.180        13
46.190        27
46.200         7
46.210         7
46.220         7
46.230         0
46.240        40
46.250         7
46.260        13
46.270         7
46.280        27
46.290        27
46.300        40
46.310        20
46.320        27
46.330        20
46.340        13
46.350         0
46.360         0
46.370        27
46.380        27
46.390         7
46.400         7
46.410        33
46.420        27
46.430         0
46.440         7
46.450         0
46.460         7
46.470         0
46.480         7
46.490        27
46.500         7
46.510        47
46.520        20
46.530        20
46.540        20
46.550        33
46.560         7
46.570        20
46.580        40
46.590        13
46.600        33
46.610        13
46.620         0
46.630        13
46.640        27
46.650        20
46.660        27
46.670        20
46.680        13
46.690         7
46.700        27
46.710         0
46.720        13
46.730        13
46.740        13
46.750        27
46.760        13
46.770        20
46.780        20
46.790        13
46.800        20
46.810        20
46.820         0
46.830         0
46.840        27
46.850        20
46.860        20
46.870        20
46.880        20
46.890        27
46.900        27
46.910        33
46.920         0
46.930        20
46.940        40
46.950        13
46.960        33
46.970        27
46.980        40
46.990         7
47.000        47
47.010        20
47.020         7
47.030        13
47.040        20
47.050        20
47.060        13
47.070        13
47.080         0
47.090         0
47.100        27
47.110        20
47.120        20
47.130         0
47.140        27
47.150        20
47.160        27
47.170        20
47.180        20
47.190         0
47.200        13
47.210        20
47.220         7
47.230        27
47.240        33
47.250         0
47.260        13
47.270        20
47.280         7
47.290        20
47.300        27
47.310        13
47.320        20
47.330         7
47.340        33
47.350         7
47.360        13
47.370         0
47.380         7
47.390        20
47.400        13
47.410        27
47.420         7
47.430         7
47.440        13
47.450         0
47.460        13
47.470        27
47.480         0
47.490        33
47.500        40
47.510        27
47.520        20
47.530         7
47.540        13
47.550        53
47.560        13
47.570        13
47.580         7
47.590         7
47.600        40
47.610        13
47.620        27
47.630         7
47.640         7
47.650        20
47.660        33
47.670        13
47.680        13
47.690        13
47.700        20
47.710        13
47.720        13
47.730        13
47.740         7
47.750        20
47.760        20
47.770        20
47.780        27
47.790        20
47.800        13
47.810        20
47.820        20
47.830        27
47.840        20
47.850        33
47.860         7
47.870         0
47.880        40
47.890        27
47.900        13
47.910         7
47.920        20
47.930         7
47.940         7
47.950         7
47.960         7
47.970        13
47.980        33
47.990        27
48.000         0
48.010        27
48.020        33
48.030        20
48.040         7
48.050         0
48.060        13
48.070        27
48.080        20
48.090        20
48.100         0
48.110         7
48.120         7
48.130        20
48.140        20
48.150        27
48.160        20
48.170        13
48.180        20
48.190         7
48.200        20
48.210        20
48.220        40
48.230         0
48.240        20
48.250        20
48.260        20
48.270        20
48.280        13
48.290        33
48.300        27
48.310        20
48.320        20
48.330        13
48.340         7
48.350        13
48.360        13
48.370        33
48.380        20
48.390         7
48.400         0
48.410        27
48.420        20
48.430        20
48.440        40
48.450         7
48.460        20
48.470        13
48.480        27
48.490        27
48.500         7
48.510         0
48.520        13
48.530         0
48.540         7
48.550        27
48.560         7
48.570        20
48.580        13
48.590         7
48.600        20
48.610        20
48.620        27
48.630        47
48.640        13
48.650        13
48.660        13
48.670        27
48.680         0
48.690         7
48.700        13
48.710        13
48.720        27
48.730         0
48.740        27
48.750        13
48.760        20
48.770         7
48.780        20
48.790         7
48.800        27
48.810        20
48.820        27
48.830         7
48.840        27
48.850         7
48.860         0
48.870         7
48.880        20
48.890        27
48.900        13
48.910         7
48.920        13
48.930        33
48.940        20
48.950        40
48.960         7
48.970        13
48.980         7
48.990         7
49.000         7
49.010        27
49.020        33
49.030        13
49.040        27
49.050        13
49.060        40
49.070         7
49.080        13
49.090        20
49.100        20
49.110        27
49.120        40
49.130         7
49.140        33
49.150         7
49.160        13
49.170         0
49.180         7
49.190        40
49.200        20
49.210        20
49.220        20
49.230        13
49.240        27
49.250        13
49.260        20
49.270        27
49.280         0
49.290         7
49.300        47
49.310        27
49.320        13
49.330        27
49.340        20
49.350        20
49.360        13
49.370         7
49.380        27
49.390        20
49.400         0
49.410        47
49.420        40
49.430        27
49.440        20
49.450         7
49.460        13
49.470        13
49.480        20
49.490         7
49.500        20
49.510        27
49.520        13
49.530         0
49.540         7
49.550         7
49.560        33
49.570        13
49.580         7
49.590        27
49.600         7
49.610        13
49.620        27
49.630        13
49.640         7
49.650         0
49.660         0
49.670        20
49.680        20
49.690        13
49.700         7
49.710         7
49.720         0
49.730         7
49.740        27
49.750        33
49.760         7
49.770        20
49.780        13
49.790        20
49.800         7
49.810        47
49.820        20
49.830        27
49.840        40
49.850        20
49.860        33
49.870         7
49.880        13
49.890        27
49.900        20
49.910         7
49.920        20
49.930         7
49.940        13
49.950        13
49.960        13
49.970         7
49.980         7
49.990         7
50.000        13
50.010        20
50.020         7
50.030        13
50.040        20
50.050         7
50.060        13
50.070        13
50.080        13
50.090        47
50.100         0
50.110        13
50.120         7
50.130         7
50.140         7
50.150        20
50.160         7
50.170        27
50.180         0
50.190        20
50.200         7
50.210        27
50.220        13
50.230        20
50.240        20
50.250        27
50.260        33
50.270         7
50.280        27
50.290         0
50.300        13
50.310         7
50.320        13
50.330        13
50.340        20
50.350         7
50.360         0
50.370        20
50.380        13
50.390        20
50.400        13
50.410        20
50.420        13
50.430        20
50.440         0
50.450        20
50.460        20
50.470        27
50.480        13
50.490        13
50.500        27
50.510         0
50.520        27
50.530         0
50.540        13
50.550        13
50.560        33
50.570        20
50.580        27
50.590         0
50.600         7
50.610         7
50.620        20
50.630        13
50.640        13
50.650         7
50.660        27
50.670        27
50.680        20
50.690        13
50.700         7
50.710        27
50.720        33
50.730        20
50.740         7
50.750        27
50.760        13
50.770        13
50.780        20
50.790         0
50.800        33
50.810         7
50.820         7
50.830        13
50.840        13
50.850        13
50.860         7
50.870        20
50.880        20
50.890        40
50.900        20
50.910        13
50.920         7
50.930        27
50.940        13
50.950         7
50.960        27
50.970         7
50.980        20
50.990         7
51.000         7
51.010        13
51.020        27
51.030        40
51.040        33
51.050        13
51.060         7
51.070        27
51.080        20
51.090        20
51.100        13
51.110         0
51.120         0
51.130        40
51.140        13
51.150         7
51.160         7
51.170        13
51.180         7
51.190         7
51.200        27
51.210        27
51.220        53
51.230        13
51.240        27
51.250        20
51.260        20
51.270         7
51.280        13
51.290         7
51.300         7
51.310        27
51.320        13
51.330        20
51.340         0
51.350        13
51.360         0
51.370         0
51.380        13
51.390         0
51.400        20
51.410         7
51.420        27
51.430         7
51.440         7
51.450         7
51.460        13
51.470        13
51.480         7
51.490         7
51.500         0
51.510         0
51.520        33
51.530         7
51.540        20
51.550        40
51.560        33
51.570        27
51.580        27
51.590        20
51.600         7
51.610         7
51.620        13
51.630        33
51.640         7
51.650        20
51.660        27
51.670         0
51.680         7
51.690        40
51.700         7
51.710        13
51.720         7
51.730        27
51.740         7
51.750         7
51.760         7
51.770        33
51.780        13
51.790         7
51.800         0
51.810         0
51.820        33
51.830         7
51.840        13
51.850        33
51.860        20
51.870        13
51.880        13
51.890         0
51.900         7
51.910        20
51.920        13
51.930        20
51.940        33
51.950         7
51.960        13
51.970         0
51.980         0
51.990        20
52.000        20
52.010        20
52.020        20
52.030         7
52.040        20
52.050        13
52.060         7
52.070        20
52.080        27
52.090        47
52.100         7
52.110        13
52.120        20
52.130         7
52.140        13
52.150        27
52.160         7
52.170        27
52.180         7
52.190        20
52.200        13
52.210         7
52.220         0
52.230         0
52.240         7
52.250        13
52.260         7
52.270        20
52.280         7
52.290        27
52.300        27
52.310        53
52.320        20
52.330        33
52.340        27
52.350         7
52.360        13
52.370        13
52.380        27
52.390        40
52.400         0
52.410        33
52.420        27
52.430        20
52.440        20
52.450         0
52.460         0
52.470        20
52.480        20
52.490        40
52.500        27
52.510        27
52.520        13
52.530        20
52.540        27
52.550        27
52.560        13
52.570        13
52.580        33
52.590        13
52.600        27
52.610        33
52.620        20
52.630        20
52.640        20
52.650        27
52.660        20
52.670         0
52.680        20
52.690         7
52.700        20
52.710        13
52.720         7
52.730         0
52.740        13
52.750        27
52.760        27
52.770        27
52.780        27
52.790        27
52.800        13
52.810        20
52.820         7
52.830        40
52.840        20
52.850        20
52.860         0
52.870        13
52.880        27
52.890         7
52.900        20
52.910         7
52.920         0
52.930         0
52.940        13
52.950        13
52.960         0
52.970        27
52.980        20
52.990        13
53.000         0
53.010         7
53.020        20
53.030        27
53.040         0
53.050        13
53.060        20
53.070        33
53.080        13
53.090         7
53.100        13
53.110        27
53.120         7
53.130         7
53.140        13
53.150        13
53.160        33
53.170        20
53.180        13
53.190        20
53.200         7
53.210        13
53.220        20
53.230        33
53.240        20
53.250         7
53.260        13
53.270        13
53.280         7
53.290         7
53.300         7
53.310        20
53.320        27
53.330        20
53.340        33
53.350         7
53.360        20
53.370        27
53.380         7
53.390         7
53.400        13
53.410        20
53.420        27
53.430        20
53.440         7
53.450        33
53.460         0
53.470        13
53.480        33
53.490        20
53.500         7
53.510         7
53.520         0
53.530         7
53.540        27
53.550        13
53.560        33
53.570         7
53.580        13
53.590         7
53.600        33
53.610        13
53.620        27
53.630         0
53.640        20
53.650         7
53.660        13
53.670        27
53.680         7
53.690         7
53.700        20
53.710         0
53.720        13
53.730        13
53.740        20
53.750         7
53.760        13
53.770        27
53.780        13
53.790        20
53.800        27
53.810        13
53.820         7
53.830        13
53.840         0
53.850         7
53.860        27
53.870        13
53.880        13
53.890         7
53.900        40
53.910         0
53.920        13
53.930        13
53.940        13
53.950        20
53.960         7
53.970        33
53.980         7
53.990         7
54.000        13
54.010        13
54.020        13
54.030        13
54.040        27
54.050         7
54.060        27
54.070        20
54.080         7
54.090        27
54.100         0
54.110        13
54.120         0
54.130         7
54.140         7
54.150        27
54.160        13
54.170        20
54.180        53
54.190        20
54.200        13
54.210         7
54.220        53
54.230        27
54.240        13
54.250        33
54.260         0
54.270        33
54.280        20
54.290        13
54.300         0
54.310         7
54.320        20
54.330        33
54.340        20
54.350        13
54.360         0
54.370        13
54.380         7
54.390        27
54.400         0
54.410        27
54.420         7
54.430        13
54.440        20
54.450         7
54.460        47
54.470         7
54.480         7
54.490        27
54.500        13
54.510         7
54.520        13
54.530        33
54.540         7
54.550        13
54.560        13
54.570        33
54.580        20
54.590        13
54.600        13
54.610        13
54.620         7
54.630        13
54.640        27
54.650        27
54.660         0
54.670        13
54.680        20
54.690        20
54.700        13
54.710        27
54.720        13
54.730        13
54.740         7
54.750        13
54.760         7
54.770        13
54.780         7
54.790         7
54.800        20
54.810        40
54.820        20
54.830        13
54.840        13
54.850        27
54.860         7
54.870         0
54.880         7
54.890         7
54.900         0
54.910        13
54.920        20
54.930        27
54.940        13
54.950         7
54.960        20
54.970         7
54.980        20
54.990        13
55.000         7
55.010         7
55.020         7
55.030        27
55.040        20
55.050        33
55.060        13
55.070        13
55.080        13
55.090        13
55.100        33
55.110         7
55.120         7
55.130        33
55.140        13
55.150        20
55.160        13
55.170        20
55.180        20
55.190        20
55.200        33
55.210        13
55.220        27
55.230         7
55.240         0
55.250        20
55.260        20
55.270        20
55.280        20
55.290        33
55.300        33
55.310        27
55.320        27
55.330         0
55.340        33
55.350        20
55.360        40
55.370        47
55.380        33
55.390        13
55.400        53
55.410        20
55.420        60
55.430        20
55.440        40
55.450        40
55.460        33
55.470        60
55.480        40
55.490        47
55.500        33
55.510        60
55.520        40
55.530        67
55.540        33
55.550        53
55.560        67
55.570        60
55.580        73
55.590        80
55.600        67
55.610        93
55.620        67
55.630        93
55.640       100
55.650        73
55.660        60
55.670        80
55.680       100
55.690        87
55.700        80
55.710        80
55.720        67
55.730       113
55.740       107
55.750        40
55.760        60
55.770        73
55.780       127
55.790        47
55.800       100
55.810        87
55.820       140
55.830       100
55.840        73
55.850        67
55.860        80
55.870        53
55.880        40
55.890        87
55.900        60
55.910        80
55.920        53
55.930        93
55.940        53
55.950        53
55.960        67
55.970        40
55.980        33
55.990        47
56.000        67
56.010        67
56.020        13
56.030        40
56.040        33
56.050        33
56.060        13
56.070        33
56.080        13
56.090         0
56.100        13
56.110        20
56.120        20
56.130        20
56.140        27
56.150        13
56.160        27
56.170        33
56.180        20
56.190        13
56.200        20
56.210        33
56.220        13
56.230        20
56.240        13
56.250        27
56.260        20
56.270         7
56.280         7
56.290        33
56.300        33
56.310        20
56.320         7
56.330        13
56.340         0
56.350        13
56.360        40
56.370         7
56.380         0
56.390        33
56.400        27
56.410         7
56.420        20
56.430         7
56.440        13
56.450         7
56.460        53
56.470        20
56.480        13
56.490        27
56.500        13
56.510        27
56.520        20
56.530         7
56.540        13
56.550         7
56.560         7
56.570        20
56.580        20
56.590        27
56.600        20
56.610        27
56.620        20
56.630        33
56.640        27
56.650        27
56.660        20
56.670        20
56.680        20
56.690         7
56.700         7
56.710        40
56.720        13
56.730         7
56.740        20
56.750        27
56.760        13
56.770         7
56.780         7
56.790        20
56.800        33
56.810        13
56.820        13
56.830        13
56.840        20
56.850         7
56.860         7
56.870         7
56.880        20
56.890        13
56.900        13
56.910         7
56.920        13
56.930        20
56.940         7
56.950        13
56.960        33
56.970         7
56.980         7
56.990         0
57.000        13
57.010         7
57.020        27
57.030        13
57.040        13
57.050         7
57.060        20
57.070        20
57.080         0
57.090         7
57.100        20
57.110        13
57.120         0
57.130        20
57.140        13
57.150        20
57.160         0
57.170        13
57.180        27
57.190        20
57.200        27
57.210        33
57.220        40
57.230        27
57.240        20
57.250         0
57.260         7
57.270        13
57.280        27
57.290        13
57.300        13
57.310        20
57.320        13
57.330        20
57.340        20
57.350         7
57.360         0
57.370         7
57.380        33
57.390        27
57.400         7
57.410        13
57.420        40
57.430        33
57.440        67
57.450        47
57.460        53
57.470        40
57.480        47
57.490        53
57.500        47
57.510        80
57.520        73
57.530       147
57.540       127
57.550        87
57.560       147
57.570       127
57.580       113
57.590        80
57.600       140
57.610       107
57.620        40
57.630        60
57.640        60
57.650        20
57.660        53
57.670        13
57.680        20
57.690        60
57.700        47
57.710        73
57.720        53
57.730        67
57.740        47
57.750        87
57.760        33
57.770         7
57.780        33
57.790        13
57.800        13
57.810        33
57.820        20
57.830        33
57.840        13
57.850         0
57.860        33
57.870         7
57.880         7
57.890         0
57.900         7
57.910        13
57.920         7
57.930        13
57.940        33
57.950        33
57.960        27
57.970        20
57.980        60
57.990        27
58.000        33
58.010         0
58.020         7
58.030         0
58.040        27
58.050        20
58.060        13
58.070        27
58.080        27
58.090         7
58.100         0
58.110         0
58.120         0
58.130        13
58.140         0
58.150        20
58.160        40
58.170        20
58.180        13
58.190        20
58.200        13
58.210         7
58.220        20
58.230        20
58.240        27
58.250        40
58.260         0
58.270        27
58.280        20
58.290        13
58.300        13
58.310         7
58.320         0
58.330        13
58.340        20
58.350        20
58.360         0
58.370        27
58.380        27
58.390        20
58.400         7
58.410        27
58.420        13
58.430        13
58.440        27
58.450         7
58.460        20
58.470        20
58.480        27
58.490         7
58.500        20
58.510         0
58.520         7
58.530        20
58.540        33
58.550         0
58.560         0
58.570        27
58.580        13
58.590         0
58.600         7
58.610        20
58.620         7
58.630        20
58.640         7
58.650        20
58.660         7
58.670        13
58.680        27
58.690        13
58.700         0
58.710        27
58.720         7
58.730        27
58.740        27
58.750        13
58.760         7
58.770        27
58.780        13
58.790         7
58.800        20
58.810         7
58.820        13
58.830         7
58.840         7
58.850        20
58.860         0
58.870        27
58.880         0
58.890         7
58.900        20
58.910         7
58.920        20
58.930         7
58.940        13
58.950         7
58.960         7
58.970        27
58.980         7
58.990        20
59.000         7
59.010         7
59.020        13
59.030         7
59.040         0
59.050        20
59.060         7
59.070        13
59.080         7
59.090        13
59.100         7
59.110        13
59.120        13
59.130         0
59.140         7
59.150        20
59.160        20
59.170        20
59.180        20
59.190        20
59.200        20
59.210        13
59.220        13
59.230        20
59.240        27
59.250        20
59.260        13
59.270        20
59.280        13
59.290        13
59.300        33
59.310         7
59.320        33
59.330        27
59.340         7
59.350         7
59.360        20
59.370        20
59.380        27
59.390         0
59.400         0
59.410         0
59.420        27
59.430         7
59.440         0
59.450        27
59.460         0
59.470        27
59.480        20
59.490        20
59.500        13
59.510         0
59.520         0
59.530        20
59.540         0
59.550        27
59.560         7
59.570         7
59.580        27
59.590        13
59.600        20
59.610         7
59.620        13
59.630         7
59.640        13
59.650         7
59.660        13
59.670        13
59.680        33
59.690        13
59.700        40
59.710        33
59.720         0
59.730         7
59.740        13
59.750        27
59.760        20
59.770        27
59.780         7
59.790         7
59.800        20
59.810        13
59.820         7
59.830         0
59.840        20
59.850        40
59.860         7
59.870        13
59.880         7
59.890        13
59.900        20
59.910        27
59.920        20
59.930        20
59.940         7
59.950         7
59.960        20
59.970         0
59.980         0
59.990         0
60.000         0
