20.000        93
20.010        33
20.020        80
20.030        53
20.040       100
20.050        60
20.060        73
20.070        87
20.080        67
20.090       113
20.100       100
20.110        53
20.120        60
20.130       107
20.140       147
20.150        40
20.160       120
20.170       107
20.180        93
20.190       100
20.200        80
20.210        53
20.220        80
20.230       100
20.240        53
20.250        73
20.260        73
20.270        80
20.280        87
20.290       113
20.300        93
20.310        73
20.320        73
20.330        80
20.340       107
20.350        80
20.360        60
20.370        47
20.380       133
20.390        93
20.400       107
20.410        73
20.420        87
20.430       107
20.440        53
20.450        47
20.460       113
20.470        67
20.480        73
20.490       100
20.500        93
20.510        67
20.520        87
20.530        73
20.540        87
20.550       107
20.560        80
20.570        73
20.580        73
20.590        60
20.600       127
20.610        47
20.620        73
20.630        87
20.640       120
20.650       113
20.660       100
20.670        93
20.680        73
20.690        73
20.700        67
20.710        40
20.720       100
20.730        80
20.740       140
20.750        87
20.760       107
20.770       107
20.780        13
20.790        60
20.800        80
20.810        93
20.820        67
20.830       120
20.840       113
20.850       107
20.860       107
20.870        87
20.880       107
20.890        93
20.900        73
20.910        87
20.920        93
20.930        67
20.940        80
20.950       120
20.960        93
20.970       100
20.980        93
20.990        93
21.000        93
21.010       107
21.020        53
21.030       107
21.040        73
21.050        73
21.060        73
21.070        73
21.080       113
21.090        67
21.100       100
21.110        67
21.120       100
21.130       127
21.140        60
21.150        53
21.160       100
21.170        47
21.180        47
21.190        40
21.200       113
21.210        87
21.220        67
21.230        73
21.240        47
21.250       133
21.260        73
21.270        73
21.280        87
21.290        73
21.300        87
21.310        80
21.320       100
21.330        93
21.340        80
21.350        53
21.360        60
21.370        40
21.380        73
21.390        40
21.400       120
21.410        87
21.420        80
21.430        53
21.440        73
21.450       120
21.460        67
21.470        67
21.480        87
21.490       100
21.500        67
21.510        53
21.520        80
21.530        47
21.540        60
21.550        87
21.560        87
21.570        60
21.580        80
21.590       107
21.600       100
21.610        80
21.620       107
21.630        67
21.640       107
21.650        73
21.660       107
21.670        60
21.680       127
21.690        80
21.700        80
21.710        53
21.720       133
21.730       133
21.740        93
21.750        87
21.760       100
21.770        60
21.780       127
21.790        80
21.800       113
21.810       107
21.820       120
21.830        73
21.840       127
21.850       107
21.860        87
21.870        93
21.880        87
21.890       120
21.900        80
21.910        93
21.920       100
21.930        87
21.940       133
21.950        93
21.960       113
21.970        60
21.980       100
21.990        73
22.000        93
22.010       113
22.020       147
22.030       107
22.040       140
22.050        87
22.060       133
22.070       120
22.080       100
22.090       120
22.100        87
22.110        67
22.120       113
22.130       113
22.140       107
22.150       120
22.160       127
22.170       107
22.180       107
22.190       100
22.200        73
22.210       113
22.220       127
22.230        73
22.240       113
22.250       147
22.260       140
22.270       113
22.280       107
22.290        80
22.300        93
22.310        67
22.320       113
22.330        73
22.340        87
22.350       160
22.360       107
22.370       107
22.380       100
22.390       133
22.400        80
22.410       147
22.420       140
22.430       147
22.440       120
22.450       120
22.460       127
22.470       167
22.480       147
22.490       160
22.500       120
22.510       133
22.520       193
22.530       107
22.540       100
22.550       127
22.560       120
22.570       173
22.580       213
22.590       173
22.600       160
22.610       227
22.620       147
22.630       140
22.640       227
22.650       167
22.660       153
22.670       133
22.680       107
22.690       153
22.700       173
22.710       160
22.720       133
22.730       200
22.740       133
22.750       140
22.760       133
22.770       180
22.780       160
22.790       173
22.800       180
22.810       140
22.820       227
22.830       227
22.840       213
22.850       180
22.860       213
22.870       273
22.880       227
22.890       273
22.900       327
22.910       227
22.920       327
22.930       327
22.940       320
22.950       313
22.960       360
22.970       340
22.980       273
22.990       247
23.000       280
23.010       260
23.020       260
23.030       233
23.040       260
23.050       287
23.060       267
23.070       520
23.080       713
23.090      1026
23.100      1233
23.110      1379
23.120      1339
23.130      1279
23.140      1133
23.150      1000
23.160       566
23.170       426
23.180       353
23.190       287
23.200       253
23.210       220
23.220       253
23.230       220
23.240       187
23.250       220
23.260       247
23.270       147
23.280       233
23.290       193
23.300       193
23.310       180
23.320       200
23.330       213
23.340       147
23.350       167
23.360        60
23.370       147
23.380       167
23.390       120
23.400       127
23.410       133
23.420       153
23.430       233
23.440       180
23.450       133
23.460       140
23.470       173
23.480       107
23.490       120
23.500       147
23.510       147
23.520       133
23.530       167
23.540       147
23.550       127
23.560       167
23.570       153
23.580       140
23.590       153
23.600       167
23.610       207
23.620       153
23.630       120
23.640       107
23.650       160
23.660       147
23.670       147
23.680       153
23.690       140
23.700       153
23.710       173
23.720       127
23.730        87
23.740       147
23.750       167
23.760       107
23.770       167
23.780       140
23.790       180
23.800       100
23.810       147
23.820       140
23.830       153
23.840        87
23.850       100
23.860       153
23.870       147
23.880       140
23.890       180
23.900       120
23.910       173
23.920       193
23.930       100
23.940       193
23.950       133
23.960        67
23.970       100
23.980       200
23.990       160
24.000       113
24.010       133
24.020       113
24.030       173
24.040       113
24.050       140
24.060       193
24.070       113
24.080       160
24.090       187
24.100       200
24.110       140
24.120       193
24.130       107
24.140       133
24.150       140
24.160       147
24.170       160
24.180       173
24.190       133
24.200       133
24.210       233
24.220       153
24.230       127
24.240       147
24.250       140
24.260       253
24.270       140
24.280       180
24.290       127
24.300       140
24.310       200
24.320       153
24.330       140
24.340       113
24.350       147
24.360       173
24.370       200
24.380        93
24.390       180
24.400       133
24.410       187
24.420       167
24.430       127
24.440       140
24.450       127
24.460       147
24.470       173
24.480       100
24.490       193
24.500       187
24.510       120
24.520       200
24.530       107
24.540       180
24.550       180
24.560       187
24.570       213
24.580       100
24.590       167
24.600       127
24.610       127
24.620       127
24.630       133
24.640       207
24.650       233
24.660       193
24.670       193
24.680       147
24.690       213
24.700       267
24.710       267
24.720       240
24.730       287
24.740       413
24.750       526
24.760       533
24.770       566
24.780       693
24.790       526
24.800       540
24.810       533
24.820       660
24.830       646
24.840       573
24.850       606
24.860       580
24.870       720
24.880       680
24.890       686
24.900       733
24.910       573
24.920       586
24.930       646
24.940       573
24.950       480
24.960       606
24.970       620
24.980       640
24.990       626
25.000       626
25.010       613
25.020       646
25.030       633
25.040       686
25.050       613
25.060       713
25.070       646
25.080       693
25.090       686
25.100       706
25.110       640
25.120       633
25.130       686
25.140       720
25.150       606
25.160       766
25.170       793
25.180       733
25.190       580
25.200       626
25.210       626
25.220       633
25.230       720
25.240       613
25.250       606
25.260       840
25.270       826
25.280       726
25.290       886
25.300       713
25.310       720
25.320       786
25.330       773
25.340       880
25.350       980
25.360       866
25.370      1166
25.380      1000
25.390      1259
25.400      1399
25.410      1506
25.420      1579
25.430      2486
25.440      2852
25.450      3552
25.460      4452
25.470      5178
25.480      6211
25.490      7110
25.500      7770
25.510      8323
25.520      8956
25.530      9609
25.540     10802
25.550     12495
25.560     19239
25.570     36665
25.580     67873
25.590     98747
25.600    120472
25.610    127369
25.620    130688
25.630    135786
25.640    137432
25.650    129195
25.660    111329
25.670     92123
25.680     83120
25.690     78029
25.700     74730
25.710     64448
25.720     49494
25.730     30808
25.740     17386
25.750     12182
25.760     10109
25.770      8530
25.780      7410
25.790      6617
25.800      5911
25.810      4858
25.820      4072
25.830      3712
25.840      3185
25.850      2639
25.860      2339
25.870      1853
25.880      1519
25.890      1279
25.900      1100
25.910      1033
25.920       913
25.930       920
25.940       993
25.950       873
25.960       846
25.970       826
25.980       800
25.990       793
26.000       893
26.010       853
26.020       693
26.030       740
26.040       673
26.050       780
26.060       720
26.070       740
26.080       840
26.090       760
26.100       586
26.110       686
26.120       720
26.130       680
26.140       533
26.150       673
26.160       626
26.170       700
26.180       706
26.190       613
26.200       740
26.210       713
26.220       620
26.230       480
26.240       626
26.250       646
26.260       460
26.270       546
26.280       573
26.290       553
26.300       526
26.310       453
26.320       526
26.330       600
26.340       560
26.350       553
26.360       580
26.370       566
26.380       513
26.390       546
26.400       493
26.410       553
26.420       446
26.430       420
26.440       380
26.450       566
26.460       520
26.470       506
26.480       460
26.490       526
26.500       500
26.510       407
26.520       586
26.530       473
26.540       486
26.550       480
26.560       493
26.570       553
26.580       473
26.590       526
26.600       533
26.610       426
26.620       526
26.630       526
26.640       513
26.650       473
26.660       513
26.670       486
26.680       440
26.690       513
26.700       466
26.710       446
26.720       486
26.730       453
26.740       446
26.750       493
26.760       426
26.770       480
26.780       453
26.790       420
26.800       426
26.810       560
26.820       413
26.830       540
26.840       440
26.850       433
26.860       466
26.870       380
26.880       460
26.890       526
26.900       506
26.910       413
26.920       426
26.930       420
26.940       373
26.950       333
26.960       540
26.970       433
26.980       506
26.990       367
27.000       373
27.010       426
27.020       347
27.030       407
27.040       433
27.050       546
27.060       313
27.070       473
27.080       446
27.090       400
27.100       413
27.110       393
27.120       413
27.130       413
27.140       460
27.150       393
27.160       373
27.170       420
27.180       413
27.190       307
27.200       493
27.210       373
27.220       413
27.230       466
27.240       313
27.250       407
27.260       426
27.270       426
27.280       433
27.290       333
27.300       473
27.310       400
27.320       407
27.330       453
27.340       380
27.350       360
27.360       373
27.370       340
27.380       387
27.390       373
27.400       433
27.410       393
27.420       433
27.430       493
27.440       327
27.450       400
27.460       307
27.470       367
27.480       466
27.490       393
27.500       373
27.510       453
27.520       240
27.530       347
27.540       440
27.550       260
27.560       413
27.570       426
27.580       307
27.590       433
27.600       393
27.610       313
27.620       393
27.630       280
27.640       327
27.650       466
27.660       440
27.670       387
27.680       333
27.690       380
27.700       440
27.710       300
27.720       380
27.730       300
27.740       420
27.750       393
27.760       353
27.770       407
27.780       247
27.790       300
27.800       393
27.810       360
27.820       420
27.830       347
27.840       380
27.850       360
27.860       367
27.870       387
27.880       340
27.890       367
27.900       287
27.910       407
27.920       500
27.930       387
27.940       340
27.950       340
27.960       446
27.970       367
27.980       426
27.990       347
28.000       347
28.010       413
28.020       407
28.030       327
28.040       307
28.050       340
28.060       360
28.070       433
28.080       347
28.090       373
28.100       387
28.110       293
28.120       313
28.130       240
28.140       393
28.150       273
28.160       280
28.170       333
28.180       340
28.190       393
28.200       420
28.210       367
28.220       307
28.230       307
28.240       333
28.250       380
28.260       367
28.270       320
28.280       293
28.290       253
28.300       253
28.310       320
28.320       320
28.330       400
28.340       333
28.350       300
28.360       340
28.370       340
28.380       313
28.390       273
28.400       353
28.410       293
28.420       360
28.430       320
28.440       353
28.450       320
28.460       353
28.470       280
28.480       373
28.490       360
28.500       347
28.510       307
28.520       367
28.530       367
28.540       367
28.550       293
28.560       333
28.570       307
28.580       380
28.590       313
28.600       333
28.610       340
28.620       327
28.630       333
28.640       407
28.650       287
28.660       260
28.670       307
28.680       313
28.690       280
28.700       333
28.710       340
28.720       353
28.730       347
28.740       407
28.750       320
28.760       380
28.770       327
28.780       373
28.790       327
28.800       307
28.810       387
28.820       360
28.830       380
28.840       367
28.850       373
28.860       327
28.870       360
28.880       393
28.890       446
28.900       367
28.910       347
28.920       360
28.930       373
28.940       347
28.950       453
28.960       393
28.970       413
28.980       267
28.990       466
29.000       433
29.010       426
29.020       313
29.030       353
29.040       373
29.050       313
29.060       420
29.070       413
29.080       367
29.090       307
29.100       307
29.110       387
29.120       393
29.130       367
29.140       233
29.150       367
29.160       253
29.170       313
29.180       353
29.190       287
29.200       373
29.210       247
29.220       380
29.230       300
29.240       333
29.250       373
29.260       320
29.270       240
29.280       227
29.290       300
29.300       340
29.310       393
29.320       433
29.330       280
29.340       327
29.350       333
29.360       400
29.370       347
29.380       320
29.390       313
29.400       347
29.410       327
29.420       307
29.430       380
29.440       367
29.450       400
29.460       413
29.470       380
29.480       340
29.490       400
29.500       353
29.510       413
29.520       393
29.530       480
29.540       367
29.550       480
29.560       426
29.570       353
29.580       393
29.590       407
29.600       327
29.610       393
29.620       340
29.630       300
29.640       360
29.650       340
29.660       280
29.670       273
29.680       280
29.690       333
29.700       313
29.710       280
29.720       273
29.730       333
29.740       313
29.750       280
29.760       287
29.770       273
29.780       320
29.790       273
29.800       240
29.810       340
29.820       313
29.830       293
29.840       320
29.850       233
29.860       180
29.870       227
29.880       340
29.890       253
29.900       253
29.910       267
29.920       333
29.930       260
29.940       240
29.950       307
29.960       167
29.970       227
29.980       227
29.990       273
30.000       200
30.010       200
30.020       327
30.030       247
30.040       273
30.050       213
30.060       273
30.070       260
30.080       233
30.090       267
30.100       220
30.110       267
30.120       187
30.130       213
30.140       260
30.150       313
30.160       233
30.170       240
30.180       293
30.190       293
30.200       333
30.210       220
30.220       253
30.230       247
30.240       267
30.250       247
30.260       247
30.270       293
30.280       273
30.290       273
30.300       233
30.310       313
30.320       220
30.330       287
30.340       220
30.350       253
30.360       193
30.370       287
30.380       227
30.390       273
30.400       233
30.410       293
30.420       227
30.430       360
30.440       180
30.450       253
30.460       367
30.470       293
30.480       293
30.490       227
30.500       293
30.510       233
30.520       280
30.530       233
30.540       200
30.550       160
30.560       193
30.570       200
30.580       227
30.590       280
30.600       213
30.610       287
30.620       147
30.630       260
30.640       260
30.650       253
30.660       240
30.670       167
30.680       193
30.690       260
30.700       227
30.710       300
30.720       200
30.730       300
30.740       240
30.750       233
30.760       247
30.770       207
30.780       180
30.790       213
30.800       220
30.810       240
30.820       240
30.830       213
30.840       247
30.850       187
30.860       267
30.870       273
30.880       200
30.890       247
30.900       260
30.910       247
30.920       187
30.930       233
30.940       200
30.950       173
30.960       213
30.970       193
30.980       233
30.990       233
31.000       207
31.010       200
31.020       247
31.030       187
31.040       227
31.050       207
31.060       173
31.070       200
31.080       233
31.090       173
31.100       147
31.110       233
31.120       173
31.130       200
31.140       147
31.150       153
31.160       200
31.170       187
31.180       187
31.190       260
31.200       200
31.210       207
31.220       193
31.230       173
31.240       227
31.250       253
31.260       227
31.270       207
31.280       200
31.290       160
31.300       173
31.310       167
31.320       147
31.330       180
31.340       227
31.350       227
31.360       180
31.370       180
31.380       173
31.390       220
31.400       207
31.410       240
31.420       233
31.430       247
31.440       220
31.450       193
31.460       193
31.470       260
31.480       193
31.490       173
31.500       127
31.510       160
31.520       187
31.530       180
31.540       180
31.550       147
31.560       220
31.570       253
31.580       153
31.590       260
31.600       207
31.610       167
31.620       187
31.630        87
31.640       233
31.650       200
31.660       173
31.670       187
31.680       180
31.690       180
31.700       213
31.710       180
31.720       207
31.730       193
31.740       180
31.750       140
31.760       193
31.770       153
31.780       140
31.790       173
31.800       193
31.810       193
31.820       207
31.830       200
31.840       187
31.850       233
31.860       213
31.870       167
31.880       213
31.890       133
31.900       193
31.910       153
31.920       213
31.930       200
31.940       207
31.950       220
31.960       167
31.970       160
31.980       207
31.990       200
32.000       207
32.010       213
32.020       187
32.030       200
32.040       220
32.050       207
32.060       187
32.070       247
32.080       287
32.090       227
32.100       213
32.110       247
32.120       200
32.130       293
32.140       220
32.150       273
32.160       213
32.170       247
32.180       233
32.190       227
32.200       227
32.210       267
32.220       200
32.230       180
32.240       107
32.250       140
32.260       207
32.270       180
32.280       173
32.290       213
32.300       173
32.310       147
32.320       213
32.330       140
32.340       133
32.350       253
32.360       147
32.370       173
32.380       220
32.390       240
32.400       153
32.410       160
32.420       173
32.430       180
32.440       153
32.450       167
32.460       147
32.470       147
32.480       167
32.490       167
32.500       167
32.510       147
32.520       133
32.530       180
32.540       140
32.550       133
32.560        93
32.570       153
32.580       153
32.590       153
32.600       167
32.610       120
32.620       193
32.630       133
32.640       220
32.650       160
32.660       153
32.670       140
32.680       193
32.690       173
32.700       153
32.710       173
32.720       160
32.730       120
32.740       100
32.750       193
32.760       140
32.770       187
32.780       127
32.790       107
32.800       200
32.810       180
32.820       140
32.830       113
32.840       193
32.850       187
32.860       173
32.870       153
32.880       100
32.890       127
32.900        93
32.910       107
32.920       107
32.930       187
32.940        93
32.950       167
32.960       167
32.970       160
32.980       120
32.990       153
33.000       160
33.010       193
33.020       107
33.030       200
33.040       133
33.050       140
33.060       127
33.070       147
33.080       153
33.090       140
33.100       207
33.110       127
33.120       187
33.130       167
33.140       153
33.150       133
33.160       120
33.170       240
33.180       153
33.190       173
33.200       147
33.210       107
33.220       113
33.230       140
33.240       167
33.250       100
33.260       133
33.270       113
33.280       127
33.290       160
33.300       153
33.310        93
33.320       173
33.330       160
33.340       187
33.350       167
33.360        93
33.370       100
33.380       140
33.390       147
33.400       133
33.410       160
33.420       133
33.430       147
33.440       160
33.450       213
33.460       147
33.470       153
33.480       113
33.490       107
33.500        93
33.510       160
33.520       107
33.530       140
33.540       187
33.550       133
33.560       153
33.570       153
33.580       167
33.590       173
33.600       107
33.610       120
33.620       147
33.630       127
33.640       160
33.650       153
33.660       187
33.670       100
33.680       113
33.690       133
33.700       113
33.710        60
33.720       127
33.730       107
33.740       107
33.750        73
33.760       100
33.770       133
33.780       127
33.790       160
33.800       113
33.810       107
33.820        87
33.830       113
33.840       100
33.850       120
33.860       100
33.870       160
33.880       133
33.890       140
33.900       153
33.910       167
33.920       113
33.930       113
33.940       167
33.950       213
33.960       120
33.970       120
33.980        93
33.990       100
34.000       160
34.010       100
34.020       107
34.030       127
34.040        93
34.050       120
34.060       113
34.070       147
34.080       113
34.090       100
34.100       120
34.110       133
34.120       113
34.130       147
34.140       107
34.150       120
34.160       107
34.170       100
34.180       107
34.190       100
34.200       153
34.210       127
34.220        93
34.230       167
34.240        80
34.250       100
34.260       113
34.270       153
34.280       153
34.290       107
34.300        87
34.310       113
34.320       127
34.330       113
34.340       107
34.350       113
34.360       127
34.370       160
34.380       107
34.390       100
34.400       120
34.410        87
34.420       160
34.430        93
34.440       107
34.450       127
34.460       180
34.470       107
34.480       173
34.490       133
34.500       140
34.510       100
34.520       113
34.530       113
34.540       113
34.550       100
34.560       120
34.570       133
34.580       173
34.590       113
34.600       153
34.610       133
34.620       127
34.630       127
34.640       127
34.650       113
34.660       120
34.670       133
34.680        93
34.690       133
34.700       133
34.710       113
34.720       140
34.730       167
34.740        60
34.750        73
34.760        60
34.770        73
34.780       153
34.790        87
34.800       133
34.810       107
34.820        67
34.830       100
34.840        87
34.850       107
34.860       100
34.870       120
34.880       133
34.890       120
34.900        93
34.910       120
34.920       120
34.930       140
34.940        80
34.950        87
34.960        93
34.970        93
34.980       127
34.990        87
35.000       107
35.010       100
35.020       147
35.030       153
35.040        73
35.050       113
35.060        93
35.070        93
35.080       120
35.090        93
35.100        93
35.110       113
35.120       120
35.130       100
35.140        67
35.150        73
35.160        60
35.170       120
35.180        73
35.190       107
35.200       133
35.210        80
35.220       133
35.230       120
35.240       100
35.250       147
35.260       113
35.270        67
35.280       127
35.290       147
35.300        80
35.310        80
35.320        67
35.330        73
35.340        67
35.350       127
35.360       113
35.370       107
35.380       100
35.390       140
35.400        80
35.410       100
35.420        60
35.430       120
35.440        93
35.450       100
35.460        47
35.470        87
35.480       113
35.490        80
35.500        93
35.510       127
35.520        73
35.530       100
35.540       107
35.550        60
35.560       133
35.570       107
35.580        93
35.590        93
35.600        80
35.610        73
35.620       113
35.630        47
35.640        80
35.650       100
35.660        73
35.670        73
35.680       120
35.690        80
35.700       107
35.710       113
35.720       113
35.730        40
35.740        93
35.750        67
35.760       100
35.770        80
35.780        87
35.790        87
35.800       120
35.810        73
35.820       100
35.830        60
35.840        80
35.850        60
35.860        60
35.870       140
35.880        60
35.890        87
35.900        73
35.910        87
35.920        60
35.930        80
35.940       107
35.950        80
35.960        73
35.970       113
35.980        67
35.990        60
36.000       140
36.010       140
36.020        40
36.030       113
36.040       107
36.050       100
36.060        47
36.070       120
36.080        53
36.090       107
36.100        73
36.110        80
36.120        87
36.130       107
36.140       100
36.150       113
36.160       100
36.170       127
36.180        87
36.190       100
36.200       120
36.210        67
36.220        67
36.230        67
36.240        73
36.250        67
36.260        87
36.270        80
36.280        93
36.290        67
36.300       100
36.310        87
36.320        80
36.330       100
36.340        87
36.350       100
36.360        67
36.370        53
36.380       113
36.390       120
36.400        93
36.410       120
36.420       133
36.430       100
36.440       100
36.450        53
36.460        60
36.470        80
36.480       113
36.490       120
36.500        93
36.510        60
36.520        80
36.530        87
36.540       153
36.550        73
36.560        67
36.570        47
36.580        67
36.590        47
36.600        53
36.610        73
36.620        60
36.630        67
36.640       107
36.650        73
36.660       100
36.670        93
36.680        67
36.690       100
36.700       100
36.710       120
36.720        67
36.730        93
36.740        47
36.750        87
36.760        67
36.770        33
36.780       100
36.790        80
36.800        87
36.810        87
36.820       100
36.830        73
36.840        60
36.850        73
36.860        73
36.870        73
36.880        27
36.890        93
36.900        60
36.910        27
36.920        67
36.930       100
36.940        73
36.950        93
36.960        73
36.970        47
36.980       100
36.990        47
37.000       100
37.010        47
37.020        53
37.030        73
37.040        80
37.050        60
37.060        73
37.070       100
37.080        60
37.090        73
37.100        93
37.110        80
37.120        60
37.130        67
37.140        93
37.150        87
37.160       107
37.170        73
37.180        67
37.190       107
37.200        40
37.210        87
37.220       100
37.230        53
37.240        47
37.250       100
37.260        80
37.270        67
37.280        60
37.290        67
37.300        73
37.310        87
37.320       113
37.330        53
37.340        47
37.350        80
37.360        53
37.370        67
37.380        60
37.390        40
37.400        67
37.410        47
37.420        60
37.430        67
37.440       100
37.450        60
37.460        73
37.470        47
37.480       113
37.490        47
37.500        67
37.510        60
37.520        93
37.530        80
37.540        53
37.550        40
37.560        67
37.570        60
37.580        67
37.590        80
37.600        40
37.610        87
37.620        87
37.630        33
37.640        60
37.650        67
37.660       100
37.670        73
37.680        47
37.690        67
37.700        80
37.710        40
37.720        53
37.730        33
37.740        47
37.750        67
37.760        40
37.770        47
37.780        47
37.790        27
37.800        53
37.810        93
37.820        53
37.830        73
37.840        60
37.850        47
37.860        67
37.870       100
37.880        67
37.890        40
37.900        60
37.910        53
37.920       107
37.930        53
37.940        53
37.950        73
37.960        80
37.970        67
37.980        60
37.990        47
38.000        87
38.010        60
38.020        27
38.030        33
38.040        73
38.050        93
38.060        93
38.070        40
38.080        60
38.090       120
38.100        87
38.110       100
38.120        60
38.130        67
38.140        13
38.150        87
38.160        40
38.170        80
38.180        53
38.190       100
38.200       100
38.210        67
38.220        80
38.230        80
38.240       100
38.250        67
38.260        67
38.270        67
38.280        53
38.290       100
38.300        93
38.310        93
38.320       107
38.330        73
38.340        73
38.350        73
38.360        67
38.370        60
38.380        47
38.390        87
38.400        60
38.410        67
38.420        53
38.430       113
38.440        67
38.450        80
38.460        87
38.470        80
38.480        80
38.490        20
38.500        67
38.510        87
38.520        13
38.530        60
38.540        53
38.550        73
38.560        67
38.570        33
38.580        73
38.590        67
38.600        47
38.610        60
38.620        47
38.630        67
38.640        67
38.650        53
38.660        73
38.670        40
38.680        60
38.690        60
38.700        60
38.710        67
38.720        67
38.730        33
38.740        73
38.750        47
38.760        47
38.770        53
38.780        40
38.790        67
38.800        40
38.810        40
38.820        67
38.830        40
38.840        67
38.850        87
38.860        47
38.870        40
38.880        47
38.890        60
38.900        73
38.910        73
38.920        73
38.930        60
38.940        80
38.950        93
38.960        47
38.970        60
38.980        67
38.990        87
39.000        93
39.010        40
39.020        33
39.030        60
39.040        67
39.050        53
39.060        40
39.070        27
39.080        47
39.090        47
39.100        53
39.110        60
39.120        67
39.130        27
39.140        47
39.150        53
39.160        93
39.170        20
39.180        47
39.190        47
39.200        47
39.210        13
39.220        53
39.230        73
39.240        47
39.250        27
39.260        67
39.270        53
39.280        40
39.290        53
39.300        93
39.310        33
39.320        80
39.330       107
39.340        60
39.350        73
39.360        47
39.370        53
39.380        33
39.390        67
39.400       107
39.410        40
39.420        53
39.430        40
39.440        60
39.450        80
39.460        60
39.470        40
39.480       100
39.490        67
39.500        47
39.510        67
39.520        60
39.530        40
39.540        27
39.550        33
39.560        27
39.570        47
39.580        40
39.590       100
39.600        40
39.610        33
39.620        93
39.630        47
39.640        40
39.650        33
39.660        80
39.670        60
39.680        60
39.690        40
39.700        13
39.710        40
39.720       107
39.730        53
39.740        67
39.750        33
39.760        27
39.770        53
39.780        60
39.790        53
39.800        20
39.810        60
39.820        53
39.830        73
39.840        80
39.850        53
39.860        53
39.870        87
39.880        87
39.890        47
39.900        60
39.910        53
39.920        67
39.930        53
39.940        53
39.950        47
39.960        33
39.970        67
39.980        53
39.990        47
40.000        67
40.010        67
40.020        47
40.030        47
40.040        53
40.050        40
40.060        47
40.070        47
40.080        47
40.090        27
40.100        40
40.110        40
40.120        80
40.130        60
40.140        47
40.150        13
40.160        27
40.170        87
40.180        40
40.190        33
40.200        47
40.210        53
40.220        60
40.230        40
40.240        60
40.250        33
40.260        20
40.270        53
40.280        60
40.290        67
40.300        40
40.310        47
40.320        60
40.330        73
40.340        40
40.350        40
40.360        87
40.370        60
40.380        13
40.390        40
40.400        80
40.410        60
40.420        40
40.430        53
40.440        53
40.450        47
40.460        27
40.470        33
40.480        53
40.490        67
40.500        27
40.510        27
40.520        53
40.530        60
40.540        33
40.550        53
40.560        67
40.570        53
40.580        47
40.590        40
40.600        47
40.610        47
40.620        53
40.630        33
40.640        53
40.650        40
40.660        27
40.670        40
40.680        40
40.690        47
40.700        27
40.710        20
40.720        73
40.730        33
40.740        27
40.750        73
40.760        33
40.770        47
40.780        33
40.790        33
40.800        40
40.810        80
40.820        20
40.830        60
40.840        27
40.850        47
40.860        27
40.870        60
40.880        33
40.890        60
40.900        53
40.910        53
40.920        33
40.930        67
40.940        87
40.950        33
40.960        67
40.970        27
40.980        33
40.990        47
41.000        33
41.010        73
41.020        73
41.030        67
41.040        20
41.050        47
41.060        20
41.070        40
41.080        73
41.090        40
41.100        33
41.110        53
41.120        27
41.130        40
41.140        33
41.150        27
41.160        33
41.170        13
41.180        27
41.190        40
41.200        33
41.210        33
41.220        40
41.230        40
41.240        40
41.250        47
41.260        53
41.270        60
41.280        33
41.290        67
41.300        40
41.310        40
41.320        20
41.330        47
41.340        33
41.350        13
41.360        27
41.370        40
41.380        40
41.390        47
41.400        67
41.410        13
41.420        47
41.430        13
41.440        33
41.450        20
41.460        13
41.470        53
41.480        40
41.490        47
41.500        13
41.510        47
41.520        27
41.530        20
41.540        40
41.550        60
41.560        40
41.570        53
41.580        87
41.590        27
41.600        53
41.610        33
41.620        40
41.630        27
41.640        53
41.650        53
41.660        47
41.670        27
41.680        33
41.690        13
41.700        27
41.710        20
41.720        53
41.730        33
41.740        33
41.750        40
41.760        53
41.770        33
41.780        47
41.790        53
41.800        33
41.810        53
41.820        53
41.830        27
41.840        20
41.850        27
41.860        27
41.870        33
41.880        60
41.890        20
41.900        60
41.910        40
41.920        27
41.930        27
41.940        47
41.950        60
41.960        67
41.970        40
41.980        60
41.990        33
42.000        47
42.010        33
42.020        60
42.030        33
42.040        47
42.050        13
42.060       100
42.070        80
42.080        33
42.090        67
42.100        53
42.110        73
42.120        67
42.130        80
42.140        33
42.150        40
42.160        60
42.170        47
42.180        80
42.190        73
42.200        73
42.210        40
42.220        87
42.230        60
42.240       100
42.250        27
42.260        67
42.270        87
42.280        73
42.290        53
42.300        27
42.310        93
42.320        53
42.330        53
42.340        60
42.350        33
42.360        80
42.370        13
42.380        53
42.390        53
42.400        27
42.410        33
42.420        47
42.430        47
42.440        47
42.450        60
42.460        60
42.470        27
42.480        73
42.490        53
42.500        20
42.510        33
42.520        73
42.530        27
42.540        53
42.550        40
42.560        40
42.570        47
42.580        40
42.590        93
42.600        20
42.610        33
42.620        40
42.630        33
42.640        33
42.650        33
42.660        33
42.670        53
42.680        33
42.690         7
42.700        13
42.710        80
42.720        27
42.730        13
42.740        60
42.750        47
42.760        27
42.770        40
42.780        40
42.790        80
42.800        40
42.810        33
42.820        27
42.830        60
42.840        47
42.850        13
42.860        40
42.870        47
42.880        33
42.890        47
42.900        60
42.910        33
42.920        40
42.930        40
42.940        40
42.950        53
42.960        33
42.970        47
42.980        13
42.990        40
43.000        27
43.010        53
43.020        33
43.030        13
43.040        33
43.050        47
43.060        67
43.070        60
43.080        20
43.090        47
43.100        33
43.110        13
43.120        13
43.130        33
43.140        40
43.150        47
43.160        53
43.170        13
43.180        20
43.190        47
43.200        53
43.210        13
43.220        40
43.230        40
43.240        20
43.250        40
43.260        20
43.270        40
43.280        40
43.290        20
43.300        33
43.310        33
43.320        20
43.330        47
43.340        20
43.350        33
43.360        33
43.370        27
43.380        60
43.390         7
43.400        47
43.410        40
43.420        40
43.430        13
43.440        20
43.450        33
43.460        27
43.470        13
43.480        27
43.490        47
43.500        40
43.510         7
43.520        33
43.530        60
43.540        73
43.550        40
43.560        27
43.570        40
43.580        27
43.590        20
43.600        40
43.610        27
43.620        33
43.630        20
43.640        53
43.650        67
43.660        53
43.670        60
43.680        47
43.690        20
43.700        60
43.710        33
43.720        53
43.730        47
43.740        47
43.750        20
43.760        33
43.770        53
43.780        40
43.790        40
43.800        40
43.810        40
43.820        60
43.830        60
43.840        53
43.850        13
43.860        13
43.870        20
43.880        13
43.890        33
43.900        33
43.910        67
43.920        20
43.930        27
43.940        27
43.950        40
43.960        33
43.970        27
43.980        20
43.990        27
44.000        33
44.010        67
44.020        40
44.030        33
44.040        53
44.050        53
44.060        47
44.070        13
44.080        47
44.090        47
44.100        27
44.110        20
44.120        47
44.130        60
44.140        20
44.150        93
44.160        60
44.170        20
44.180        20
44.190        33
44.200        33
44.210        27
44.220        33
44.230        13
44.240        60
44.250        33
44.260        27
44.270        40
44.280        33
44.290        53
44.300        33
44.310        20
44.320        20
44.330        53
44.340        47
44.350        27
44.360        47
44.370        27
44.380        40
44.390        47
44.400        47
44.410        27
44.420        53
44.430        53
44.440        27
44.450        13
44.460        27
44.470        53
44.480        33
44.490        13
44.500        40
44.510        27
44.520        47
44.530        27
44.540         0
44.550        40
44.560        80
44.570        60
44.580        47
44.590        27
44.600        20
44.610        40
44.620        40
44.630        27
44.640        27
44.650        20
44.660        13
44.670        20
44.680        27
44.690        13
44.700        40
44.710        27
44.720        13
44.730        27
44.740        40
44.750        20
44.760        33
44.770        13
44.780        60
44.790        20
44.800        67
44.810        33
44.820        13
44.830        13
44.840        40
44.850        47
44.860        40
44.870        20
44.880        67
44.890        20
44.900        67
44.910        20
44.920        33
44.930        13
44.940        73
44.950        53
44.960        27
44.970        40
44.980        33
44.990        33
45.000        53
45.010         7
45.020        33
45.030        67
45.040        27
45.050        60
45.060        33
45.070        40
45.080        13
45.090        20
45.100        27
45.110        80
45.120        47
45.130        33
45.140        20
45.150        27
45.160        33
45.170        33
45.180        27
45.190        47
45.200        53
45.210         7
45.220        33
45.230        20
45.240        20
45.250        53
45.260        27
45.270        40
45.280        40
45.290        20
45.300        27
45.310        40
45.320        13
45.330        20
45.340        40
45.350        53
45.360         7
45.370        40
45.380        20
45.390        40
45.400        53
45.410        33
45.420        27
45.430        67
45.440        27
45.450        60
45.460        47
45.470        20
45.480        27
45.490        20
45.500        20
45.510        27
45.520        27
45.530        47
45.540        53
45.550        20
45.560        47
45.570        47
45.580        20
45.590        60
45.600         7
45.610        73
45.620        20
45.630        20
45.640        27
45.650        40
45.660        33
45.670        13
45.680        20
45.690        33
45.700        33
45.710        40
45.720         7
45.730        20
45.740        47
45.750        33
45.760        27
45.770        27
45.780        67
45.790        53
45.800        40
45.810        53
45.820        33
45.830        53
45.840        40
45.850        27
45.860        40
45.870        27
45.880        33
45.890        13
45.900        47
45.910        47
45.920        40
45.930        33
45.940        47
45.950        53
45.960        60
45.970        53
45.980        87
45.990        80
46.000        60
46.010        87
46.020        60
46.030        87
46.040        93
46.050        27
46.060        60
46.070        40
46.080        40
46.090        40
46.100       100
46.110       107
46.120        73
46.130        67
46.140        60
46.150        87
46.160        93
46.170        33
46.180        47
46.190        27
46.200        53
46.210        47
46.220        67
46.230        60
46.240        87
46.250        67
46.260        53
46.270        53
46.280        53
46.290        87
46.300       107
46.310        33
46.320        60
46.330        60
46.340        40
46.350        67
46.360        13
46.370        20
46.380        20
46.390        33
46.400        47
46.410        33
46.420        40
46.430        27
46.440        73
46.450        47
46.460        40
46.470        80
46.480        33
46.490        47
46.500        40
46.510        53
46.520        47
46.530        40
46.540        27
46.550        67
46.560        60
46.570        73
46.580        33
46.590        73
46.600        47
46.610        87
46.620        47
46.630       100
46.640        80
46.650       100
46.660        93
46.670        60
46.680        73
46.690       133
46.700        53
46.710       107
46.720       187
46.730       113
46.740       147
46.750       213
46.760       173
46.770       167
46.780       113
46.790       133
46.800       227
46.810       167
46.820       153
46.830       160
46.840       213
46.850       173
46.860       140
46.870       127
46.880       153
46.890       220
46.900       240
46.910       113
46.920       173
46.930       147
46.940        73
46.950       180
46.960       153
46.970       113
46.980       140
46.990        93
47.000       180
47.010       133
47.020        93
47.030       180
47.040        87
47.050       167
47.060       173
47.070       140
47.080       147
47.090       173
47.100       127
47.110       173
47.120       180
47.130       273
47.140       327
47.150       426
47.160       580
47.170       806
47.180       960
47.190      1299
47.200      1393
47.210      1486
47.220      1453
47.230      1220
47.240      1033
47.250       673
47.260       680
47.270       393
47.280       380
47.290       233
47.300       207
47.310       187
47.320       153
47.330       233
47.340       147
47.350        87
47.360       107
47.370       133
47.380        87
47.390       133
47.400        93
47.410       100
47.420       100
47.430        73
47.440        73
47.450        53
47.460        60
47.470        53
47.480        87
47.490        27
47.500        73
47.510        53
47.520        27
47.530        80
47.540        80
47.550        53
47.560        47
47.570        67
47.580        47
47.590        40
47.600        33
47.610        47
47.620        67
47.630        60
47.640        93
47.650        27
47.660        47
47.670        47
47.680        93
47.690        73
47.700        53
47.710        67
47.720        20
47.730        13
47.740        67
47.750        60
47.760        33
47.770        93
47.780        13
47.790         7
47.800        40
47.810        60
47.820        47
47.830       127
47.840        33
47.850        40
47.860        53
47.870        60
47.880        33
47.890        73
47.900        53
47.910        20
47.920        47
47.930        60
47.940        60
47.950        40
47.960        53
47.970        13
47.980        47
47.990        67
48.000        33
48.010        33
48.020        13
48.030        60
48.040        60
48.050        40
48.060        33
48.070        47
48.080        47
48.090        27
48.100        40
48.110        87
48.120        53
48.130        60
48.140        47
48.150        40
48.160        53
48.170        20
48.180        53
48.190        20
48.200        27
48.210        40
48.220        73
48.230        53
48.240        40
48.250        73
48.260        33
48.270        53
48.280        40
48.290        40
48.300        40
48.310        67
48.320        20
48.330        13
48.340        27
48.350        40
48.360        60
48.370        27
48.380        53
48.390        20
48.400        73
48.410        53
48.420        67
48.430        67
48.440        27
48.450       280
48.460        33
48.470        67
48.480        60
48.490        47
48.500        33
48.510        27
48.520        27
48.530        53
48.540        40
48.550        33
48.560        20
48.570        40
48.580        27
48.590        40
48.600        67
48.610        20
48.620        40
48.630        60
48.640        47
48.650        33
48.660        27
48.670        27
48.680        27
48.690        27
48.700        33
48.710        53
48.720        47
48.730        27
48.740        53
48.750        53
48.760        40
48.770        53
48.780        53
48.790        33
48.800        33
48.810        60
48.820        67
48.830        67
48.840        40
48.850        27
48.860        20
48.870        53
48.880        60
48.890        47
48.900        53
48.910        73
48.920        40
48.930        60
48.940        53
48.950        60
48.960        20
48.970        93
48.980        47
48.990        40
49.000        80
49.010        60
49.020        53
49.030        80
49.040        27
49.050        60
49.060        40
49.070        67
49.080        87
49.090        40
49.100        47
49.110        60
49.120        33
49.130        87
49.140        33
49.150        73
49.160        67
49.170        60
49.180        20
49.190        47
49.200        33
49.210        27
49.220        27
49.230        53
49.240        20
49.250        60
49.260        40
49.270        27
49.280        33
49.290        47
49.300        40
49.310        53
49.320        27
49.330        33
49.340        40
49.350        33
49.360        33
49.370        53
49.380        40
49.390        80
49.400        20
49.410        53
49.420        27
49.430        27
49.440        67
49.450        40
49.460        53
49.470        60
49.480        27
49.490        33
49.500        40
49.510        33
49.520        47
49.530        60
49.540        60
49.550         7
49.560        47
49.570        33
49.580        73
49.590        40
49.600        27
49.610        20
49.620        47
49.630        53
49.640        60
49.650        13
49.660        27
49.670        47
49.680        67
49.690        53
49.700        20
49.710        53
49.720        13
49.730        40
49.740        53
49.750        47
49.760        47
49.770        53
49.780        20
49.790        33
49.800        33
49.810        60
49.820        20
49.830        60
49.840        53
49.850        53
49.860        47
49.870        53
49.880        47
49.890        47
49.900        27
49.910        33
49.920        33
49.930        40
49.940        40
49.950        53
49.960        53
49.970        47
49.980        53
49.990        13
50.000        13
50.010        27
50.020        47
50.030        13
50.040        27
50.050        60
50.060        27
50.070        47
50.080        47
50.090        60
50.100        67
50.110        53
50.120        40
50.130        40
50.140        13
50.150        47
50.160        67
50.170        40
50.180        53
50.190        73
50.200        67
50.210        87
50.220        20
50.230        40
50.240        60
50.250        47
50.260        47
50.270        47
50.280        80
50.290         7
50.300        27
50.310        33
50.320        53
50.330        60
50.340        40
50.350        60
50.360        20
50.370        87
50.380        27
50.390        87
50.400        47
50.410        33
50.420        67
50.430        47
50.440        40
50.450        60
50.460        40
50.470        40
50.480        40
50.490        47
50.500        27
50.510        73
50.520        53
50.530        60
50.540        60
50.550        47
50.560        53
50.570        67
50.580        87
50.590        53
50.600        33
50.610        93
50.620       113
50.630        80
50.640        60
50.650        73
50.660       187
50.670       160
50.680       207
50.690       260
50.700       320
50.710       260
50.720       287
50.730       307
50.740       287
50.750       393
50.760       320
50.770       287
50.780       300
50.790       360
50.800       360
50.810       407
50.820       320
50.830       367
50.840       380
50.850       327
50.860       367
50.870       400
50.880       340
50.890       347
50.900       320
50.910       373
50.920       373
50.930       400
50.940       413
50.950       333
50.960       367
50.970       400
50.980       353
50.990       327
51.000       333
51.010       453
51.020       407
51.030       413
51.040       293
51.050       307
51.060       340
51.070       293
51.080       413
51.090       420
51.100       327
51.110       260
51.120       367
51.130       353
51.140       300
51.150       373
51.160       320
51.170       393
51.180       347
51.190       387
51.200       407
51.210       387
51.220       293
51.230       513
51.240       380
51.250       227
51.260       407
51.270       367
51.280       320
51.290       420
51.300       333
51.310       380
51.320       453
51.330       460
51.340       280
51.350       240
51.360       347
51.370       293
51.380       413
51.390       340
51.400       367
51.410       307
51.420       353
51.430       420
51.440       313
51.450       320
51.460       426
51.470       393
51.480       540
51.490       387
51.500       373
51.510       360
51.520       387
51.530       273
51.540       393
51.550       413
51.560       313
51.570       413
51.580       380
51.590       347
51.600       493
51.610       426
51.620       360
51.630       453
51.640       440
51.650       387
51.660       446
51.670       433
51.680       526
51.690       493
51.700       327
51.710       440
51.720       426
51.730       340
51.740       407
51.750       413
51.760       460
51.770       413
51.780       400
51.790       420
51.800       360
51.810       560
51.820       566
51.830       440
51.840       407
51.850       546
51.860       526
51.870       460
51.880       526
51.890       400
51.900       466
51.910       413
51.920       553
51.930       540
51.940       440
51.950       546
51.960       546
51.970       433
51.980       553
51.990       526
52.000       500
52.010       533
52.020       513
52.030       553
52.040       540
52.050       500
52.060       466
52.070       473
52.080       600
52.090       600
52.100       560
52.110       566
52.120       593
52.130       500
52.140       553
52.150       666
52.160       586
52.170       673
52.180       853
52.190       666
52.200       793
52.210       780
52.220       926
52.230       880
52.240       820
52.250       906
52.260      1053
52.270      1086
52.280      1326
52.290      1299
52.300      1873
52.310      2013
52.320      2232
52.330      2339
52.340      2739
52.350      2566
52.360      3225
52.370      3099
52.380      3292
52.390      3592
52.400      4125
52.410      4532
52.420      5031
52.430      5738
52.440      6571
52.450      6577
52.460      8417
52.470      8303
52.480      9203
52.490     10103
52.500     11715
52.510     13655
52.520     16827
52.530     21911
52.540     32001
52.550     51899
52.560     81001
52.570    111575
52.580    138198
52.590    151060
52.600    161149
52.610    160049
52.620    152239
52.630    133060
52.640    104105
52.650     71718
52.660     49307
52.670     37092
52.680     34400
52.690     40850
52.700     54012
52.710     69179
52.720     82567
52.730     91190
52.740     96108
52.750     93116
52.760     87985
52.770     74943
52.780     57437
52.790     39484
52.800     25370
52.810     16827
52.820     12442
52.830      9216
52.840      8430
52.850      7150
52.860      6971
52.870      5831
52.880      5671
52.890      5311
52.900      4358
52.910      3785
52.920      3012
52.930      2646
52.940      2226
52.950      1699
52.960      1646
52.970      1326
52.980      1459
52.990      1486
53.000      1253
53.010      1140
53.020      1193
53.030       926
53.040      1000
53.050       940
53.060       820
53.070       986
53.080       873
53.090       853
53.100       840
53.110       800
53.120       853
53.130       640
53.140       726
53.150       740
53.160       700
53.170       553
53.180       666
53.190       740
53.200       666
53.210       600
53.220       640
53.230       566
53.240       613
53.250       580
53.260       613
53.270       580
53.280       540
53.290       606
53.300       613
53.310       640
53.320       480
53.330       520
53.340       440
53.350       553
53.360       533
53.370       473
53.380       486
53.390       500
53.400       506
53.410       446
53.420       540
53.430       520
53.440       466
53.450       373
53.460       387
53.470       446
53.480       473
53.490       460
53.500       453
53.510       453
53.520       526
53.530       407
53.540       407
53.550       347
53.560       466
53.570       360
53.580       426
53.590       420
53.600       320
53.610       453
53.620       433
53.630       433
53.640       486
53.650       373
53.660       340
53.670       440
53.680       426
53.690       367
53.700       400
53.710       367
53.720       313
53.730       273
53.740       300
53.750       333
53.760       380
53.770       360
53.780       313
53.790       353
53.800       313
53.810       327
53.820       333
53.830       320
53.840       300
53.850       333
53.860       300
53.870       327
53.880       227
53.890       307
53.900       327
53.910       393
53.920       273
53.930       313
53.940       347
53.950       293
53.960       300
53.970       293
53.980       273
53.990       287
54.000       260
54.010       387
54.020       347
54.030       327
54.040       320
54.050       267
54.060       267
54.070       313
54.080       293
54.090       280
54.100       280
54.110       253
54.120       273
54.130       233
54.140       280
54.150       333
54.160       313
54.170       273
54.180       293
54.190       260
54.200       280
54.210       173
54.220       260
54.230       327
54.240       327
54.250       367
54.260       267
54.270       240
54.280       233
54.290       273
54.300       240
54.310       313
54.320       253
54.330       287
54.340       187
54.350       360
54.360       340
54.370       313
54.380       247
54.390       287
54.400       373
54.410       260
54.420       227
54.430       213
54.440       313
54.450       233
54.460       240
54.470       380
54.480       267
54.490       200
54.500       193
54.510       247
54.520       373
54.530       167
54.540       287
54.550       267
54.560       273
54.570       247
54.580       220
54.590       193
54.600       273
54.610       207
54.620       327
54.630       200
54.640       293
54.650       227
54.660       267
54.670       213
54.680       213
54.690       247
54.700       233
54.710       267
54.720       220
54.730       240
54.740       240
54.750       273
54.760       260
54.770       287
54.780       220
54.790       193
54.800       260
54.810       220
54.820       253
54.830       260
54.840       253
54.850       287
54.860       160
54.870       267
54.880       193
54.890       253
54.900       207
54.910       293
54.920       240
54.930       253
54.940       233
54.950       200
54.960       233
54.970       287
54.980       293
54.990       233
55.000       213
55.010       273
55.020       247
55.030       193
55.040       200
55.050       207
55.060       273
55.070       233
55.080       227
55.090       260
55.100       207
55.110       253
55.120       233
55.130       213
55.140       240
55.150       253
55.160       227
55.170       340
55.180       233
55.190       247
55.200       240
55.210       187
55.220       220
55.230       187
55.240       267
55.250       173
55.260       160
55.270       200
55.280       173
55.290       153
55.300       160
55.310       220
55.320       220
55.330       207
55.340       193
55.350       233
55.360       207
55.370       193
55.380       227
55.390       220
55.400       193
55.410        93
55.420       207
55.430       233
55.440       180
55.450       227
55.460       220
55.470       213
55.480       173
55.490       193
55.500       200
55.510       193
55.520       140
55.530       187
55.540       213
55.550       240
55.560       193
55.570       207
55.580       153
55.590       207
55.600       200
55.610       227
55.620       187
55.630       173
55.640       253
55.650       180
55.660       187
55.670       160
55.680       220
55.690       180
55.700       180
55.710       207
55.720       180
55.730       180
55.740       187
55.750       180
55.760       233
55.770       173
55.780       253
55.790       247
55.800       220
55.810       220
55.820       307
55.830       193
55.840       227
55.850       200
55.860       180
55.870       193
55.880       173
55.890       153
55.900       293
55.910       160
55.920       240
55.930       253
55.940       253
55.950       200
55.960       153
55.970       193
55.980       240
55.990       207
56.000       147
56.010       233
56.020       213
56.030       160
56.040       173
56.050       160
56.060       253
56.070       267
56.080       147
56.090       247
56.100       213
56.110       140
56.120       187
56.130       240
56.140       167
56.150       167
56.160       160
56.170       187
56.180       260
56.190       200
56.200       147
56.210       213
56.220       240
56.230       167
56.240       160
56.250       147
56.260       240
56.270       127
56.280       193
56.290       153
56.300       247
56.310       187
56.320       240
56.330       153
56.340       200
56.350       180
56.360       147
56.370       200
56.380       160
56.390       167
56.400       100
56.410       193
56.420       187
56.430       140
56.440       153
56.450       180
56.460       160
56.470       187
56.480       220
56.490       160
56.500       193
56.510       147
56.520       160
56.530       180
56.540       147
56.550       160
56.560       187
56.570       200
56.580       140
56.590       140
56.600       200
56.610       133
56.620       160
56.630       147
56.640       113
56.650       220
56.660       160
56.670       187
56.680       153
56.690       173
56.700       213
56.710       160
56.720       173
56.730       193
56.740       133
56.750       193
56.760       127
56.770       140
56.780       227
56.790       173
56.800       120
56.810       140
56.820       113
56.830       187
56.840       200
56.850       173
56.860       160
56.870       140
56.880       167
56.890       180
56.900       153
56.910       167
56.920       167
56.930       233
56.940       207
56.950       133
56.960       127
56.970       173
56.980       127
56.990       107
57.000       133
57.010       193
57.020       153
57.030       160
57.040       173
57.050       180
57.060       180
57.070       133
57.080       133
57.090       100
57.100       147
57.110       160
57.120       167
57.130       153
57.140       200
57.150       133
57.160       173
57.170       140
57.180       173
57.190       187
57.200       153
57.210       160
57.220       227
57.230       160
57.240       140
57.250       167
57.260       167
57.270       133
57.280       227
57.290       133
57.300       173
57.310       147
57.320       140
57.330       193
57.340       120
57.350       193
57.360       173
57.370       160
57.380       153
57.390       120
57.400       113
57.410       207
57.420       213
57.430       133
57.440       120
57.450       207
57.460       140
57.470       147
57.480       200
57.490       120
57.500       127
57.510       173
57.520       113
57.530       153
57.540       167
57.550       120
57.560       167
57.570       153
57.580       187
57.590       140
57.600       153
57.610       173
57.620       133
57.630       220
57.640       120
57.650        87
57.660       167
57.670       187
57.680        93
57.690       147
57.700       140
57.710       113
57.720       120
57.730       140
57.740       167
57.750       120
57.760        80
57.770       127
57.780       147
57.790       127
57.800       120
57.810       140
57.820       147
57.830       100
57.840       127
57.850       180
57.860       133
57.870       127
57.880       107
57.890       173
57.900       100
57.910       133
57.920       160
57.930       213
57.940       127
57.950       180
57.960       113
57.970       100
57.980       107
57.990       193
58.000       107
58.010       153
58.020       127
58.030       147
58.040       127
58.050       127
58.060       147
58.070       140
58.080       200
58.090       127
58.100       173
58.110       167
58.120        80
58.130       207
58.140       173
58.150       140
58.160       100
58.170       147
58.180       147
58.190       120
58.200       147
58.210       147
58.220       207
58.230       140
58.240       160
58.250       120
58.260       160
58.270        67
58.280       107
58.290       113
58.300       100
58.310       120
58.320       100
58.330       133
58.340       140
58.350       127
58.360        80
58.370       147
58.380        80
58.390       147
58.400       187
58.410       200
58.420       100
58.430       120
58.440        80
58.450       133
58.460       120
58.470       100
58.480       133
58.490       147
58.500       113
58.510       167
58.520       120
58.530       133
58.540       113
58.550       133
58.560       173
58.570       120
58.580       140
58.590        93
58.600       133
58.610       107
58.620       173
58.630       193
58.640       180
58.650       120
58.660       107
58.670       140
58.680       173
58.690       140
58.700        53
58.710       107
58.720       127
58.730        87
58.740       173
58.750       107
58.760       140
58.770       140
58.780        87
58.790       140
58.800       147
58.810       133
58.820       167
58.830       153
58.840       167
58.850       180
58.860       107
58.870       120
58.880       100
58.890       100
58.900        80
58.910       107
58.920       160
58.930       167
58.940       107
58.950       107
58.960       113
58.970       113
58.980       113
58.990        93
59.000       120
59.010       153
59.020        93
59.030       120
59.040       107
59.050       187
59.060       107
59.070        87
59.080       153
59.090       133
59.100        93
59.110       113
59.120       133
59.130       173
59.140       140
59.150       113
59.160       140
59.170       113
59.180       120
59.190       140
59.200       107
59.210       100
59.220       147
59.230       147
59.240       127
59.250       167
59.260       100
59.270        80
59.280       113
59.290        93
59.300       120
59.310       100
59.320       200
59.330       173
59.340        87
59.350       127
59.360       113
59.370       113
59.380       107
59.390        93
59.400       107
59.410       133
59.420       120
59.430       113
59.440       153
59.450       107
59.460       113
59.470       107
59.480       113
59.490       127
59.500       167
59.510       147
59.520       120
59.530       167
59.540       140
59.550       113
59.560       100
59.570        87
59.580       100
59.590       120
59.600       147
59.610       100
59.620       160
59.630        67
59.640       140
59.650       113
59.660       167
59.670        53
59.680       180
59.690       147
59.700       160
59.710       133
59.720       100
59.730       107
59.740        80
59.750       120
59.760        53
59.770       100
59.780       213
59.790        87
59.800       100
59.810       147
59.820       107
59.830       100
59.840       147
59.850       107
59.860       100
59.870       107
59.880       120
59.890       153
59.900       147
59.910       120
59.920        93
59.930       120
59.940        80
59.950       113
59.960       147
59.970       100
59.980        80
59.990        80
60.000        80
