20.000        20
20.010        67
20.020        67
20.030        33
20.040        47
20.050        40
20.060        73
20.070        33
20.080        60
20.090        27
20.100        47
20.110        73
20.120        67
20.130        60
20.140        40
20.150        33
20.160        60
20.170        27
20.180        20
20.190        20
20.200        40
20.210        20
20.220        33
20.230        33
20.240        53
20.250        27
20.260        27
20.270        47
20.280        33
20.290        47
20.300        53
20.310        53
20.320        53
20.330        73
20.340        27
20.350        47
20.360        93
20.370        33
20.380        53
20.390        60
20.400        40
20.410        87
20.420        47
20.430        27
20.440        33
20.450        67
20.460        27
20.470        47
20.480        53
20.490        20
20.500        60
20.510        27
20.520        33
20.530        20
20.540        40
20.550        67
20.560        53
20.570        47
20.580        20
20.590        53
20.600        20
20.610        20
20.620        53
20.630        47
20.640        67
20.650        33
20.660        47
20.670        20
20.680        40
20.690        33
20.700        53
20.710        40
20.720        73
20.730        20
20.740        13
20.750        13
20.760        33
20.770        80
20.780        67
20.790        13
20.800        33
20.810        47
20.820        47
20.830        33
20.840        20
20.850        67
20.860        73
20.870        40
20.880        20
20.890        53
20.900        13
20.910        20
20.920        60
20.930        33
20.940        27
20.950        47
20.960         7
20.970        47
20.980        47
20.990        33
21.000        33
21.010        33
21.020        60
21.030        53
21.040        53
21.050        67
21.060        47
21.070        53
21.080        33
21.090        27
21.100        60
21.110        47
21.120        40
21.130        67
21.140        47
21.150        13
21.160        60
21.170        27
21.180        47
21.190        47
21.200        33
21.210        20
21.220        20
21.230        67
21.240        33
21.250        33
21.260        20
21.270        20
21.280        40
21.290        13
21.300        53
21.310        40
21.320        73
21.330        27
21.340         7
21.350        60
21.360        33
21.370        33
21.380        40
21.390        73
21.400        27
21.410        33
21.420        53
21.430        60
21.440        40
21.450        33
21.460        33
21.470        47
21.480        27
21.490        33
21.500        33
21.510        27
21.520        27
21.530        20
21.540        27
21.550        27
21.560        73
21.570        53
21.580        53
21.590        47
21.600        60
21.610        27
21.620        67
21.630        47
21.640        33
21.650        60
21.660        20
21.670         7
21.680        40
21.690        27
21.700        27
21.710        40
21.720        60
21.730        20
21.740        20
21.750        27
21.760        33
21.770        40
21.780        40
21.790        40
21.800        47
21.810        27
21.820        20
21.830        20
21.840        33
21.850        33
21.860        67
21.870        33
21.880        40
21.890        60
21.900        40
21.910        33
21.920        27
21.930        27
21.940        20
21.950        27
21.960        13
21.970        33
21.980        53
21.990        47
22.000        27
22.010        40
22.020         7
22.030        33
22.040        20
22.050        33
22.060        47
22.070        33
22.080         0
22.090        33
22.100        47
22.110        40
22.120        47
22.130        40
22.140        33
22.150        27
22.160        87
22.170        20
22.180        47
22.190        60
22.200        27
22.210        20
22.220        27
22.230        13
22.240        27
22.250        33
22.260        40
22.270        27
22.280        73
22.290        47
22.300        33
22.310        60
22.320        33
22.330        60
22.340        27
22.350        47
22.360        53
22.370        47
22.380        33
22.390        47
22.400        40
22.410        27
22.420        67
22.430        67
22.440        53
22.450        27
22.460        53
22.470        40
22.480        33
22.490        13
22.500        40
22.510        47
22.520        20
22.530         7
22.540        13
22.550        33
22.560        27
22.570        27
22.580        53
22.590        40
22.600        40
22.610        33
22.620        20
22.630        13
22.640        27
22.650        27
22.660        60
22.670        27
22.680        33
22.690        33
22.700        33
22.710        40
22.720        67
22.730        40
22.740        33
22.750        47
22.760        13
22.770        40
22.780        27
22.790         7
22.800        20
22.810        40
22.820        40
22.830        47
22.840        60
22.850        20
22.860        13
22.870        33
22.880        33
22.890        33
22.900        27
22.910        47
22.920        33
22.930        40
22.940        40
22.950        27
22.960        20
22.970        33
22.980        33
22.990        47
23.000        20
23.010        33
23.020        13
23.030        27
23.040        33
23.050        60
23.060        33
23.070        33
23.080        33
23.090        13
23.100        27
23.110        20
23.120        33
23.130        40
23.140        27
23.150        40
23.160        33
23.170        20
23.180        13
23.190        53
23.200        53
23.210        27
23.220        40
23.230        27
23.240        13
23.250        13
23.260        40
23.270        27
23.280        13
23.290        40
23.300        20
23.310         0
23.320        47
23.330        27
23.340        60
23.350        40
23.360        33
23.370        33
23.380        40
23.390        20
23.400        40
23.410        40
23.420        40
23.430        33
23.440        40
23.450         7
23.460        67
23.470        47
23.480        40
23.490        53
23.500        33
23.510        20
23.520        33
23.530         0
23.540        27
23.550        13
23.560        40
23.570        13
23.580         0
23.590        20
23.600        13
23.610        27
23.620        33
23.630        20
23.640        33
23.650        47
23.660        20
23.670        20
23.680        33
23.690        33
23.700        33
23.710        13
23.720        33
23.730        27
23.740        33
23.750        33
23.760        53
23.770        20
23.780        47
23.790        20
23.800        60
23.810        33
23.820        47
23.830        40
23.840        27
23.850        33
23.860        13
23.870        13
23.880        33
23.890        13
23.900         7
23.910        47
23.920        20
23.930        47
23.940        53
23.950        67
23.960        53
23.970        33
23.980        33
23.990        20
24.000        33
24.010        27
24.020        33
24.030        27
24.040        27
24.050        20
24.060        40
24.070        47
24.080         7
24.090        40
24.100        40
24.110        33
24.120        40
24.130        47
24.140        47
24.150        20
24.160        33
24.170        27
24.180        13
24.190        27
24.200        33
24.210        40
24.220        33
24.230        27
24.240         7
24.250        13
24.260        27
24.270        13
24.280        40
24.290        13
24.300        20
24.310        67
24.320        27
24.330        20
24.340        20
24.350         7
24.360        53
24.370        47
24.380        40
24.390        33
24.400        33
24.410        20
24.420        20
24.430        40
24.440        47
24.450        40
24.460        20
24.470        53
24.480        27
24.490        40
24.500        20
24.510        67
24.520        53
24.530        20
24.540        33
24.550         0
24.560        40
24.570        33
24.580        13
24.590        33
24.600        33
24.610         7
24.620        33
24.630        40
24.640        40
24.650        47
24.660        40
24.670        40
24.680        33
24.690        33
24.700        40
24.710        33
24.720        33
24.730        27
24.740        27
24.750        20
24.760        47
24.770        13
24.780        40
24.790        27
24.800        13
24.810        33
24.820        47
24.830        40
24.840        13
24.850        13
24.860        13
24.870        33
24.880        20
24.890        20
24.900        20
24.910        13
24.920        33
24.930        20
24.940        33
24.950        33
24.960         7
24.970        33
24.980        13
24.990        47
25.000        60
25.010        33
25.020        47
25.030        33
25.040        60
25.050        20
25.060        40
25.070        40
25.080        13
25.090        27
25.100        27
25.110        47
25.120        27
25.130        20
25.140        20
25.150        47
25.160        40
25.170         7
25.180        20
25.190        27
25.200        20
25.210        53
25.220        13
25.230        67
25.240        13
25.250        13
25.260        13
25.270        40
25.280        40
25.290        20
25.300         7
25.310        27
25.320        27
25.330        40
25.340        33
25.350        47
25.360        40
25.370        53
25.380        27
25.390        40
25.400        27
25.410        27
25.420        60
25.430        33
25.440        40
25.450        40
25.460        27
25.470        33
25.480        33
25.490        20
25.500        33
25.510        60
25.520        73
25.530        20
25.540         7
25.550        20
25.560        33
25.570        27
25.580         7
25.590        33
25.600        47
25.610         7
25.620        27
25.630        27
25.640        67
25.650         7
25.660        40
25.670        40
25.680        20
25.690        40
25.700        20
25.710        47
25.720        20
25.730        27
25.740        27
25.750        40
25.760        27
25.770        33
25.780        13
25.790        33
25.800        67
25.810        20
25.820        33
25.830        27
25.840        27
25.850         7
25.860        33
25.870        60
25.880        27
25.890        20
25.900        33
25.910        20
25.920        73
25.930        33
25.940        13
25.950         7
25.960        33
25.970        13
25.980        13
25.990        27
26.000        40
26.010        27
26.020         7
26.030        27
26.040         0
26.050        27
26.060        40
26.070        13
26.080        13
26.090        33
26.100        13
26.110        20
26.120        20
26.130        27
26.140        60
26.150        27
26.160        33
26.170        13
26.180        40
26.190        40
26.200        47
26.210        40
26.220        53
26.230        33
26.240        20
26.250        13
26.260        20
26.270        47
26.280        20
26.290        33
26.300        40
26.310        20
26.320        47
26.330        40
26.340         7
26.350        47
26.360        40
26.370        40
26.380        33
26.390        40
26.400         7
26.410        40
26.420        47
26.430        47
26.440        20
26.450        20
26.460        33
26.470        20
26.480        13
26.490        40
26.500        20
26.510        47
26.520        20
26.530        27
26.540        33
26.550        40
26.560        47
26.570        47
26.580        33
26.590        40
26.600        27
26.610        47
26.620        27
26.630        13
26.640        47
26.650        33
26.660         7
26.670         7
26.680        27
26.690        53
26.700        53
26.710        13
26.720        33
26.730        27
26.740        27
26.750        20
26.760        13
26.770        27
26.780        33
26.790        27
26.800        40
26.810        13
26.820        13
26.830        47
26.840        33
26.850        27
26.860        60
26.870        53
26.880        20
26.890         0
26.900        40
26.910        40
26.920        13
26.930        47
26.940         7
26.950        33
26.960        13
26.970        13
26.980        27
26.990        13
27.000        33
27.010        13
27.020        13
27.030        13
27.040         0
27.050         7
27.060        27
27.070        33
27.080        40
27.090        20
27.100        67
27.110         0
27.120        27
27.130        27
27.140        27
27.150         0
27.160        33
27.170        20
27.180        27
27.190        13
27.200        33
27.210        20
27.220        20
27.230        33
27.240        33
27.250        60
27.260         7
27.270        40
27.280        13
27.290         0
27.300        20
27.310        47
27.320        33
27.330        13
27.340        13
27.350        27
27.360        47
27.370        20
27.380         0
27.390        47
27.400        27
27.410        20
27.420        20
27.430        40
27.440        27
27.450         7
27.460         0
27.470        20
27.480        27
27.490        20
27.500        20
27.510        27
27.520        40
27.530        20
27.540        60
27.550        33
27.560        13
27.570        13
27.580        47
27.590        20
27.600        40
27.610        33
27.620        27
27.630        13
27.640        27
27.650        47
27.660        20
27.670        67
27.680        27
27.690        20
27.700        47
27.710         7
27.720         0
27.730        27
27.740        33
27.750        33
27.760        27
27.770        27
27.780        20
27.790        40
27.800        27
27.810        47
27.820        27
27.830        20
27.840        33
27.850        20
27.860        33
27.870        13
27.880         0
27.890        27
27.900        40
27.910        20
27.920        33
27.930        20
27.940        20
27.950        33
27.960        40
27.970         0
27.980        40
27.990        13
28.000        33
28.010        27
28.020        27
28.030        33
28.040        33
28.050        33
28.060        27
28.070        53
28.080        33
28.090        47
28.100        53
28.110        33
28.120        67
28.130        20
28.140        13
28.150        33
28.160        27
28.170        13
28.180        40
28.190        27
28.200        47
28.210        33
28.220        27
28.230         7
28.240        53
28.250        40
28.260        33
28.270        33
28.280        53
28.290        20
28.300        33
28.310        33
28.320        13
28.330        47
28.340        27
28.350        53
28.360         0
28.370        13
28.380        27
28.390        20
28.400        40
28.410        53
28.420        20
28.430         7
28.440        47
28.450        40
28.460        33
28.470        40
28.480        13
28.490        33
28.500        13
28.510         7
28.520        40
28.530        60
28.540        40
28.550        33
28.560         7
28.570        13
28.580        33
28.590         7
28.600        27
28.610        27
28.620        13
28.630        27
28.640        40
28.650        20
28.660        27
28.670        20
28.680        27
28.690        40
28.700        33
28.710         0
28.720        13
28.730        27
28.740        20
28.750        33
28.760        13
28.770        47
28.780        27
28.790        13
28.800        33
28.810        20
28.820         7
28.830        40
28.840        40
28.850        27
28.860        53
28.870        33
28.880        20
28.890        33
28.900        40
28.910        40
28.920        60
28.930         7
28.940        33
28.950        33
28.960        33
28.970        40
28.980        13
28.990         7
29.000        27
29.010        33
29.020        20
29.030        20
29.040        13
29.050        13
29.060        13
29.070        80
29.080        33
29.090        40
29.100        40
29.110        27
29.120        40
29.130        47
29.140        27
29.150        73
29.160        33
29.170        47
29.180        33
29.190        47
29.200        20
29.210        47
29.220        47
29.230        40
29.240        27
29.250        20
29.260        33
29.270        33
29.280        27
29.290        33
29.300         7
29.310        33
29.320        20
29.330        27
29.340        33
29.350        20
29.360        27
29.370        27
29.380        20
29.390        20
29.400        20
29.410        40
29.420        33
29.430        33
29.440        33
29.450        13
29.460        20
29.470        27
29.480        20
29.490        20
29.500        33
29.510        33
29.520        20
29.530        40
29.540        53
29.550        27
29.560        33
29.570        53
29.580        33
29.590        27
29.600         7
29.610        60
29.620         7
29.630        33
29.640        27
29.650        33
29.660        13
29.670        27
29.680        27
29.690        20
29.700        13
29.710        27
29.720        27
29.730        33
29.740        47
29.750        13
29.760        47
29.770        20
29.780        47
29.790        27
29.800        13
29.810        20
29.820        13
29.830        20
29.840         0
29.850        27
29.860         7
29.870         7
29.880        40
29.890        40
29.900        40
29.910        13
29.920        33
29.930        20
29.940        20
29.950        27
29.960        47
29.970        33
29.980        40
29.990        20
30.000         7
30.010        27
30.020        33
30.030        20
30.040        53
30.050        27
30.060        33
30.070        40
30.080        13
30.090        33
30.100        27
30.110        27
30.120        20
30.130        40
30.140        40
30.150        47
30.160        33
30.170        47
30.180        20
30.190        47
30.200        33
30.210        67
30.220        27
30.230        53
30.240        40
30.250        27
30.260        40
30.270        73
30.280        20
30.290        47
30.300        47
30.310        40
30.320        67
30.330        60
30.340        47
30.350        33
30.360        27
30.370        53
30.380        33
30.390        60
30.400        53
30.410        87
30.420        47
30.430        20
30.440        40
30.450        53
30.460        67
30.470        40
30.480        60
30.490        33
30.500        40
30.510        60
30.520        27
30.530        33
30.540        53
30.550        20
30.560        60
30.570        33
30.580        33
30.590        33
30.600        20
30.610        33
30.620        53
30.630        47
30.640        53
30.650        87
30.660        33
30.670        40
30.680        73
30.690        67
30.700         7
30.710        73
30.720        73
30.730        67
30.740        60
30.750        40
30.760        40
30.770        47
30.780        60
30.790        73
30.800        80
30.810        80
30.820        80
30.830        53
30.840        80
30.850       160
30.860        80
30.870       100
30.880       107
30.890       173
30.900       227
30.910       207
30.920       213
30.930       207
30.940       213
30.950       347
30.960       407
30.970       247
30.980       387
30.990       486
31.000       526
31.010       513
31.020       513
31.030       693
31.040       786
31.050       993
31.060       906
31.070      1046
31.080      1200
31.090      1506
31.100      1566
31.110      1973
31.120      2059
31.130      2332
31.140      2592
31.150      2839
31.160      3012
31.170      3092
31.180      2846
31.190      3352
31.200      3159
31.210      2892
31.220      3312
31.230      2872
31.240      2632
31.250      2666
31.260      2139
31.270      2339
31.280      2212
31.290      2026
31.300      1713
31.310      1786
31.320      1393
31.330      1293
31.340      1173
31.350       900
31.360       940
31.370       780
31.380       693
31.390       646
31.400       480
31.410       446
31.420       387
31.430       353
31.440       313
31.450       347
31.460       240
31.470       173
31.480       127
31.490       227
31.500       113
31.510       133
31.520       127
31.530        80
31.540       153
31.550       160
31.560        60
31.570       187
31.580        33
31.590       120
31.600        93
31.610        93
31.620        67
31.630        73
31.640        60
31.650       113
31.660        47
31.670        67
31.680        60
31.690       100
31.700        80
31.710        60
31.720        53
31.730        73
31.740        67
31.750        53
31.760        47
31.770        67
31.780        87
31.790        47
31.800        67
31.810        53
31.820        33
31.830        73
31.840        60
31.850        40
31.860        60
31.870        47
31.880        67
31.890        67
31.900        73
31.910        53
31.920        60
31.930        27
31.940        33
31.950        33
31.960        20
31.970        33
31.980        60
31.990        40
32.000        47
32.010        47
32.020        60
32.030        40
32.040         7
32.050        47
32.060        13
32.070        53
32.080        67
32.090        73
32.100        73
32.110        33
32.120        60
32.130        33
32.140        33
32.150        13
32.160        40
32.170        13
32.180        60
32.190        40
32.200        40
32.210        40
32.220        73
32.230        47
32.240        73
32.250        40
32.260        33
32.270        47
32.280        40
32.290        33
32.300        33
32.310        60
32.320        47
32.330        20
32.340        33
32.350        20
32.360        33
32.370        60
32.380         7
32.390        33
32.400        47
32.410        67
32.420        40
32.430        47
32.440        40
32.450        33
32.460        27
32.470        27
32.480        13
32.490        40
32.500        20
32.510        67
32.520         7
32.530        20
32.540        20
32.550        20
32.560        53
32.570        40
32.580        13
32.590        60
32.600        53
32.610        33
32.620        33
32.630        33
32.640        33
32.650        27
32.660        47
32.670        40
32.680        20
32.690        27
32.700        40
32.710        33
32.720         7
32.730        13
32.740        27
32.750        67
32.760        13
32.770        40
32.780        20
32.790        27
32.800        20
32.810        33
32.820        33
32.830        13
32.840        13
32.850        40
32.860        47
32.870        27
32.880        20
32.890        33
32.900        13
32.910        33
32.920        60
32.930        47
32.940        27
32.950        47
32.960        60
32.970        20
32.980        33
32.990        47
33.000        47
33.010        13
33.020        27
33.030        33
33.040        27
33.050        27
33.060        20
33.070        13
33.080        60
33.090        27
33.100        33
33.110        40
33.120         7
33.130         7
33.140        20
33.150        20
33.160        33
33.170        40
33.180         7
33.190        13
33.200        20
33.210        67
33.220        33
33.230        47
33.240        33
33.250        27
33.260        33
33.270        27
33.280        33
33.290        27
33.300        40
33.310        33
33.320        47
33.330        33
33.340        33
33.350        33
33.360         7
33.370        53
33.380        20
33.390        33
33.400        40
33.410        27
33.420        13
33.430        27
33.440        20
33.450        20
33.460        47
33.470        13
33.480        40
33.490        20
33.500        33
33.510        13
33.520        33
33.530        27
33.540        13
33.550        20
33.560        40
33.570        27
33.580        60
33.590        13
33.600        40
33.610        40
33.620        27
33.630        27
33.640        27
33.650        20
33.660        40
33.670        20
33.680        27
33.690        13
33.700        40
33.710        20
33.720        40
33.730        33
33.740         7
33.750        33
33.760        20
33.770        33
33.780        33
33.790        40
33.800        27
33.810        53
33.820        20
33.830        40
33.840        20
33.850        40
33.860        27
33.870        40
33.880        27
33.890        40
33.900        13
33.910        33
33.920         7
33.930        20
33.940        33
33.950        27
33.960        13
33.970        13
33.980        33
33.990        33
34.000        27
34.010        20
34.020        13
34.030        27
34.040        47
34.050        40
34.060        53
34.070         7
34.080        33
34.090         7
34.100        27
34.110        67
34.120        20
34.130        20
34.140        20
34.150         7
34.160        27
34.170        27
34.180        20
34.190        40
34.200        40
34.210        33
34.220        27
34.230        27
34.240        27
34.250         7
34.260        33
34.270        73
34.280        47
34.290        20
34.300        33
34.310        27
34.320        27
34.330        40
34.340        27
34.350         7
34.360        13
34.370        40
34.380        27
34.390        47
34.400        20
34.410        13
34.420        33
34.430        20
34.440         7
34.450        13
34.460        27
34.470        33
34.480        27
34.490        33
34.500        20
34.510        20
34.520        27
34.530        27
34.540        40
34.550        33
34.560        13
34.570        13
34.580        40
34.590        20
34.600        47
34.610        33
34.620        47
34.630        27
34.640        20
34.650        20
34.660        33
34.670         7
34.680        13
34.690        27
34.700        20
34.710        27
34.720        47
34.730        20
34.740        13
34.750        13
34.760        20
34.770        13
34.780        13
34.790         7
34.800        33
34.810        47
34.820        40
34.830         7
34.840        27
34.850        27
34.860        33
34.870        13
34.880         7
34.890        40
34.900        33
34.910        20
34.920        20
34.930        53
34.940        13
34.950        67
34.960        40
34.970        27
34.980        40
34.990        33
35.000        67
35.010        53
35.020        93
35.030        67
35.040        73
35.050        33
35.060        60
35.070        47
35.080        33
35.090        60
35.100        53
35.110       120
35.120        93
35.130       127
35.140       153
35.150        93
35.160       113
35.170       107
35.180       127
35.190        40
35.200        47
35.210        73
35.220        60
35.230        93
35.240        80
35.250        67
35.260        47
35.270        40
35.280        20
35.290        47
35.300         7
35.310        13
35.320        27
35.330        33
35.340        20
35.350        13
35.360        20
35.370         0
35.380        33
35.390         7
35.400        33
35.410        13
35.420        20
35.430         7
35.440        47
35.450        13
35.460        33
35.470        20
35.480        40
35.490        20
35.500        33
35.510        13
35.520         0
35.530        33
35.540        40
35.550        47
35.560         0
35.570        20
35.580        20
35.590        33
35.600        27
35.610        13
35.620         7
35.630        27
35.640        13
35.650        20
35.660        20
35.670        20
35.680        33
35.690        13
35.700         7
35.710        20
35.720        27
35.730        13
35.740        40
35.750        40
35.760        27
35.770         7
35.780        33
35.790        40
35.800        27
35.810        27
35.820         7
35.830        20
35.840        27
35.850        13
35.860        13
35.870        20
35.880        33
35.890        33
35.900        13
35.910        27
35.920        33
35.930        20
35.940        27
35.950         7
35.960        27
35.970        53
35.980        53
35.990        13
36.000        20
36.010        20
36.020        20
36.030        27
36.040        27
36.050        33
36.060        13
36.070         7
36.080        27
36.090        20
36.100        20
36.110        20
36.120        20
36.130        27
36.140        33
36.150        13
36.160         7
36.170        47
36.180        40
36.190        33
36.200        27
36.210        13
36.220        13
36.230        27
36.240        33
36.250        20
36.260         7
36.270        27
36.280        20
36.290        27
36.300        33
36.310        33
36.320        53
36.330        13
36.340        20
36.350        20
36.360        27
36.370        20
36.380         0
36.390        33
36.400        33
36.410        33
36.420        20
36.430        20
36.440        40
36.450         7
36.460        40
36.470        13
36.480        13
36.490        33
36.500         7
36.510        73
36.520        13
36.530         0
36.540        27
36.550         7
36.560        53
36.570        20
36.580        20
36.590        27
36.600        40
36.610         7
36.620        33
36.630         7
36.640        40
36.650        33
36.660        20
36.670        20
36.680        33
36.690        20
36.700        40
36.710        27
36.720        27
36.730        27
36.740        53
36.750        20
36.760        33
36.770        60
36.780        27
36.790        20
36.800        13
36.810        20
36.820        27
36.830        40
36.840        27
36.850        27
36.860        40
36.870        27
36.880        27
36.890        60
36.900        40
36.910        20
36.920        40
36.930        13
36.940        20
36.950        13
36.960        33
36.970        33
36.980        20
36.990        13
37.000        33
37.010        27
37.020        20
37.030        27
37.040        27
37.050        13
37.060        20
37.070        80
37.080        47
37.090        20
37.100        27
37.110        13
37.120        27
37.130        27
37.140        47
37.150        33
37.160        13
37.170        13
37.180        27
37.190        13
37.200        20
37.210        27
37.220         7
37.230        13
37.240        20
37.250        53
37.260        53
37.270        27
37.280        27
37.290        40
37.300         7
37.310        47
37.320        13
37.330        40
37.340        47
37.350        13
37.360        33
37.370         7
37.380        40
37.390         0
37.400        40
37.410        20
37.420        47
37.430         0
37.440        33
37.450        40
37.460        20
37.470        13
37.480        13
37.490        27
37.500        13
37.510        33
37.520        33
37.530        13
37.540        33
37.550        13
37.560        20
37.570        20
37.580        40
37.590        20
37.600        40
37.610        20
37.620        40
37.630        47
37.640        13
37.650        13
37.660        27
37.670        73
37.680         7
37.690        13
37.700        40
37.710        27
37.720        20
37.730        47
37.740        20
37.750        60
37.760        33
37.770        53
37.780        27
37.790        27
37.800        60
37.810        47
37.820        27
37.830        13
37.840        20
37.850        33
37.860        40
37.870        27
37.880        40
37.890        13
37.900        33
37.910        13
37.920        40
37.930        13
37.940        20
37.950        20
37.960        20
37.970        27
37.980        33
37.990        13
38.000        33
38.010        27
38.020        13
38.030        20
38.040        13
38.050        33
38.060        27
38.070        40
38.080        33
38.090        13
38.100        20
38.110         7
38.120        20
38.130        27
38.140        20
38.150        13
38.160        40
38.170        27
38.180        40
38.190        27
38.200        27
38.210        53
38.220         7
38.230        13
38.240        33
38.250        20
38.260        33
38.270        60
38.280         7
38.290        20
38.300        27
38.310        40
38.320        60
38.330        33
38.340        33
38.350        27
38.360        33
38.370        47
38.380        27
38.390        47
38.400        13
38.410        73
38.420        33
38.430        40
38.440        87
38.450        67
38.460       100
38.470        27
38.480        87
38.490        40
38.500        93
38.510       100
38.520        67
38.530        87
38.540        73
38.550        60
38.560        67
38.570        80
38.580       120
38.590        87
38.600        80
38.610        73
38.620        87
38.630        80
38.640       133
38.650       100
38.660        67
38.670       100
38.680        80
38.690        53
38.700        87
38.710        73
38.720        60
38.730        67
38.740        20
38.750        80
38.760        60
38.770        73
38.780        80
38.790        33
38.800         7
38.810        33
38.820        40
38.830        27
38.840        53
38.850        40
38.860        33
38.870        67
38.880        20
38.890        20
38.900        20
38.910        33
38.920        27
38.930        27
38.940        13
38.950        20
38.960        20
38.970        53
38.980        53
38.990        33
39.000        40
39.010         7
39.020         7
39.030        47
39.040        53
39.050        20
39.060        40
39.070        20
39.080        27
39.090        33
39.100        40
39.110        13
39.120        27
39.130        33
39.140        13
39.150        33
39.160        27
39.170        27
39.180        20
39.190        33
39.200         7
39.210         7
39.220         7
39.230        33
39.240        47
39.250        20
39.260        33
39.270        47
39.280        33
39.290        40
39.300        20
39.310        27
39.320        27
39.330        53
39.340        20
39.350        13
39.360        20
39.370        20
39.380        20
39.390        20
39.400        33
39.410         0
39.420        27
39.430        13
39.440        13
39.450        27
39.460         7
39.470         0
39.480         7
39.490        27
39.500         7
39.510        40
39.520        40
39.530        27
39.540        20
39.550        33
39.560        40
39.570        20
39.580        13
39.590        20
39.600         7
39.610        27
39.620        27
39.630        33
39.640        27
39.650        40
39.660         7
39.670        27
39.680         7
39.690        33
39.700        20
39.710        20
39.720        40
39.730        13
39.740        27
39.750        33
39.760        27
39.770        47
39.780         0
39.790        13
39.800        47
39.810        47
39.820        47
39.830         7
39.840         7
39.850        27
39.860         7
39.870         7
39.880        20
39.890        27
39.900         7
39.910         7
39.920         7
39.930        13
39.940         7
39.950        20
39.960         7
39.970        33
39.980        13
39.990        33
40.000        20
40.010        20
40.020        27
40.030        33
40.040        33
40.050        20
40.060        20
40.070        27
40.080        13
40.090        27
40.100        27
40.110         0
40.120        13
40.130        33
40.140        20
40.150        40
40.160        20
40.170        13
40.180        33
40.190        27
40.200        13
40.210        40
40.220        40
40.230        27
40.240        40
40.250        20
40.260         0
40.270        53
40.280         7
40.290         7
40.300        13
40.310        20
40.320        13
40.330        27
40.340         7
40.350         7
40.360        20
40.370        20
40.380        40
40.390        20
40.400        53
40.410        20
40.420        33
40.430        27
40.440        13
40.450        13
40.460        60
40.470        13
40.480        27
40.490        27
40.500        13
40.510        27
40.520        27
40.530        20
40.540         7
40.550        27
40.560        20
40.570        47
40.580         7
40.590        33
40.600        33
40.610        20
40.620        40
40.630        13
40.640        13
40.650        27
40.660        13
40.670        20
40.680        13
40.690        20
40.700        53
40.710        20
40.720         0
40.730        20
40.740        13
40.750        20
40.760        27
40.770        20
40.780        27
40.790         7
40.800        40
40.810        33
40.820        20
40.830         7
40.840        13
40.850        20
40.860        13
40.870        20
40.880        13
40.890        27
40.900        13
40.910        40
40.920        40
40.930        20
40.940        33
40.950        13
40.960        20
40.970        20
40.980        47
40.990        27
41.000        20
41.010         0
41.020        40
41.030        20
41.040        20
41.050        27
41.060        27
41.070        33
41.080         7
41.090        13
41.100        20
41.110         0
41.120        20
41.130        20
41.140        40
41.150         7
41.160         7
41.170        20
41.180        60
41.190        27
41.200         7
41.210        27
41.220        20
41.230         7
41.240         0
41.250         7
41.260        27
41.270         7
41.280        13
41.290        33
41.300        13
41.310        27
41.320        40
41.330        33
41.340        20
41.350        27
41.360        20
41.370        27
41.380        27
41.390         7
41.400        40
41.410         7
41.420        40
41.430        13
41.440        33
41.450         0
41.460        47
41.470        33
41.480         7
41.490         7
41.500        47
41.510        20
41.520        33
41.530        33
41.540        47
41.550        60
41.560        33
41.570        53
41.580        47
41.590        40
41.600        53
41.610        47
41.620        47
41.630        53
41.640        47
41.650        60
41.660        80
41.670        67
41.680        73
41.690       120
41.700       113
41.710        87
41.720        53
41.730        33
41.740       100
41.750        67
41.760        60
41.770        47
41.780        67
41.790        60
41.800        87
41.810        33
41.820        73
41.830        67
41.840        53
41.850        40
41.860        20
41.870        27
41.880        13
41.890        27
41.900        27
41.910        13
41.920        13
41.930        20
41.940        20
41.950        20
41.960        20
41.970        13
41.980         7
41.990        13
42.000        13
42.010        20
42.020        20
42.030        20
42.040        13
42.050        20
42.060        13
42.070        13
42.080        13
42.090        13
42.100        13
42.110        27
42.120         7
42.130        20
42.140        27
42.150        27
42.160        13
42.170        40
42.180        13
42.190        20
42.200         0
42.210        40
42.220        20
42.230        13
42.240         7
42.250        33
42.260        27
42.270        27
42.280        20
42.290        13
42.300        47
42.310        27
42.320        27
42.330        13
42.340        40
42.350        20
42.360        27
42.370        33
42.380        33
42.390        20
42.400        13
42.410         7
42.420        20
42.430        27
42.440        27
42.450        33
42.460        20
42.470        13
42.480        40
42.490         7
42.500         7
42.510         7
42.520         7
42.530        20
42.540        27
42.550         7
42.560        60
42.570         0
42.580        27
42.590        20
42.600         0
42.610         0
42.620        47
42.630        13
42.640        27
42.650        13
42.660        20
42.670         0
42.680        33
42.690        47
42.700        20
42.710        20
42.720        20
42.730        13
42.740        13
42.750        53
42.760        27
42.770        20
42.780        20
42.790        20
42.800        33
42.810        20
42.820        13
42.830        33
42.840        13
42.850        27
42.860         7
42.870        20
42.880        47
42.890        20
42.900        27
42.910        13
42.920         7
42.930        33
42.940        33
42.950        20
42.960        20
42.970        40
42.980        47
42.990        13
43.000        47
43.010        40
43.020        33
43.030        27
43.040        53
43.050        27
43.060        20
43.070        20
43.080        33
43.090        20
43.100        20
43.110        13
43.120         7
43.130         7
43.140        47
43.150        13
43.160        53
43.170        13
43.180        27
43.190        47
43.200        27
43.210        27
43.220        40
43.230        20
43.240        20
43.250         7
43.260        13
43.270        27
43.280        13
43.290        40
43.300        20
43.310        73
43.320        20
43.330        27
43.340        47
43.350        53
43.360        40
43.370        53
43.380        40
43.390        40
43.400        47
43.410        47
43.420        20
43.430        40
43.440        13
43.450        20
43.460         0
43.470        20
43.480        27
43.490        33
43.500        20
43.510        13
43.520        13
43.530        20
43.540        20
43.550        27
43.560        20
43.570        20
43.580        40
43.590         7
43.600         7
43.610        33
43.620         7
43.630        33
43.640        33
43.650        33
43.660         7
43.670         7
43.680        13
43.690        33
43.700         7
43.710        27
43.720        47
43.730        27
43.740        33
43.750        13
43.760        27
43.770        13
43.780        33
43.790        27
43.800        33
43.810        13
43.820        20
43.830        13
43.840        13
43.850        33
43.860        33
43.870        20
43.880        27
43.890         7
43.900        33
43.910        27
43.920        13
43.930         7
43.940        13
43.950        47
43.960        27
43.970         7
43.980        27
43.990        40
44.000        40
44.010        27
44.020        13
44.030        47
44.040         7
44.050        20
44.060         7
44.070        27
44.080        33
44.090        60
44.100        13
44.110        20
44.120         0
44.130        27
44.140        33
44.150        27
44.160         7
44.170        13
44.180         7
44.190        20
44.200        20
44.210        20
44.220        27
44.230        20
44.240         7
44.250         7
44.260        40
44.270        40
44.280        27
44.290        13
44.300        13
44.310        20
44.320        47
44.330        13
44.340         7
44.350        33
44.360        13
44.370        27
44.380        13
44.390        20
44.400        13
44.410        33
44.420        33
44.430        20
44.440        13
44.450        27
44.460         7
44.470        40
44.480        27
44.490        33
44.500        20
44.510        13
44.520        27
44.530        27
44.540        27
44.550        20
44.560        27
44.570        33
44.580        40
44.590        27
44.600        20
44.610        33
44.620        20
44.630        27
44.640        20
44.650        27
44.660        47
44.670        13
44.680        40
44.690         7
44.700         7
44.710        20
44.720        27
44.730        13
44.740        20
44.750        13
44.760        33
44.770        20
44.780        20
44.790        33
44.800        20
44.810        20
44.820        27
44.830        27
44.840        40
44.850        33
44.860        60
44.870        27
44.880        33
44.890        33
44.900        33
44.910        33
44.920        20
44.930        20
44.940        40
44.950        40
44.960        47
44.970        40
44.980        20
44.990        40
45.000        33
45.010        27
45.020        33
45.030        33
45.040        33
45.050        33
45.060        20
45.070         7
45.080        40
45.090        13
45.100        13
45.110        27
45.120         7
45.130        27
45.140         7
45.150         7
45.160         7
45.170        13
45.180        20
45.190        13
45.200        20
45.210         7
45.220        20
45.230        13
45.240        27
45.250        20
45.260         0
45.270        27
45.280        13
45.290         7
45.300        33
45.310         7
45.320        40
45.330        33
45.340        13
45.350        20
45.360         0
45.370         7
45.380        20
45.390         7
45.400        13
45.410        13
45.420        13
45.430        27
45.440         0
45.450         0
45.460        20
45.470         7
45.480        27
45.490         0
45.500        13
45.510        20
45.520        20
45.530         0
45.540         7
45.550        40
45.560        20
45.570        13
45.580        67
45.590        20
45.600        20
45.610        13
45.620        27
45.630        13
45.640         7
45.650        33
45.660        53
45.670        33
45.680        13
45.690        13
45.700        27
45.710        20
45.720         7
45.730        27
45.740        20
45.750        27
45.760        40
45.770        20
45.780         7
45.790        13
45.800        40
45.810        20
45.820        20
45.830        47
45.840        33
45.850        33
45.860        40
45.870         7
45.880         7
45.890        20
45.900        13
45.910         0
45.920        20
45.930        33
45.940        20
45.950        20
45.960         7
45.970        47
45.980        13
45.990        47
46.000         0
46.010        27
46.020        20
46.030        13
46.040        20
46.050        40
46.060        20
46.070         7
46.080        27
46.090        27
46.100        13
46.110        20
46.120        20
46.130        13
46.140        27
46.150        20
46.160         7
46.170        13
46.180        20
46.190        53
46.200        20
46.210        33
46.220        47
46.230        27
46.240         7
46.250        27
46.260        40
46.270        13
46.280        27
46.290        40
46.300        20
46.310        33
46.320        33
46.330        27
46.340        20
46.350        33
46.360        33
46.370        27
46.380        20
46.390        27
46.400        13
46.410        27
46.420        27
46.430        27
46.440        20
46.450        33
46.460        27
46.470        27
46.480         7
46.490        33
46.500        20
46.510        27
46.520         0
46.530        27
46.540        13
46.550        33
46.560        27
46.570        20
46.580         0
46.590         0
46.600        27
46.610        20
46.620         0
46.630        20
46.640        27
46.650        13
46.660        13
46.670        27
46.680        13
46.690        20
46.700        40
46.710        40
46.720        20
46.730        27
46.740        27
46.750        13
46.760        40
46.770        53
46.780        27
46.790        20
46.800        13
46.810        13
46.820         7
46.830         7
46.840        33
46.850        27
46.860        20
46.870        20
46.880        27
46.890         7
46.900        27
46.910        20
46.920        20
46.930        13
46.940        20
46.950        33
46.960        27
46.970        27
46.980        27
46.990         7
47.000        20
47.010         7
47.020        33
47.030        13
47.040        20
47.050        13
47.060        33
47.070        33
47.080        20
47.090        47
47.100         0
47.110        27
47.120        13
47.130        20
47.140        33
47.150        33
47.160        27
47.170        20
47.180        33
47.190        33
47.200        40
47.210        40
47.220        47
47.230        47
47.240        33
47.250        13
47.260        27
47.270        53
47.280        47
47.290        33
47.300        27
47.310        27
47.320        13
47.330        13
47.340        20
47.350         7
47.360        13
47.370        27
47.380        20
47.390        20
47.400        13
47.410        47
47.420        13
47.430        13
47.440        53
47.450        33
47.460        33
47.470        27
47.480        27
47.490        33
47.500        53
47.510        20
47.520        20
47.530        13
47.540        13
47.550        20
47.560        40
47.570         7
47.580        13
47.590        13
47.600        27
47.610        27
47.620         7
47.630         0
47.640        40
47.650        13
47.660        33
47.670        33
47.680        20
47.690        20
47.700        33
47.710        33
47.720        27
47.730        20
47.740         7
47.750        20
47.760        27
47.770         7
47.780        20
47.790        13
47.800        27
47.810        33
47.820         7
47.830         7
47.840         7
47.850        20
47.860        13
47.870         0
47.880         7
47.890        27
47.900        13
47.910         7
47.920        13
47.930        20
47.940        20
47.950        13
47.960        13
47.970        13
47.980        13
47.990        20
48.000        13
48.010        33
48.020        13
48.030        27
48.040        20
48.050         7
48.060        13
48.070        20
48.080        20
48.090        53
48.100        53
48.110        20
48.120        13
48.130        33
48.140         0
48.150        13
48.160        27
48.170        13
48.180        33
48.190        13
48.200        27
48.210        40
48.220        20
48.230         7
48.240        27
48.250        13
48.260        27
48.270         0
48.280        20
48.290        13
48.300        27
48.310        13
48.320        27
48.330        13
48.340        27
48.350         7
48.360        20
48.370        20
48.380         7
48.390        27
48.400        33
48.410        33
48.420        27
48.430        33
48.440        40
48.450        33
48.460        13
48.470        13
48.480        20
48.490        13
48.500        47
48.510        20
48.520        20
48.530        33
48.540        33
48.550        20
48.560        20
48.570        20
48.580        13
48.590        47
48.600        33
48.610        13
48.620        20
48.630        20
48.640        27
48.650        13
48.660         0
48.670        20
48.680        20
48.690        20
48.700        13
48.710        13
48.720        20
48.730        20
48.740        33
48.750        20
48.760        40
48.770        20
48.780        33
48.790        27
48.800         7
48.810        20
48.820         0
48.830         7
48.840        27
48.850        27
48.860        20
48.870        33
48.880        13
48.890         0
48.900        13
48.910         0
48.920        33
48.930        13
48.940        27
48.950        33
48.960        20
48.970        20
48.980         7
48.990        20
49.000        33
49.010        13
49.020        20
49.030        20
49.040        20
49.050        27
49.060        13
49.070        53
49.080         7
49.090        20
49.100         7
49.110        13
49.120        27
49.130         7
49.140        13
49.150         7
49.160        13
49.170        27
49.180        27
49.190         7
49.200        20
49.210         7
49.220        33
49.230        27
49.240         0
49.250        13
49.260         0
49.270         7
49.280        13
49.290        13
49.300        33
49.310        27
49.320         7
49.330         7
49.340        20
49.350        27
49.360        13
49.370        20
49.380         0
49.390        20
49.400        20
49.410        20
49.420        27
49.430        27
49.440        33
49.450        33
49.460         7
49.470        20
49.480        27
49.490         0
49.500        27
49.510        20
49.520         0
49.530        13
49.540         7
49.550        27
49.560         7
49.570        47
49.580        40
49.590        20
49.600        27
49.610        13
49.620        20
49.630        13
49.640        13
49.650        27
49.660        20
49.670        20
49.680         7
49.690        27
49.700         0
49.710        20
49.720         7
49.730        20
49.740        13
49.750        13
49.760        53
49.770        20
49.780        27
49.790        20
49.800        27
49.810        13
49.820        13
49.830        20
49.840        33
49.850         7
49.860        27
49.870         7
49.880        40
49.890        33
49.900        20
49.910        33
49.920        40
49.930         7
49.940        33
49.950        13
49.960        47
49.970        33
49.980         7
49.990        27
50.000        13
50.010        33
50.020        20
50.030        13
50.040        27
50.050         7
50.060         7
50.070        27
50.080        13
50.090        33
50.100        33
50.110        33
50.120         7
50.130        33
50.140         7
50.150        20
50.160        13
50.170        33
50.180        20
50.190        13
50.200         7
50.210        13
50.220         7
50.230        27
50.240        20
50.250        20
50.260        33
50.270        27
50.280         7
50.290         7
50.300        13
50.310        13
50.320        20
50.330         0
50.340        27
50.350        13
50.360         7
50.370        27
50.380        13
50.390        20
50.400        13
50.410         7
50.420        60
50.430        20
50.440        13
50.450        20
50.460        13
50.470        20
50.480        20
50.490        20
50.500         7
50.510        27
50.520        27
50.530        40
50.540        20
50.550         7
50.560         0
50.570        13
50.580        13
50.590         7
50.600        13
50.610        33
50.620         7
50.630         7
50.640         7
50.650        13
50.660        20
50.670        20
50.680        20
50.690        13
50.700        33
50.710         7
50.720        20
50.730        13
50.740        13
50.750         7
50.760        40
50.770        27
50.780        40
50.790        13
50.800        33
50.810        13
50.820        20
50.830        33
50.840        27
50.850        20
50.860        13
50.870        20
50.880        20
50.890        33
50.900        20
50.910        27
50.920        27
50.930         0
50.940         7
50.950        27
50.960        20
50.970        20
50.980        33
50.990        13
51.000        27
51.010         7
51.020        27
51.030        13
51.040         7
51.050        33
51.060        13
51.070        27
51.080        20
51.090        40
51.100        13
51.110        20
51.120        27
51.130        27
51.140        27
51.150        13
51.160        13
51.170        13
51.180        27
51.190        20
51.200         7
51.210         0
51.220        13
51.230         0
51.240        27
51.250        20
51.260        20
51.270         7
51.280         7
51.290        20
51.300        20
51.310        20
51.320        13
51.330        20
51.340        20
51.350        33
51.360         0
51.370        20
51.380        33
51.390        27
51.400         0
51.410         7
51.420        33
51.430         7
51.440        13
51.450        33
51.460        20
51.470         0
51.480        27
51.490        13
51.500         0
51.510         0
51.520        27
51.530        27
51.540        27
51.550         7
51.560         7
51.570        40
51.580        13
51.590        47
51.600        20
51.610         7
51.620        13
51.630        27
51.640        20
51.650        33
51.660        20
51.670        13
51.680        20
51.690         7
51.700        27
51.710        13
51.720        20
51.730         7
51.740        27
51.750        13
51.760        13
51.770         7
51.780         0
51.790        20
51.800        20
51.810        20
51.820         7
51.830        13
51.840        27
51.850        33
51.860        20
51.870         7
51.880         7
51.890         7
51.900        13
51.910        20
51.920        13
51.930         7
51.940        20
51.950        13
51.960         7
51.970        40
51.980        27
51.990        13
52.000        13
52.010        20
52.020        13
52.030         7
52.040        20
52.050        20
52.060        13
52.070        13
52.080         7
52.090        27
52.100        20
52.110        20
52.120        53
52.130        33
52.140        13
52.150         7
52.160        20
52.170        27
52.180         7
52.190        33
52.200        13
52.210        13
52.220        13
52.230         7
52.240        33
52.250         0
52.260        13
52.270        13
52.280        27
52.290        20
52.300        20
52.310         7
52.320        47
52.330        20
52.340        20
52.350        20
52.360        40
52.370        33
52.380         7
52.390         7
52.400         7
52.410         7
52.420        27
52.430        20
52.440        40
52.450        20
52.460         7
52.470         0
52.480        13
52.490        13
52.500        60
52.510        13
52.520        27
52.530        13
52.540        20
52.550        27
52.560        53
52.570        53
52.580        27
52.590        40
52.600         0
52.610         0
52.620        13
52.630        60
52.640        60
52.650        20
52.660        13
52.670        20
52.680        13
52.690        20
52.700        27
52.710        20
52.720         7
52.730        20
52.740         7
52.750        20
52.760        20
52.770        27
52.780         7
52.790        13
52.800        33
52.810        13
52.820        27
52.830         0
52.840        13
52.850        13
52.860        20
52.870        13
52.880         0
52.890        20
52.900        27
52.910         7
52.920        27
52.930        13
52.940        20
52.950         7
52.960        27
52.970         0
52.980        33
52.990        20
53.000        27
53.010        27
53.020        20
53.030        20
53.040         0
53.050         0
53.060        20
53.070        27
53.080         7
53.090        20
53.100        27
53.110        13
53.120        33
53.130        20
53.140        20
53.150        27
53.160        13
53.170        27
53.180        20
53.190         0
53.200        20
53.210        13
53.220         7
53.230        20
53.240        20
53.250        33
53.260        20
53.270        13
53.280        20
53.290        33
53.300        47
53.310        13
53.320        20
53.330        33
53.340        20
53.350         7
53.360        20
53.370        20
53.380         7
53.390        20
53.400        13
53.410         7
53.420        13
53.430        27
53.440         7
53.450         0
53.460        20
53.470        27
53.480        13
53.490        20
53.500        13
53.510        20
53.520         7
53.530        40
53.540        27
53.550        27
53.560         7
53.570         7
53.580        27
53.590         7
53.600        20
53.610        20
53.620        27
53.630        20
53.640        13
53.650        13
53.660        27
53.670        33
53.680        27
53.690        20
53.700        20
53.710         7
53.720        27
53.730        13
53.740        20
53.750        20
53.760        33
53.770        20
53.780         7
53.790         7
53.800        27
53.810         0
53.820        20
53.830        13
53.840        27
53.850        33
53.860         7
53.870        13
53.880        20
53.890         7
53.900        13
53.910         0
53.920        20
53.930         0
53.940        13
53.950        27
53.960        13
53.970         7
53.980         7
53.990        20
54.000        20
54.010         7
54.020        33
54.030         7
54.040        13
54.050        13
54.060        27
54.070         7
54.080         7
54.090        27
54.100         7
54.110         7
54.120        13
54.130        27
54.140        27
54.150        33
54.160        13
54.170         7
54.180        13
54.190        20
54.200         7
54.210         7
54.220        13
54.230        20
54.240        27
54.250        27
54.260         7
54.270        20
54.280        13
54.290        20
54.300         0
54.310        27
54.320        27
54.330        33
54.340        27
54.350        13
54.360        33
54.370        13
54.380        20
54.390        20
54.400        40
54.410        27
54.420         0
54.430        20
54.440         7
54.450        40
54.460        13
54.470        33
54.480        13
54.490        20
54.500        27
54.510        20
54.520         7
54.530        33
54.540        13
54.550        13
54.560         7
54.570         7
54.580        20
54.590        33
54.600        13
54.610         7
54.620        27
54.630        20
54.640         7
54.650        13
54.660         0
54.670        20
54.680        20
54.690        13
54.700        13
54.710         7
54.720         7
54.730        33
54.740        13
54.750         7
54.760         7
54.770         7
54.780        53
54.790        40
54.800        13
54.810        27
54.820        13
54.830        20
54.840        20
54.850        27
54.860        27
54.870         7
54.880        40
54.890        20
54.900        20
54.910        27
54.920        13
54.930        20
54.940        13
54.950        20
54.960        20
54.970        27
54.980        13
54.990        20
55.000        13
55.010        27
55.020        27
55.030        13
55.040        27
55.050        13
55.060        13
55.070        33
55.080        13
55.090         0
55.100         7
55.110        40
55.120         0
55.130         7
55.140        47
55.150        33
55.160        33
55.170        20
55.180        27
55.190        33
55.200        20
55.210        27
55.220        13
55.230        20
55.240        27
55.250        27
55.260        13
55.270        40
55.280        27
55.290        33
55.300        13
55.310        27
55.320        20
55.330        33
55.340        53
55.350         7
55.360        20
55.370        27
55.380        33
55.390        40
55.400        40
55.410        67
55.420        40
55.430        53
55.440        47
55.450        33
55.460        60
55.470        47
55.480        60
55.490         0
55.500        67
55.510        73
55.520        60
55.530        47
55.540        53
55.550        80
55.560        53
55.570        53
55.580       107
55.590        80
55.600       100
55.610        53
55.620        47
55.630        60
55.640        60
55.650       120
55.660        73
55.670        87
55.680       120
55.690        87
55.700        67
55.710        73
55.720       160
55.730        80
55.740       107
55.750        73
55.760        60
55.770        40
55.780       147
55.790       133
55.800        87
55.810        93
55.820        60
55.830        87
55.840       120
55.850        80
55.860        53
55.870        80
55.880        80
55.890        60
55.900        40
55.910        47
55.920        20
55.930        33
55.940        60
55.950        47
55.960        93
55.970        53
55.980        33
55.990        13
56.000        60
56.010        40
56.020        53
56.030        47
56.040        40
56.050        60
56.060         7
56.070        33
56.080        80
56.090        13
56.100         7
56.110        20
56.120         7
56.130        13
56.140        20
56.150        20
56.160         7
56.170        13
56.180        20
56.190        27
56.200        20
56.210        13
56.220        27
56.230        33
56.240        13
56.250        13
56.260        40
56.270        13
56.280        20
56.290        27
56.300        33
56.310        33
56.320        13
56.330        20
56.340         0
56.350        20
56.360        40
56.370        20
56.380         0
56.390        33
56.400        13
56.410        20
56.420        13
56.430        13
56.440        20
56.450        53
56.460        20
56.470        13
56.480        13
56.490        20
56.500         7
56.510         7
56.520        27
56.530        27
56.540        13
56.550        27
56.560        40
56.570        20
56.580        33
56.590        27
56.600        40
56.610        20
56.620        33
56.630        27
56.640        33
56.650        27
56.660         7
56.670        13
56.680        20
56.690        27
56.700        33
56.710        13
56.720         7
56.730        13
56.740        27
56.750        27
56.760        20
56.770        20
56.780        13
56.790        13
56.800        27
56.810        20
56.820         7
56.830        27
56.840        13
56.850        40
56.860         7
56.870        33
56.880         0
56.890        13
56.900        27
56.910         7
56.920        27
56.930        20
56.940        13
56.950         7
56.960         7
56.970        20
56.980        20
56.990        27
57.000         7
57.010         7
57.020        33
57.030         7
57.040        20
57.050        27
57.060        33
57.070        27
57.080        20
57.090        20
57.100        13
57.110        20
57.120         7
57.130        20
57.140        13
57.150        20
57.160        60
57.170        13
57.180         0
57.190         7
57.200        20
57.210        33
57.220        13
57.230        20
57.240        20
57.250        33
57.260        20
57.270        20
57.280        27
57.290        33
57.300        20
57.310         7
57.320        27
57.330         7
57.340        13
57.350        13
57.360        33
57.370        27
57.380        47
57.390        27
57.400        13
57.410        20
57.420        53
57.430        47
57.440        27
57.450        33
57.460        53
57.470        13
57.480        40
57.490        27
57.500        67
57.510        67
57.520        80
57.530        53
57.540        60
57.550        80
57.560        53
57.570        67
57.580        80
57.590        67
57.600        27
57.610        33
57.620        67
57.630        13
57.640        27
57.650        60
57.660        33
57.670        80
57.680         7
57.690        87
57.700        53
57.710        53
57.720        20
57.730        47
57.740        20
57.750        33
57.760        40
57.770        13
57.780        27
57.790        20
57.800         0
57.810         7
57.820        20
57.830        20
57.840         7
57.850         7
57.860         7
57.870        20
57.880        53
57.890         7
57.900        13
57.910         7
57.920        27
57.930        20
57.940         7
57.950        20
57.960         7
57.970        40
57.980        13
57.990         7
58.000        13
58.010        27
58.020         7
58.030        13
58.040        13
58.050        13
58.060         0
58.070        27
58.080        33
58.090        20
58.100        13
58.110        13
58.120         7
58.130         7
58.140        20
58.150        20
58.160        53
58.170        20
58.180        20
58.190        13
58.200        20
58.210        27
58.220        13
58.230         0
58.240         7
58.250         0
58.260        20
58.270         7
58.280        27
58.290        27
58.300        27
58.310        13
58.320        13
58.330        13
58.340         7
58.350         7
58.360        20
58.370        20
58.380        33
58.390        20
58.400        13
58.410        20
58.420        13
58.430        33
58.440        33
58.450        40
58.460        20
58.470        13
58.480        13
58.490        20
58.500        27
58.510        20
58.520         7
58.530         7
58.540        20
58.550         7
58.560        20
58.570        13
58.580        33
58.590        20
58.600        20
58.610         7
58.620        13
58.630         7
58.640         7
58.650        20
58.660        27
58.670        27
58.680        20
58.690        53
58.700         7
58.710        27
58.720        33
58.730         0
58.740         7
58.750        33
58.760        13
58.770         7
58.780        13
58.790        13
58.800        20
58.810        13
58.820        27
58.830        13
58.840        20
58.850        20
58.860         7
58.870        27
58.880         7
58.890        13
58.900         7
58.910         7
58.920         7
58.930         0
58.940        27
58.950        13
58.960        40
58.970        13
58.980        13
58.990        33
59.000         7
59.010        13
59.020         7
59.030        20
59.040         0
59.050         7
59.060         7
59.070        13
59.080        27
59.090         0
59.100        13
59.110        13
59.120        27
59.130        27
59.140        13
59.150         7
59.160        13
59.170        27
59.180         7
59.190        13
59.200        47
59.210        20
59.220         0
59.230        13
59.240        20
59.250        13
59.260        13
59.270        20
59.280         7
59.290        27
59.300        20
59.310        13
59.320         7
59.330        20
59.340         7
59.350        13
59.360        20
59.370         7
59.380        13
59.390        33
59.400        33
59.410        13
59.420         7
59.430        20
59.440         0
59.450        13
59.460         0
59.470        33
59.480         0
59.490        40
59.500        13
59.510        13
59.520        13
59.530        20
59.540         0
59.550         7
59.560        13
59.570        40
59.580        13
59.590        20
59.600        20
59.610        13
59.620        20
59.630        33
59.640        20
59.650        27
59.660         7
59.670        13
59.680        13
59.690        20
59.700         7
59.710        20
59.720        33
59.730         7
59.740         7
59.750         7
59.760        13
59.770         7
59.780         0
59.790        20
59.800        20
59.810        27
59.820        20
59.830         7
59.840        13
59.850         0
59.860         7
59.870        27
59.880        13
59.890        20
59.900        20
59.910         7
59.920         7
59.930        20
59.940        20
59.950         7
59.960         0
59.970        40
59.980        20
59.990         0
60.000         0
