20.000        20
20.010        40
20.020        40
20.030        33
20.040        47
20.050        27
20.060        53
20.070        20
20.080        47
20.090        67
20.100        27
20.110        47
20.120        40
20.130        33
20.140        47
20.150        27
20.160        47
20.170        40
20.180        27
20.190        33
20.200        40
20.210        60
20.220        20
20.230        47
20.240        53
20.250        20
20.260        33
20.270        87
20.280        40
20.290        33
20.300        60
20.310        20
20.320        40
20.330        93
20.340        73
20.350        40
20.360       100
20.370        27
20.380        33
20.390        47
20.400        53
20.410        53
20.420        40
20.430        47
20.440        53
20.450        67
20.460        60
20.470        20
20.480        47
20.490        53
20.500        40
20.510        27
20.520        73
20.530        47
20.540        40
20.550        40
20.560        20
20.570        33
20.580        20
20.590        47
20.600        20
20.610        53
20.620        53
20.630        27
20.640        53
20.650        27
20.660        53
20.670        67
20.680        27
20.690        27
20.700        40
20.710        33
20.720        60
20.730        53
20.740        53
20.750        60
20.760        47
20.770        40
20.780        47
20.790        27
20.800        40
20.810        47
20.820        40
20.830        47
20.840        27
20.850        60
20.860        20
20.870        53
20.880        47
20.890        33
20.900        40
20.910        47
20.920        47
20.930        40
20.940        40
20.950        40
20.960        40
20.970        20
20.980        27
20.990        47
21.000        33
21.010        47
21.020        47
21.030        40
21.040        20
21.050        60
21.060        53
21.070        73
21.080        33
21.090        47
21.100        40
21.110        80
21.120        33
21.130        27
21.140        40
21.150        47
21.160        67
21.170        33
21.180        40
21.190        40
21.200        73
21.210        33
21.220        47
21.230        53
21.240        73
21.250        27
21.260        40
21.270        40
21.280       100
21.290        53
21.300        33
21.310        80
21.320        67
21.330        60
21.340        40
21.350        40
21.360        67
21.370        27
21.380        47
21.390        20
21.400        20
21.410        40
21.420        47
21.430        40
21.440        27
21.450        33
21.460        40
21.470        53
21.480        47
21.490        40
21.500        47
21.510        40
21.520        60
21.530        33
21.540        40
21.550        20
21.560        33
21.570        33
21.580        33
21.590        53
21.600        53
21.610        27
21.620        40
21.630        73
21.640        53
21.650        40
21.660        20
21.670        67
21.680        33
21.690        80
21.700        40
21.710        60
21.720        87
21.730        33
21.740        13
21.750        27
21.760        47
21.770        53
21.780        27
21.790        67
21.800        27
21.810        20
21.820        33
21.830        47
21.840        40
21.850        20
21.860        47
21.870        40
21.880        53
21.890        33
21.900        53
21.910        33
21.920        33
21.930        47
21.940        40
21.950        40
21.960        20
21.970        53
21.980        40
21.990        80
22.000        27
22.010        47
22.020        53
22.030        47
22.040        67
22.050        27
22.060        27
22.070        60
22.080        20
22.090        53
22.100        47
22.110        20
22.120        47
22.130        53
22.140        53
22.150        73
22.160        33
22.170        27
22.180        27
22.190        67
22.200        27
22.210        67
22.220         7
22.230        53
22.240        53
22.250        20
22.260        27
22.270        47
22.280        20
22.290        27
22.300        40
22.310        13
22.320        53
22.330        47
22.340        33
22.350        40
22.360        27
22.370        27
22.380        33
22.390        40
22.400        33
22.410        67
22.420        20
22.430        53
22.440        27
22.450        40
22.460        40
22.470        40
22.480        33
22.490        13
22.500        40
22.510        40
22.520        33
22.530        20
22.540        67
22.550        13
22.560         7
22.570         7
22.580        27
22.590        20
22.600        33
22.610        47
22.620        53
22.630        13
22.640        13
22.650        40
22.660        40
22.670        33
22.680        40
22.690        53
22.700        40
22.710        27
22.720        33
22.730        60
22.740        40
22.750        33
22.760        47
22.770        20
22.780        40
22.790        33
22.800        20
22.810        47
22.820        20
22.830        40
22.840        73
22.850        33
22.860        47
22.870        53
22.880        20
22.890        27
22.900        27
22.910        47
22.920        20
22.930        47
22.940        40
22.950        60
22.960        53
22.970        20
22.980        40
22.990        33
23.000        27
23.010        40
23.020        27
23.030        53
23.040        13
23.050        53
23.060        33
23.070        60
23.080        27
23.090        53
23.100        33
23.110        33
23.120        40
23.130        27
23.140        13
23.150        47
23.160        67
23.170        33
23.180        20
23.190        33
23.200        20
23.210        60
23.220        33
23.230         7
23.240        53
23.250        27
23.260        47
23.270        60
23.280        27
23.290        40
23.300        53
23.310        53
23.320        40
23.330        20
23.340        13
23.350        60
23.360        40
23.370        33
23.380        67
23.390         7
23.400        27
23.410        40
23.420        33
23.430        40
23.440        33
23.450        33
23.460        47
23.470        40
23.480        27
23.490        40
23.500        33
23.510        13
23.520         7
23.530        20
23.540        47
23.550        40
23.560        33
23.570        20
23.580        47
23.590        53
23.600        33
23.610        20
23.620        27
23.630        60
23.640        33
23.650        47
23.660        53
23.670        33
23.680        33
23.690        53
23.700        47
23.710         7
23.720        33
23.730        33
23.740        33
23.750        33
23.760        33
23.770        33
23.780        27
23.790        33
23.800        20
23.810        53
23.820        47
23.830        20
23.840        20
23.850        20
23.860        27
23.870        20
23.880        27
23.890        33
23.900        27
23.910        53
23.920        20
23.930        73
23.940        40
23.950        40
23.960        73
23.970        13
23.980        33
23.990        20
24.000        27
24.010        33
24.020         7
24.030        27
24.040        47
24.050         7
24.060        40
24.070        40
24.080        47
24.090        40
24.100        40
24.110        47
24.120        20
24.130        20
24.140        27
24.150        40
24.160        33
24.170        47
24.180        33
24.190        27
24.200        33
24.210        33
24.220        27
24.230         7
24.240        53
24.250         7
24.260        27
24.270        27
24.280        20
24.290        27
24.300        33
24.310        33
24.320        53
24.330        33
24.340        73
24.350        73
24.360        27
24.370        47
24.380        40
24.390        13
24.400        13
24.410        27
24.420        20
24.430         7
24.440        20
24.450        33
24.460        27
24.470        20
24.480        13
24.490        40
24.500         7
24.510         7
24.520        27
24.530        67
24.540        33
24.550        47
24.560        40
24.570        47
24.580        33
24.590        47
24.600        40
24.610        33
24.620        33
24.630        53
24.640        33
24.650        53
24.660        80
24.670        20
24.680        47
24.690        33
24.700       233
24.710        53
24.720        40
24.730        73
24.740        20
24.750        53
24.760        13
24.770        40
24.780        20
24.790        33
24.800        33
24.810        60
24.820        47
24.830        40
24.840        47
24.850        53
24.860        27
24.870        20
24.880        47
24.890        27
24.900        33
24.910        53
24.920        33
24.930        20
24.940        33
24.950        47
24.960        27
24.970        20
24.980        33
24.990        60
25.000        27
25.010        20
25.020        47
25.030        20
25.040        27
25.050        33
25.060        47
25.070        27
25.080        27
25.090        33
25.100        47
25.110        20
25.120        27
25.130        27
25.140        47
25.150        20
25.160        47
25.170        33
25.180        60
25.190        13
25.200         0
25.210        53
25.220        40
25.230        33
25.240        33
25.250         7
25.260        20
25.270         7
25.280        20
25.290        33
25.300        40
25.310        27
25.320        27
25.330        40
25.340        40
25.350        20
25.360        27
25.370        27
25.380        20
25.390         7
25.400        33
25.410        27
25.420        20
25.430        47
25.440        33
25.450        40
25.460        47
25.470        47
25.480        40
25.490        60
25.500        33
25.510        73
25.520        33
25.530        33
25.540        27
25.550        13
25.560        40
25.570        47
25.580        33
25.590        27
25.600        47
25.610        27
25.620        20
25.630        27
25.640        20
25.650        33
25.660        40
25.670        47
25.680         7
25.690        40
25.700        40
25.710        60
25.720        27
25.730        33
25.740        20
25.750        20
25.760        33
25.770        27
25.780        40
25.790        47
25.800        20
25.810        27
25.820        40
25.830        40
25.840        47
25.850        40
25.860         7
25.870        60
25.880        27
25.890        27
25.900        27
25.910        47
25.920        27
25.930        33
25.940        40
25.950        33
25.960         0
25.970        20
25.980        27
25.990        20
26.000        27
26.010         7
26.020         7
26.030        20
26.040        20
26.050        13
26.060         7
26.070        20
26.080        20
26.090        40
26.100        33
26.110         7
26.120        27
26.130        33
26.140        20
26.150        53
26.160        20
26.170        27
26.180        27
26.190        33
26.200        20
26.210        20
26.220        47
26.230        20
26.240        40
26.250         0
26.260        27
26.270        33
26.280        40
26.290        40
26.300        53
26.310        33
26.320        27
26.330        47
26.340        13
26.350        47
26.360        33
26.370        33
26.380        33
26.390        27
26.400        27
26.410        20
26.420        33
26.430        53
26.440        13
26.450        33
26.460        33
26.470        20
26.480        20
26.490        27
26.500        20
26.510        47
26.520        47
26.530        13
26.540        27
26.550        13
26.560        47
26.570        20
26.580        40
26.590         7
26.600        60
26.610        13
26.620        20
26.630         7
26.640        33
26.650        33
26.660        27
26.670        53
26.680         7
26.690        33
26.700        20
26.710        20
26.720        20
26.730        27
26.740        27
26.750        40
26.760        47
26.770        27
26.780        40
26.790        27
26.800        20
26.810        33
26.820        13
26.830        60
26.840        20
26.850        13
26.860        53
26.870        20
26.880         7
26.890        27
26.900         7
26.910        33
26.920        13
26.930        13
26.940        40
26.950        13
26.960        67
26.970        33
26.980        27
26.990        33
27.000        60
27.010        27
27.020        33
27.030        27
27.040        33
27.050        13
27.060        27
27.070        40
27.080        53
27.090        40
27.100        33
27.110        40
27.120        20
27.130        47
27.140        20
27.150        20
27.160        13
27.170        40
27.180        40
27.190        47
27.200        47
27.210         7
27.220        40
27.230        13
27.240        27
27.250        27
27.260        53
27.270        27
27.280         0
27.290        33
27.300        20
27.310        33
27.320        33
27.330        40
27.340        33
27.350        47
27.360        27
27.370        20
27.380        33
27.390        13
27.400         7
27.410        20
27.420        53
27.430        33
27.440        33
27.450        20
27.460        13
27.470        20
27.480        27
27.490        27
27.500        13
27.510        27
27.520        33
27.530        33
27.540        13
27.550        33
27.560         7
27.570        40
27.580        33
27.590        53
27.600        33
27.610        27
27.620        40
27.630        47
27.640        27
27.650        33
27.660         7
27.670        47
27.680        47
27.690        13
27.700        27
27.710        53
27.720        33
27.730        13
27.740        20
27.750        27
27.760        60
27.770        40
27.780        40
27.790        60
27.800        27
27.810        53
27.820        40
27.830        27
27.840        40
27.850        40
27.860        40
27.870        73
27.880        73
27.890        53
27.900        33
27.910        60
27.920        40
27.930        40
27.940        73
27.950        13
27.960        13
27.970        20
27.980        13
27.990        13
28.000         7
28.010        27
28.020        40
28.030        40
28.040        27
28.050        53
28.060        33
28.070        27
28.080        13
28.090        13
28.100        27
28.110        40
28.120        20
28.130        13
28.140        47
28.150        27
28.160        40
28.170        33
28.180        33
28.190        40
28.200        47
28.210        33
28.220        27
28.230        33
28.240        20
28.250        20
28.260        33
28.270        53
28.280        13
28.290        27
28.300         7
28.310        20
28.320        40
28.330        27
28.340        40
28.350        20
28.360        27
28.370        33
28.380        27
28.390        40
28.400        47
28.410        60
28.420        13
28.430        20
28.440        33
28.450        20
28.460        40
28.470        27
28.480        33
28.490         7
28.500        33
28.510        20
28.520        40
28.530        13
28.540        20
28.550        27
28.560        27
28.570        33
28.580        27
28.590        27
28.600        27
28.610        33
28.620        20
28.630        27
28.640        47
28.650        40
28.660        13
28.670        40
28.680        13
28.690        47
28.700        33
28.710         7
28.720        27
28.730        40
28.740        33
28.750        20
28.760         7
28.770        47
28.780        27
28.790        13
28.800        27
28.810        40
28.820        47
28.830        27
28.840        20
28.850        20
28.860        20
28.870        13
28.880        33
28.890         7
28.900         0
28.910        67
28.920        20
28.930        33
28.940        33
28.950        27
28.960        20
28.970        20
28.980        47
28.990        13
29.000        33
29.010        47
29.020         7
29.030        73
29.040        27
29.050        27
29.060        13
29.070        20
29.080        33
29.090        60
29.100        27
29.110        67
29.120        53
29.130        27
29.140        40
29.150        47
29.160        33
29.170        73
29.180        60
29.190        53
29.200        60
29.210        20
29.220        47
29.230        47
29.240        47
29.250        60
29.260        33
29.270        67
29.280        13
29.290        73
29.300        67
29.310        73
29.320        33
29.330        53
29.340        67
29.350        47
29.360        67
29.370        20
29.380        27
29.390        33
29.400        53
29.410        13
29.420        53
29.430        20
29.440        67
29.450        40
29.460        27
29.470        20
29.480        13
29.490        20
29.500        27
29.510        40
29.520        13
29.530        20
29.540         0
29.550        33
29.560        40
29.570        20
29.580         0
29.590        20
29.600        40
29.610        33
29.620        20
29.630        40
29.640        13
29.650        33
29.660        20
29.670        33
29.680        20
29.690        27
29.700        47
29.710        40
29.720        40
29.730        60
29.740        27
29.750        20
29.760        40
29.770         7
29.780        40
29.790        13
29.800        33
29.810        40
29.820        27
29.830        33
29.840        67
29.850        40
29.860        13
29.870        33
29.880        47
29.890        53
29.900        40
29.910        27
29.920         7
29.930        40
29.940        40
29.950        60
29.960        53
29.970        27
29.980        47
29.990        27
30.000        27
30.010        53
30.020        67
30.030        53
30.040        53
30.050        40
30.060        47
30.070        80
30.080        20
30.090        53
30.100        20
30.110        60
30.120        33
30.130        27
30.140        33
30.150        47
30.160        27
30.170        47
30.180        27
30.190        33
30.200        33
30.210        60
30.220        20
30.230        27
30.240         7
30.250        47
30.260        47
30.270        47
30.280        47
30.290        67
30.300        27
30.310        27
30.320        40
30.330        60
30.340        27
30.350        47
30.360        60
30.370        27
30.380        13
30.390        40
30.400        47
30.410        47
30.420        47
30.430        40
30.440        47
30.450        53
30.460        60
30.470        47
30.480        60
30.490        33
30.500        53
30.510        47
30.520        40
30.530        80
30.540        40
30.550        60
30.560        80
30.570        60
30.580        53
30.590        80
30.600        73
30.610        93
30.620        67
30.630       107
30.640        87
30.650       147
30.660       133
30.670       133
30.680       133
30.690       160
30.700       247
30.710       273
30.720       267
30.730       260
30.740       247
30.750       420
30.760       480
30.770       480
30.780       613
30.790       593
30.800       693
30.810       700
30.820       933
30.830       953
30.840      1113
30.850      1466
30.860      1406
30.870      1893
30.880      1966
30.890      2366
30.900      2572
30.910      2706
30.920      2792
30.930      3072
30.940      3265
30.950      2906
30.960      3059
30.970      3019
30.980      2979
30.990      2646
31.000      2326
31.010      2279
31.020      1859
31.030      1633
31.040      1326
31.050      1153
31.060      1066
31.070      1040
31.080       753
31.090       533
31.100       446
31.110       300
31.120       313
31.130       207
31.140       200
31.150       147
31.160       200
31.170       113
31.180       187
31.190       180
31.200        80
31.210        93
31.220       120
31.230       100
31.240        73
31.250        73
31.260        53
31.270        53
31.280        73
31.290        73
31.300        53
31.310        60
31.320        47
31.330        33
31.340        40
31.350        60
31.360        73
31.370        60
31.380        27
31.390        47
31.400        60
31.410        40
31.420        33
31.430        40
31.440        60
31.450        60
31.460        53
31.470        67
31.480        60
31.490        60
31.500        47
31.510        33
31.520        33
31.530        40
31.540        53
31.550        53
31.560        47
31.570        47
31.580        47
31.590        27
31.600        27
31.610        33
31.620        47
31.630        33
31.640        27
31.650        27
31.660        40
31.670        47
31.680        40
31.690        13
31.700        40
31.710        13
31.720        33
31.730        33
31.740        33
31.750        53
31.760        27
31.770        40
31.780        13
31.790        33
31.800        40
31.810        20
31.820        47
31.830        20
31.840        13
31.850        40
31.860        27
31.870        13
31.880        40
31.890        33
31.900        13
31.910        33
31.920        47
31.930        33
31.940        27
31.950        33
31.960        20
31.970        53
31.980        47
31.990        20
32.000        33
32.010        67
32.020        80
32.030        20
32.040        27
32.050        27
32.060        27
32.070        67
32.080        27
32.090        60
32.100        33
32.110        20
32.120        20
32.130        60
32.140        20
32.150        13
32.160        47
32.170        20
32.180        33
32.190        20
32.200        47
32.210        20
32.220        60
32.230        20
32.240        20
32.250        33
32.260        33
32.270        33
32.280        20
32.290        53
32.300        33
32.310        13
32.320        33
32.330        47
32.340        53
32.350        13
32.360        40
32.370        60
32.380        20
32.390        40
32.400        40
32.410        33
32.420        47
32.430        40
32.440        13
32.450        20
32.460        13
32.470        40
32.480        27
32.490        20
32.500        40
32.510        33
32.520        13
32.530        47
32.540        40
32.550        33
32.560         0
32.570        27
32.580        20
32.590        20
32.600        20
32.610        20
32.620        40
32.630        40
32.640        53
32.650        20
32.660        27
32.670        33
32.680        27
32.690        27
32.700        33
32.710        40
32.720        20
32.730        67
32.740        33
32.750        27
32.760        53
32.770        27
32.780        53
32.790        20
32.800        40
32.810        40
32.820        47
32.830        13
32.840        27
32.850        13
32.860        27
32.870        20
32.880        33
32.890        13
32.900        47
32.910         7
32.920        20
32.930        20
32.940        13
32.950        20
32.960        27
32.970        40
32.980        33
32.990        33
33.000         7
33.010       120
33.020        27
33.030        40
33.040        60
33.050        27
33.060        27
33.070        27
33.080        47
33.090        60
33.100        13
33.110         7
33.120         7
33.130        40
33.140        13
33.150        13
33.160        47
33.170        27
33.180        27
33.190        33
33.200        13
33.210        40
33.220        40
33.230        27
33.240        33
33.250        27
33.260        53
33.270        13
33.280        20
33.290        13
33.300        13
33.310        20
33.320        40
33.330        20
33.340        40
33.350        47
33.360        40
33.370        13
33.380        13
33.390        27
33.400         7
33.410        27
33.420        27
33.430        20
33.440        33
33.450        33
33.460        47
33.470        33
33.480        20
33.490        47
33.500        27
33.510        33
33.520        33
33.530        20
33.540        27
33.550        27
33.560        40
33.570        20
33.580        13
33.590         0
33.600        60
33.610        27
33.620        40
33.630         0
33.640        47
33.650        20
33.660        27
33.670        27
33.680        27
33.690        27
33.700        13
33.710        33
33.720        33
33.730        33
33.740        27
33.750        20
33.760        20
33.770        40
33.780        20
33.790        13
33.800        27
33.810        47
33.820        33
33.830        27
33.840        40
33.850        27
33.860        40
33.870        33
33.880        33
33.890        33
33.900        20
33.910        13
33.920        13
33.930        20
33.940        13
33.950        27
33.960        33
33.970        13
33.980         7
33.990         7
34.000        33
34.010        20
34.020        13
34.030        33
34.040        20
34.050        13
34.060        13
34.070        20
34.080        20
34.090        40
34.100        33
34.110        47
34.120        27
34.130        53
34.140        40
34.150        27
34.160        40
34.170         7
34.180        27
34.190        33
34.200        40
34.210        20
34.220        13
34.230        27
34.240        33
34.250        27
34.260        40
34.270        40
34.280        13
34.290         7
34.300        13
34.310        20
34.320        20
34.330         7
34.340        27
34.350        33
34.360        27
34.370        60
34.380        33
34.390        20
34.400        33
34.410        40
34.420        33
34.430         7
34.440        27
34.450        13
34.460        40
34.470        20
34.480        20
34.490        53
34.500        33
34.510        20
34.520        13
34.530        33
34.540        53
34.550        47
34.560        27
34.570        40
34.580        60
34.590        40
34.600        67
34.610        40
34.620        27
34.630         7
34.640        33
34.650        27
34.660        13
34.670        27
34.680        47
34.690         7
34.700        20
34.710        27
34.720         7
34.730        27
34.740        47
34.750        20
34.760        27
34.770        33
34.780        67
34.790        27
34.800        20
34.810        27
34.820        40
34.830        27
34.840        67
34.850        27
34.860        33
34.870        47
34.880        40
34.890         7
34.900         7
34.910        33
34.920        33
34.930        40
34.940        33
34.950        20
34.960        53
34.970        13
34.980        33
34.990        33
35.000        47
35.010        27
35.020        27
35.030        13
35.040        53
35.050        33
35.060        33
35.070        20
35.080        60
35.090        47
35.100       220
35.110        60
35.120        40
35.130        87
35.140        60
35.150        40
35.160        13
35.170        80
35.180        53
35.190        33
35.200        53
35.210        53
35.220        53
35.230        60
35.240        53
35.250        47
35.260        13
35.270        27
35.280         7
35.290        53
35.300        20
35.310        20
35.320        47
35.330        47
35.340        27
35.350        33
35.360         7
35.370        20
35.380        20
35.390        33
35.400        27
35.410        20
35.420        13
35.430        20
35.440        13
35.450        40
35.460        33
35.470        13
35.480         7
35.490        33
35.500         0
35.510        27
35.520        20
35.530        27
35.540        33
35.550        13
35.560         0
35.570        33
35.580        27
35.590        33
35.600        13
35.610         7
35.620        27
35.630         7
35.640        40
35.650        27
35.660         7
35.670        13
35.680        53
35.690        33
35.700         0
35.710        40
35.720         7
35.730        20
35.740        13
35.750        27
35.760         7
35.770        20
35.780        27
35.790        53
35.800        13
35.810        33
35.820        40
35.830        27
35.840        20
35.850        40
35.860        73
35.870         7
35.880        40
35.890        27
35.900        40
35.910        27
35.920        27
35.930        20
35.940        47
35.950        20
35.960        27
35.970        27
35.980        20
35.990        47
36.000         0
36.010        20
36.020        53
36.030        33
36.040        20
36.050        47
36.060        33
36.070        13
36.080        27
36.090        13
36.100        33
36.110        20
36.120        40
36.130         7
36.140        13
36.150         7
36.160        13
36.170        27
36.180        13
36.190        13
36.200        13
36.210        27
36.220        13
36.230        27
36.240        13
36.250        27
36.260         7
36.270        27
36.280        20
36.290        27
36.300        33
36.310        13
36.320        27
36.330         7
36.340        53
36.350        20
36.360        40
36.370        20
36.380        27
36.390        33
36.400        33
36.410        20
36.420        33
36.430        13
36.440        20
36.450        27
36.460        20
36.470        27
36.480         7
36.490        13
36.500        33
36.510        20
36.520        13
36.530        13
36.540        20
36.550        13
36.560         7
36.570        27
36.580        33
36.590        53
36.600         7
36.610        27
36.620        20
36.630        27
36.640        13
36.650        67
36.660        13
36.670        33
36.680        20
36.690        20
36.700         0
36.710        27
36.720        20
36.730        33
36.740        20
36.750        13
36.760        33
36.770        20
36.780        13
36.790        27
36.800        20
36.810        47
36.820        13
36.830        33
36.840        27
36.850        20
36.860        20
36.870        27
36.880         0
36.890        20
36.900        40
36.910        20
36.920         7
36.930        33
36.940        33
36.950        33
36.960        13
36.970        33
36.980        13
36.990        27
37.000        60
37.010        13
37.020        47
37.030        27
37.040         7
37.050        20
37.060        33
37.070         0
37.080        27
37.090        20
37.100         7
37.110        33
37.120         0
37.130        27
37.140        33
37.150        20
37.160        27
37.170        33
37.180         0
37.190        13
37.200        27
37.210        33
37.220        20
37.230        33
37.240        13
37.250        20
37.260        40
37.270        33
37.280        27
37.290        13
37.300        20
37.310        13
37.320        33
37.330        20
37.340         7
37.350        27
37.360        27
37.370        27
37.380        20
37.390        33
37.400        27
37.410        20
37.420        27
37.430         0
37.440        13
37.450        53
37.460        20
37.470        47
37.480        20
37.490        20
37.500        20
37.510         0
37.520        27
37.530        60
37.540        27
37.550         7
37.560        20
37.570        27
37.580        33
37.590        27
37.600        40
37.610         7
37.620        33
37.630         7
37.640        20
37.650        20
37.660        27
37.670        33
37.680        20
37.690        40
37.700         7
37.710         7
37.720        40
37.730        40
37.740        13
37.750        33
37.760        27
37.770        20
37.780        20
37.790        20
37.800        27
37.810        27
37.820        27
37.830        33
37.840        40
37.850        47
37.860        47
37.870        33
37.880        13
37.890         0
37.900        33
37.910        33
37.920        27
37.930        20
37.940         7
37.950         7
37.960        13
37.970        33
37.980        33
37.990         7
38.000        33
38.010        33
38.020        13
38.030        20
38.040        20
38.050        13
38.060        40
38.070        47
38.080        33
38.090        47
38.100        40
38.110        33
38.120        33
38.130        60
38.140        80
38.150        33
38.160        73
38.170        47
38.180        53
38.190        87
38.200        60
38.210        47
38.220        73
38.230        40
38.240        40
38.250        60
38.260        60
38.270        13
38.280        33
38.290        27
38.300        53
38.310        47
38.320        20
38.330        53
38.340        20
38.350        40
38.360        27
38.370        27
38.380        33
38.390        33
38.400        20
38.410        33
38.420        53
38.430        33
38.440        27
38.450         7
38.460        20
38.470        13
38.480        40
38.490        33
38.500         7
38.510        27
38.520        13
38.530        27
38.540        33
38.550        20
38.560        47
38.570        27
38.580        40
38.590        20
38.600         7
38.610        20
38.620        20
38.630        27
38.640        33
38.650         7
38.660        27
38.670        20
38.680        13
38.690        13
38.700        27
38.710        27
38.720        20
38.730        20
38.740         0
38.750        20
38.760        40
38.770        40
38.780        27
38.790        20
38.800        47
38.810        40
38.820        13
38.830        27
38.840        40
38.850         7
38.860        40
38.870        13
38.880        20
38.890         7
38.900        13
38.910        20
38.920        33
38.930        20
38.940         7
38.950        40
38.960         0
38.970        27
38.980        13
38.990        20
39.000         7
39.010        33
39.020        13
39.030        20
39.040        20
39.050        20
39.060        33
39.070         7
39.080        13
39.090        47
39.100        13
39.110        40
39.120        20
39.130        20
39.140        40
39.150        27
39.160        13
39.170        20
39.180        40
39.190         0
39.200        20
39.210        47
39.220        33
39.230        33
39.240        40
39.250        27
39.260        27
39.270        33
39.280        53
39.290        40
39.300        47
39.310        20
39.320        40
39.330         7
39.340        47
39.350        67
39.360        40
39.370        27
39.380        33
39.390        33
39.400         0
39.410        27
39.420        40
39.430        27
39.440         7
39.450         0
39.460        13
39.470        40
39.480        20
39.490        20
39.500        20
39.510        13
39.520        13
39.530        13
39.540         0
39.550        20
39.560        40
39.570        47
39.580        53
39.590        13
39.600        33
39.610         7
39.620        27
39.630        20
39.640        40
39.650        27
39.660        27
39.670        40
39.680        13
39.690         7
39.700         7
39.710        13
39.720        40
39.730        40
39.740        33
39.750        33
39.760        13
39.770        20
39.780        27
39.790        27
39.800        13
39.810        13
39.820        27
39.830        27
39.840         7
39.850        13
39.860        27
39.870        13
39.880        47
39.890        13
39.900        47
39.910        20
39.920        27
39.930        13
39.940        13
39.950        27
39.960        20
39.970        13
39.980        20
39.990        27
40.000        27
40.010        20
40.020         7
40.030        20
40.040        20
40.050        20
40.060        20
40.070        20
40.080        33
40.090         7
40.100         0
40.110        20
40.120        27
40.130        33
40.140        20
40.150         7
40.160         7
40.170        27
40.180        20
40.190        27
40.200        20
40.210        27
40.220        40
40.230        20
40.240        20
40.250        27
40.260        27
40.270        20
40.280        27
40.290        33
40.300        13
40.310        27
40.320        20
40.330        27
40.340        20
40.350        20
40.360        13
40.370        27
40.380        47
40.390         7
40.400         0
40.410        33
40.420        13
40.430        40
40.440        20
40.450        20
40.460        33
40.470         7
40.480         7
40.490        20
40.500         7
40.510        33
40.520        20
40.530        40
40.540        13
40.550        33
40.560        40
40.570        20
40.580        13
40.590        40
40.600        27
40.610        20
40.620        13
40.630        40
40.640        20
40.650        13
40.660         7
40.670        13
40.680        20
40.690        20
40.700        47
40.710        20
40.720        20
40.730        13
40.740        13
40.750        47
40.760        13
40.770        33
40.780        33
40.790        33
40.800         0
40.810         7
40.820        13
40.830        33
40.840        20
40.850         0
40.860         7
40.870        33
40.880        33
40.890        20
40.900        47
40.910        27
40.920         7
40.930        13
40.940        53
40.950        13
40.960        20
40.970        53
40.980        33
40.990        33
41.000        20
41.010        27
41.020        27
41.030        20
41.040        20
41.050        20
41.060        27
41.070        33
41.080        20
41.090        33
41.100        20
41.110        40
41.120         0
41.130        20
41.140        33
41.150        47
41.160        40
41.170        13
41.180        27
41.190        13
41.200        20
41.210         7
41.220        20
41.230        20
41.240        13
41.250        13
41.260        27
41.270         7
41.280        13
41.290        27
41.300        20
41.310        20
41.320        33
41.330        27
41.340         7
41.350        20
41.360        27
41.370        33
41.380        20
41.390        13
41.400        13
41.410        20
41.420        47
41.430         7
41.440        33
41.450        13
41.460        13
41.470        13
41.480        40
41.490        27
41.500        47
41.510        53
41.520        33
41.530        53
41.540        20
41.550        47
41.560        40
41.570        20
41.580        40
41.590        20
41.600        33
41.610        13
41.620        73
41.630        47
41.640        40
41.650        60
41.660        40
41.670        53
41.680        40
41.690       113
41.700        73
41.710        60
41.720        33
41.730        67
41.740        60
41.750        20
41.760        40
41.770        40
41.780        73
41.790        53
41.800        47
41.810        27
41.820        27
41.830        27
41.840        20
41.850        47
41.860        13
41.870        33
41.880        13
41.890        20
41.900        40
41.910        20
41.920        47
41.930        13
41.940        13
41.950        47
41.960        20
41.970        20
41.980        33
41.990        40
42.000        13
42.010        20
42.020        20
42.030         7
42.040         7
42.050        13
42.060        20
42.070         7
42.080        20
42.090        20
42.100         7
42.110        20
42.120        20
42.130        13
42.140        20
42.150        20
42.160        13
42.170         7
42.180        33
42.190         7
42.200        20
42.210        20
42.220        13
42.230        33
42.240         7
42.250         7
42.260         0
42.270        13
42.280         0
42.290        13
42.300        33
42.310        13
42.320        47
42.330        33
42.340         7
42.350        20
42.360         7
42.370        20
42.380        33
42.390        13
42.400        20
42.410        27
42.420         7
42.430        60
42.440        20
42.450         7
42.460        40
42.470        20
42.480        13
42.490        13
42.500        20
42.510        40
42.520        40
42.530        20
42.540        33
42.550        20
42.560        27
42.570        27
42.580        20
42.590        27
42.600        20
42.610         7
42.620        33
42.630        13
42.640        13
42.650        33
42.660        27
42.670        20
42.680        13
42.690        20
42.700        33
42.710        33
42.720         0
42.730         7
42.740        13
42.750         7
42.760        27
42.770        20
42.780         7
42.790         7
42.800        33
42.810        40
42.820        13
42.830        47
42.840        33
42.850        20
42.860        13
42.870        13
42.880        27
42.890        20
42.900        13
42.910        33
42.920         7
42.930        33
42.940        27
42.950         0
42.960        13
42.970        20
42.980        33
42.990        13
43.000        27
43.010        33
43.020        47
43.030        73
43.040        47
43.050        20
43.060        20
43.070        27
43.080        20
43.090        20
43.100        40
43.110        27
43.120        47
43.130        47
43.140        47
43.150        27
43.160        13
43.170        13
43.180        47
43.190         7
43.200        20
43.210         0
43.220        40
43.230        13
43.240        20
43.250        33
43.260        20
43.270        13
43.280        40
43.290         0
43.300        33
43.310         7
43.320        47
43.330        27
43.340        47
43.350        27
43.360        47
43.370        67
43.380        33
43.390        93
43.400        33
43.410        73
43.420        60
43.430        67
43.440        40
43.450        33
43.460        27
43.470        27
43.480         7
43.490        27
43.500        27
43.510        20
43.520        27
43.530        73
43.540        53
43.550        20
43.560        13
43.570        47
43.580        67
43.590        13
43.600         7
43.610        33
43.620        33
43.630        33
43.640        20
43.650        27
43.660        13
43.670        27
43.680        33
43.690         7
43.700         7
43.710        33
43.720        13
43.730         7
43.740        27
43.750        40
43.760        13
43.770        20
43.780        27
43.790        13
43.800        33
43.810        47
43.820         7
43.830        33
43.840         0
43.850        13
43.860        13
43.870        53
43.880        20
43.890        20
43.900        20
43.910        13
43.920        13
43.930        27
43.940        53
43.950        33
43.960        27
43.970        33
43.980        27
43.990        20
44.000        13
44.010        27
44.020        53
44.030        13
44.040        13
44.050        33
44.060        13
44.070        13
44.080        40
44.090         7
44.100        13
44.110         7
44.120        67
44.130        33
44.140        33
44.150        13
44.160        40
44.170        33
44.180        33
44.190        53
44.200        40
44.210        20
44.220        40
44.230        27
44.240         7
44.250        27
44.260        33
44.270        27
44.280        13
44.290        33
44.300        40
44.310        40
44.320        53
44.330         7
44.340        40
44.350        13
44.360        33
44.370        67
44.380        73
44.390        27
44.400        60
44.410        40
44.420        40
44.430        47
44.440        47
44.450        47
44.460        73
44.470        53
44.480        27
44.490        53
44.500        27
44.510        60
44.520        53
44.530        33
44.540        33
44.550        40
44.560        27
44.570        53
44.580        27
44.590        40
44.600        27
44.610        60
44.620        33
44.630        33
44.640        40
44.650        47
44.660        40
44.670        40
44.680        33
44.690        33
44.700        47
44.710        27
44.720        47
44.730        60
44.740        20
44.750        20
44.760        27
44.770         7
44.780        33
44.790        47
44.800        40
44.810        40
44.820        33
44.830        13
44.840        20
44.850        13
44.860        40
44.870        13
44.880        13
44.890        13
44.900        20
44.910        27
44.920        13
44.930        47
44.940        27
44.950         7
44.960        47
44.970         7
44.980        13
44.990        40
45.000        20
45.010        13
45.020        20
45.030        27
45.040         7
45.050        20
45.060         7
45.070        27
45.080        40
45.090        27
45.100        13
45.110        13
45.120        27
45.130        27
45.140        27
45.150        13
45.160        20
45.170         7
45.180        47
45.190        13
45.200        33
45.210         7
45.220        20
45.230        13
45.240        20
45.250        27
45.260        40
45.270        40
45.280        33
45.290        13
45.300        40
45.310        40
45.320        33
45.330        13
45.340        13
45.350        33
45.360        20
45.370        27
45.380        27
45.390        40
45.400        33
45.410        27
45.420        27
45.430         0
45.440        13
45.450        27
45.460        33
45.470         7
45.480        20
45.490        20
45.500         7
45.510        20
45.520         7
45.530         7
45.540        27
45.550        33
45.560        20
45.570        47
45.580         7
45.590        33
45.600         7
45.610         7
45.620        13
45.630         0
45.640        33
45.650        33
45.660         7
45.670        13
45.680         7
45.690        40
45.700         0
45.710        13
45.720        20
45.730        20
45.740         7
45.750        47
45.760         0
45.770         7
45.780         7
45.790        20
45.800        27
45.810        20
45.820        53
45.830        27
45.840        13
45.850        33
45.860        47
45.870         0
45.880        40
45.890         7
45.900        20
45.910        13
45.920        13
45.930        20
45.940        20
45.950        13
45.960        20
45.970        13
45.980        33
45.990        33
46.000        20
46.010        20
46.020        27
46.030        13
46.040        27
46.050        13
46.060        13
46.070        13
46.080        27
46.090        40
46.100        13
46.110        20
46.120        53
46.130        27
46.140        33
46.150        20
46.160         0
46.170        13
46.180        27
46.190        20
46.200         7
46.210        13
46.220        27
46.230        20
46.240         0
46.250        33
46.260        13
46.270        33
46.280        27
46.290        47
46.300         7
46.310        20
46.320        20
46.330         7
46.340        13
46.350        13
46.360        27
46.370        20
46.380        20
46.390        33
46.400        13
46.410        13
46.420        13
46.430        27
46.440        27
46.450        13
46.460         7
46.470        13
46.480        27
46.490        20
46.500        20
46.510        20
46.520        40
46.530        13
46.540        13
46.550        20
46.560         7
46.570        33
46.580        27
46.590        33
46.600         7
46.610         7
46.620        20
46.630         0
46.640        20
46.650         0
46.660        13
46.670        27
46.680         7
46.690        20
46.700        33
46.710        33
46.720        13
46.730        27
46.740        27
46.750        40
46.760         0
46.770        13
46.780        20
46.790        33
46.800        20
46.810        40
46.820         0
46.830        20
46.840         7
46.850        27
46.860        20
46.870        13
46.880        40
46.890         7
46.900        13
46.910        13
46.920         0
46.930        20
46.940         7
46.950        27
46.960        20
46.970         7
46.980        27
46.990        20
47.000        20
47.010        13
47.020        33
47.030        20
47.040        40
47.050        27
47.060        27
47.070        27
47.080         7
47.090        20
47.100        27
47.110         0
47.120        47
47.130        27
47.140        47
47.150        27
47.160        27
47.170        13
47.180        60
47.190        27
47.200        13
47.210        20
47.220        20
47.230        33
47.240        33
47.250        27
47.260         7
47.270        27
47.280        27
47.290        40
47.300        27
47.310         7
47.320        33
47.330        13
47.340        33
47.350        53
47.360        33
47.370        53
47.380        47
47.390        27
47.400        13
47.410         0
47.420         7
47.430        53
47.440        60
47.450        40
47.460        20
47.470        60
47.480        13
47.490        13
47.500        20
47.510        27
47.520        27
47.530        40
47.540        20
47.550        20
47.560         0
47.570        27
47.580        27
47.590        40
47.600        27
47.610        20
47.620         7
47.630        40
47.640        13
47.650        27
47.660        13
47.670         7
47.680        20
47.690        20
47.700        40
47.710        20
47.720        40
47.730        20
47.740        13
47.750        20
47.760        33
47.770        27
47.780        20
47.790        20
47.800        20
47.810        33
47.820        27
47.830        13
47.840        27
47.850        27
47.860        13
47.870        20
47.880        13
47.890        27
47.900        13
47.910        27
47.920        27
47.930        13
47.940        13
47.950         7
47.960        20
47.970        33
47.980        20
47.990        20
48.000         7
48.010        13
48.020         7
48.030        13
48.040        33
48.050        33
48.060        33
48.070        27
48.080        27
48.090         0
48.100         7
48.110        40
48.120        27
48.130        33
48.140        13
48.150        13
48.160        20
48.170        20
48.180        27
48.190        27
48.200        27
48.210        13
48.220        20
48.230        33
48.240        20
48.250        20
48.260        20
48.270        33
48.280        27
48.290        33
48.300         7
48.310         7
48.320        27
48.330        20
48.340        53
48.350        13
48.360        33
48.370        27
48.380        53
48.390        13
48.400        33
48.410        27
48.420        47
48.430        47
48.440        40
48.450        27
48.460        33
48.470        53
48.480        33
48.490        27
48.500        20
48.510        27
48.520        13
48.530        40
48.540        13
48.550        13
48.560        20
48.570        20
48.580        40
48.590        20
48.600        13
48.610        27
48.620         7
48.630        20
48.640        27
48.650        13
48.660         7
48.670        27
48.680        33
48.690        13
48.700        20
48.710        33
48.720        13
48.730        20
48.740         0
48.750        20
48.760        13
48.770        13
48.780        13
48.790        13
48.800        33
48.810        20
48.820        13
48.830        20
48.840         7
48.850        13
48.860        27
48.870        27
48.880        27
48.890         7
48.900         7
48.910        13
48.920        33
48.930        20
48.940        20
48.950        20
48.960        13
48.970         7
48.980        33
48.990        13
49.000        27
49.010         7
49.020         7
49.030        27
49.040        27
49.050        20
49.060        13
49.070        13
49.080        27
49.090        13
49.100        13
49.110        33
49.120        13
49.130        27
49.140        20
49.150        27
49.160        13
49.170        20
49.180         7
49.190        40
49.200        20
49.210        13
49.220        13
49.230        33
49.240        20
49.250        27
49.260        27
49.270        27
49.280        13
49.290         7
49.300         0
49.310         7
49.320        20
49.330         7
49.340        13
49.350        20
49.360         7
49.370        13
49.380         7
49.390        13
49.400        13
49.410         7
49.420        20
49.430        20
49.440        13
49.450         7
49.460        20
49.470        13
49.480        20
49.490        20
49.500        20
49.510        33
49.520        27
49.530        40
49.540        40
49.550         7
49.560        13
49.570        13
49.580         7
49.590        33
49.600        27
49.610        47
49.620        33
49.630         7
49.640        20
49.650         7
49.660        20
49.670        20
49.680        20
49.690         0
49.700        13
49.710        13
49.720         7
49.730        13
49.740        27
49.750         7
49.760        13
49.770        13
49.780        13
49.790         7
49.800         7
49.810        33
49.820         7
49.830         7
49.840        33
49.850         7
49.860        20
49.870        27
49.880        47
49.890        20
49.900        27
49.910        33
49.920        13
49.930        40
49.940        13
49.950         0
49.960        20
49.970        33
49.980        40
49.990        40
50.000        40
50.010        27
50.020        27
50.030        13
50.040         0
50.050         7
50.060        20
50.070        27
50.080        60
50.090         7
50.100        20
50.110        20
50.120         0
50.130        20
50.140        20
50.150        13
50.160        27
50.170        20
50.180        13
50.190        27
50.200        13
50.210        20
50.220        33
50.230        13
50.240        20
50.250        27
50.260        27
50.270        13
50.280        20
50.290        20
50.300        33
50.310        13
50.320         7
50.330        20
50.340         7
50.350         7
50.360         0
50.370         0
50.380        13
50.390        13
50.400        33
50.410        20
50.420        33
50.430         7
50.440        13
50.450         7
50.460        13
50.470         7
50.480        27
50.490        47
50.500         7
50.510         0
50.520        20
50.530        13
50.540        20
50.550         7
50.560        20
50.570        27
50.580        27
50.590        13
50.600        27
50.610        40
50.620        20
50.630        27
50.640         7
50.650         7
50.660         7
50.670         0
50.680         7
50.690        13
50.700        13
50.710        20
50.720        27
50.730        27
50.740        20
50.750        13
50.760        27
50.770        13
50.780        27
50.790        33
50.800        13
50.810         7
50.820        20
50.830         7
50.840        13
50.850        40
50.860        20
50.870        20
50.880        27
50.890        13
50.900        13
50.910        13
50.920        47
50.930        13
50.940        20
50.950        13
50.960        33
50.970        13
50.980         0
50.990         7
51.000        20
51.010        33
51.020         7
51.030        20
51.040        27
51.050        20
51.060         7
51.070         7
51.080        13
51.090        20
51.100        33
51.110        20
51.120         0
51.130         7
51.140        13
51.150        27
51.160         7
51.170        13
51.180        40
51.190        20
51.200        27
51.210        13
51.220        33
51.230        20
51.240        27
51.250        20
51.260        13
51.270        53
51.280        13
51.290         0
51.300        27
51.310        20
51.320         7
51.330        13
51.340        20
51.350        27
51.360         0
51.370        20
51.380         7
51.390        40
51.400         7
51.410         7
51.420        13
51.430         7
51.440         7
51.450        20
51.460        20
51.470        33
51.480        20
51.490        13
51.500        27
51.510         7
51.520         7
51.530         7
51.540        40
51.550         0
51.560         7
51.570        33
51.580        13
51.590        20
51.600        33
51.610        13
51.620        20
51.630         7
51.640         7
51.650        20
51.660        20
51.670        13
51.680         7
51.690        20
51.700        13
51.710        20
51.720         0
51.730         7
51.740        27
51.750        13
51.760        13
51.770         7
51.780        20
51.790        20
51.800        33
51.810        13
51.820        27
51.830         0
51.840        13
51.850        20
51.860         0
51.870         0
51.880        20
51.890        20
51.900        13
51.910        20
51.920        20
51.930        33
51.940        13
51.950         0
51.960         7
51.970         7
51.980        13
51.990        13
52.000         7
52.010        27
52.020         7
52.030        13
52.040         0
52.050        27
52.060        13
52.070        13
52.080        33
52.090        40
52.100        13
52.110        20
52.120        13
52.130        13
52.140         7
52.150        20
52.160        27
52.170        20
52.180         7
52.190        53
52.200        20
52.210        33
52.220        13
52.230         7
52.240        13
52.250        13
52.260        13
52.270        20
52.280        20
52.290        27
52.300        13
52.310        20
52.320         7
52.330         0
52.340        47
52.350        20
52.360        20
52.370         0
52.380        27
52.390        13
52.400        13
52.410         7
52.420        20
52.430        20
52.440         0
52.450        20
52.460        20
52.470        33
52.480        27
52.490        33
52.500         7
52.510        27
52.520        20
52.530        20
52.540        27
52.550         0
52.560        13
52.570         7
52.580        20
52.590        13
52.600        20
52.610        20
52.620         7
52.630         7
52.640         0
52.650        13
52.660        27
52.670        40
52.680        20
52.690        20
52.700        20
52.710        13
52.720        13
52.730        27
52.740         7
52.750        33
52.760        13
52.770         7
52.780        13
52.790        20
52.800        27
52.810        27
52.820        20
52.830        13
52.840         0
52.850        27
52.860        27
52.870        13
52.880         0
52.890         7
52.900        27
52.910        20
52.920         0
52.930         7
52.940         7
52.950         0
52.960        20
52.970        20
52.980        20
52.990        33
53.000        13
53.010        13
53.020        20
53.030        13
53.040        27
53.050        27
53.060        13
53.070        13
53.080        20
53.090        33
53.100         0
53.110         7
53.120        27
53.130         0
53.140        20
53.150        13
53.160        20
53.170        20
53.180         7
53.190        13
53.200         7
53.210         0
53.220         0
53.230        20
53.240         7
53.250        13
53.260         7
53.270        13
53.280        33
53.290        20
53.300        20
53.310         7
53.320        20
53.330        20
53.340        13
53.350        20
53.360        20
53.370        13
53.380        13
53.390         7
53.400        13
53.410        20
53.420         7
53.430        27
53.440        27
53.450        20
53.460        13
53.470        20
53.480         7
53.490         7
53.500        13
53.510        13
53.520         7
53.530        20
53.540         7
53.550         7
53.560        13
53.570        13
53.580        13
53.590        13
53.600         7
53.610        27
53.620         7
53.630        20
53.640         7
53.650        20
53.660        27
53.670        13
53.680         7
53.690        13
53.700         7
53.710        20
53.720        13
53.730         7
53.740        33
53.750        13
53.760        13
53.770        13
53.780         0
53.790        33
53.800        27
53.810        13
53.820        40
53.830         7
53.840        20
53.850        20
53.860        27
53.870         7
53.880        13
53.890        13
53.900        13
53.910        33
53.920         7
53.930        13
53.940         7
53.950         7
53.960        20
53.970        13
53.980        13
53.990        20
54.000        13
54.010        20
54.020         7
54.030        27
54.040        27
54.050         0
54.060        13
54.070        33
54.080        13
54.090        40
54.100         7
54.110        13
54.120        27
54.130        20
54.140        13
54.150        27
54.160        20
54.170        13
54.180         7
54.190        33
54.200         7
54.210        27
54.220        13
54.230        20
54.240        27
54.250        13
54.260        13
54.270        20
54.280         0
54.290         7
54.300        27
54.310        13
54.320        27
54.330         7
54.340        27
54.350        20
54.360         7
54.370        27
54.380        20
54.390        33
54.400        27
54.410        33
54.420         7
54.430        20
54.440        40
54.450        27
54.460        33
54.470         7
54.480        13
54.490        27
54.500        20
54.510        27
54.520        33
54.530        13
54.540        40
54.550        13
54.560        13
54.570        33
54.580        20
54.590        33
54.600        13
54.610        20
54.620        67
54.630        20
54.640        27
54.650        13
54.660        20
54.670        27
54.680        13
54.690        40
54.700        27
54.710         7
54.720        20
54.730        27
54.740        13
54.750        33
54.760        13
54.770        20
54.780        20
54.790         7
54.800        40
54.810        27
54.820         7
54.830        33
54.840        33
54.850        47
54.860        20
54.870        27
54.880        20
54.890        40
54.900        33
54.910        27
54.920        33
54.930        27
54.940        27
54.950        60
54.960        33
54.970        13
54.980        20
54.990        73
55.000        60
55.010        73
55.020        73
55.030        67
55.040        73
55.050        87
55.060        67
55.070       113
55.080        80
55.090       100
55.100       127
55.110        87
55.120        73
55.130       127
55.140       180
55.150       153
55.160       107
55.170       113
55.180       153
55.190        87
55.200        80
55.210       120
55.220       140
55.230        60
55.240        73
55.250        80
55.260        67
55.270        87
55.280        93
55.290        67
55.300        53
55.310        67
55.320        33
55.330        67
55.340        60
55.350        33
55.360        47
55.370        40
55.380        20
55.390        40
55.400        33
55.410        40
55.420        20
55.430        20
55.440        20
55.450        27
55.460        20
55.470         7
55.480        20
55.490        27
55.500        13
55.510        47
55.520        13
55.530        27
55.540        13
55.550        20
55.560        33
55.570        53
55.580        20
55.590        20
55.600        27
55.610        20
55.620         0
55.630        20
55.640         0
55.650        33
55.660        27
55.670        13
55.680        13
55.690        20
55.700        13
55.710        20
55.720        27
55.730        13
55.740        47
55.750        27
55.760         7
55.770        20
55.780        33
55.790         7
55.800         7
55.810        20
55.820        33
55.830        33
55.840         0
55.850        13
55.860        40
55.870         7
55.880        13
55.890         7
55.900        13
55.910        33
55.920        20
55.930         7
55.940        27
55.950        20
55.960        27
55.970        20
55.980         0
55.990        13
56.000         7
56.010        20
56.020        20
56.030        27
56.040         7
56.050         7
56.060         0
56.070        13
56.080        20
56.090        13
56.100        20
56.110        27
56.120        33
56.130        13
56.140        13
56.150        13
56.160        33
56.170        13
56.180         7
56.190        27
56.200         0
56.210        20
56.220         7
56.230        20
56.240        47
56.250        20
56.260         7
56.270        20
56.280        20
56.290        27
56.300         0
56.310        27
56.320        20
56.330        13
56.340        27
56.350        40
56.360         7
56.370        13
56.380         7
56.390         0
56.400        27
56.410        27
56.420        20
56.430         7
56.440        47
56.450        13
56.460        20
56.470        40
56.480         0
56.490        13
56.500        20
56.510         7
56.520         7
56.530        20
56.540        27
56.550        13
56.560        33
56.570         7
56.580        33
56.590        13
56.600         7
56.610        40
56.620        20
56.630        27
56.640         0
56.650        40
56.660         7
56.670         0
56.680        33
56.690        20
56.700        13
56.710        13
56.720        20
56.730        20
56.740        33
56.750         7
56.760        27
56.770        33
56.780         7
56.790        40
56.800         7
56.810         7
56.820        27
56.830        20
56.840        13
56.850        20
56.860        33
56.870        13
56.880         7
56.890        13
56.900        20
56.910        20
56.920        20
56.930        20
56.940        27
56.950        13
56.960        13
56.970         0
56.980        13
56.990        20
57.000        13
57.010        20
57.020        20
57.030        20
57.040        13
57.050         7
57.060        20
57.070        33
57.080        13
57.090        13
57.100        27
57.110        40
57.120        13
57.130        13
57.140        27
57.150        13
57.160        20
57.170        20
57.180        33
57.190        13
57.200        27
57.210        13
57.220        33
57.230         7
57.240        13
57.250        33
57.260        33
57.270         7
57.280        33
57.290        33
57.300        27
57.310        33
57.320        33
57.330        20
57.340         7
57.350        13
57.360        13
57.370        20
57.380        27
57.390        13
57.400        20
57.410        13
57.420        27
57.430        20
57.440        60
57.450        67
57.460        27
57.470        47
57.480        73
57.490        53
57.500        53
57.510        73
57.520        67
57.530        33
57.540         7
57.550        20
57.560        40
57.570        27
57.580        53
57.590        27
57.600        40
57.610        27
57.620        53
57.630        27
57.640        40
57.650        27
57.660        13
57.670        60
57.680        13
57.690        27
57.700        40
57.710        13
57.720        20
57.730        33
57.740        20
57.750        27
57.760        40
57.770        20
57.780         7
57.790        27
57.800        20
57.810         7
57.820        13
57.830        27
57.840        27
57.850        13
57.860        33
57.870        13
57.880        13
57.890        20
57.900        20
57.910        20
57.920        27
57.930        20
57.940        20
57.950        20
57.960        33
57.970         7
57.980         7
57.990         7
58.000         7
58.010        20
58.020         7
58.030        33
58.040        27
58.050        20
58.060        27
58.070         7
58.080        13
58.090         7
58.100        13
58.110        27
58.120        20
58.130        20
58.140         7
58.150        20
58.160         0
58.170        13
58.180        20
58.190        20
58.200        13
58.210         7
58.220         0
58.230        13
58.240        33
58.250        27
58.260        33
58.270        20
58.280         0
58.290        40
58.300        20
58.310         7
58.320        20
58.330        27
58.340        13
58.350         0
58.360        13
58.370        13
58.380        13
58.390        27
58.400        27
58.410        13
58.420        20
58.430        13
58.440        27
58.450        33
58.460        13
58.470        13
58.480        13
58.490        27
58.500        13
58.510        20
58.520        40
58.530        20
58.540         7
58.550         0
58.560        13
58.570        13
58.580        27
58.590         0
58.600         0
58.610        20
58.620        20
58.630        13
58.640        20
58.650        13
58.660        27
58.670         0
58.680        27
58.690        27
58.700        13
58.710         0
58.720        20
58.730        20
58.740        13
58.750        27
58.760         7
58.770         7
58.780         0
58.790        20
58.800        20
58.810         7
58.820        20
58.830         7
58.840        27
58.850        33
58.860        13
58.870         0
58.880         0
58.890         7
58.900        13
58.910        13
58.920        27
58.930         7
58.940        13
58.950        13
58.960         7
58.970        27
58.980        13
58.990        27
59.000        13
59.010        27
59.020        13
59.030        33
59.040        20
59.050        20
59.060        13
59.070         7
59.080        33
59.090        13
59.100         7
59.110        27
59.120         0
59.130         0
59.140        13
59.150        27
59.160        20
59.170         7
59.180        13
59.190         7
59.200        20
59.210         0
59.220         7
59.230         0
59.240         7
59.250         7
59.260        40
59.270        13
59.280         0
59.290         7
59.300         7
59.310        27
59.320        20
59.330         7
59.340         7
59.350        13
59.360         7
59.370         0
59.380        20
59.390        13
59.400         0
59.410         0
59.420        20
59.430        13
59.440        13
59.450         0
59.460        13
59.470         7
59.480        27
59.490         7
59.500        20
59.510        13
59.520        13
59.530        20
59.540        13
59.550        33
59.560        27
59.570        20
59.580        13
59.590         7
59.600        13
59.610         0
59.620        20
59.630         7
59.640        27
59.650        13
59.660        20
59.670        20
59.680         0
59.690        20
59.700         7
59.710        33
59.720        20
59.730         0
59.740         0
59.750        13
59.760        40
59.770        20
59.780        13
59.790         7
59.800        13
59.810        20
59.820        20
59.830        20
59.840        13
59.850        20
59.860        13
59.870        20
59.880        20
59.890        27
59.900        27
59.910        27
59.920         7
59.930        13
59.940        13
59.950        13
59.960        27
59.970        20
59.980        13
59.990        20
60.000        20
