20.000        20
20.010        20
20.020        33
20.030        33
20.040        27
20.050         7
20.060        67
20.070        47
20.080        27
20.090        27
20.100        60
20.110        40
20.120        33
20.130        33
20.140         7
20.150        60
20.160        47
20.170        33
20.180        67
20.190        27
20.200        47
20.210        60
20.220        47
20.230        53
20.240        47
20.250        40
20.260        33
20.270        47
20.280        27
20.290        53
20.300        73
20.310        13
20.320        47
20.330        47
20.340        60
20.350        67
20.360        47
20.370        53
20.380        13
20.390        47
20.400        33
20.410        33
20.420        27
20.430        40
20.440        20
20.450        67
20.460        40
20.470        40
20.480        47
20.490        33
20.500        47
20.510        40
20.520        53
20.530        27
20.540        80
20.550        20
20.560        27
20.570        20
20.580        33
20.590        27
20.600        47
20.610        47
20.620        27
20.630        53
20.640        40
20.650        33
20.660        13
20.670        80
20.680        47
20.690        53
20.700        27
20.710        47
20.720        40
20.730        27
20.740        20
20.750        40
20.760        33
20.770        33
20.780        47
20.790        53
20.800        33
20.810        33
20.820        13
20.830        60
20.840        27
20.850        40
20.860        27
20.870        47
20.880        53
20.890        47
20.900        47
20.910        47
20.920        27
20.930        33
20.940        73
20.950        27
20.960        47
20.970        47
20.980        40
20.990        53
21.000        60
21.010        47
21.020        47
21.030        40
21.040        53
21.050        40
21.060        40
21.070        13
21.080        33
21.090        47
21.100        93
21.110        40
21.120        47
21.130        27
21.140        40
21.150        20
21.160        53
21.170        80
21.180        60
21.190         7
21.200        40
21.210        33
21.220        53
21.230        40
21.240        47
21.250        60
21.260        40
21.270        80
21.280        47
21.290        67
21.300        27
21.310        40
21.320        40
21.330        33
21.340        53
21.350        33
21.360        67
21.370        33
21.380        47
21.390        13
21.400        60
21.410        27
21.420        33
21.430        73
21.440        20
21.450        40
21.460        47
21.470        47
21.480        60
21.490        80
21.500        53
21.510        67
21.520        47
21.530        33
21.540        40
21.550        40
21.560        27
21.570        27
21.580        47
21.590        33
21.600        73
21.610        53
21.620        33
21.630        40
21.640        73
21.650        40
21.660        40
21.670        33
21.680        47
21.690        53
21.700        73
21.710        33
21.720        33
21.730        33
21.740        60
21.750        13
21.760        33
21.770        40
21.780         7
21.790        27
21.800        53
21.810        20
21.820        47
21.830        33
21.840        33
21.850        73
21.860        33
21.870        47
21.880        40
21.890         0
21.900        20
21.910        13
21.920        33
21.930        27
21.940        27
21.950        33
21.960        13
21.970        13
21.980        33
21.990        27
22.000        47
22.010        40
22.020        20
22.030        60
22.040        20
22.050        33
22.060        33
22.070        33
22.080        47
22.090        47
22.100        67
22.110        33
22.120        27
22.130        40
22.140        20
22.150        47
22.160        13
22.170        40
22.180        20
22.190        20
22.200        60
22.210        47
22.220        27
22.230        40
22.240        33
22.250        33
22.260        40
22.270        20
22.280        33
22.290        33
22.300        27
22.310        47
22.320        20
22.330         0
22.340        67
22.350        40
22.360        67
22.370        20
22.380        67
22.390        27
22.400        67
22.410        53
22.420        40
22.430        53
22.440        40
22.450        47
22.460        33
22.470        27
22.480        40
22.490        20
22.500        27
22.510        20
22.520        20
22.530        40
22.540        47
22.550        20
22.560        47
22.570        20
22.580        13
22.590        27
22.600        13
22.610        33
22.620        53
22.630        40
22.640        40
22.650        13
22.660        73
22.670        40
22.680        33
22.690        40
22.700        40
22.710        40
22.720        67
22.730        53
22.740        33
22.750        20
22.760         7
22.770        27
22.780        33
22.790        40
22.800        20
22.810        20
22.820        20
22.830        53
22.840        33
22.850        13
22.860        47
22.870        27
22.880        33
22.890        20
22.900        33
22.910        33
22.920        13
22.930        60
22.940        33
22.950        80
22.960        33
22.970        33
22.980        60
22.990        27
23.000        53
23.010        60
23.020        40
23.030        33
23.040        33
23.050        40
23.060        67
23.070        20
23.080        40
23.090        47
23.100        27
23.110        33
23.120        33
23.130        20
23.140        47
23.150        40
23.160        40
23.170        47
23.180        20
23.190        20
23.200        20
23.210        33
23.220        13
23.230        20
23.240        53
23.250        33
23.260        40
23.270        13
23.280        47
23.290        47
23.300        20
23.310        53
23.320        47
23.330        20
23.340        53
23.350        13
23.360         0
23.370        47
23.380        53
23.390        27
23.400        53
23.410        27
23.420        60
23.430        33
23.440        47
23.450        20
23.460        40
23.470        33
23.480        47
23.490        33
23.500        33
23.510        27
23.520        33
23.530        20
23.540        40
23.550        60
23.560        47
23.570        33
23.580        33
23.590        33
23.600        33
23.610        47
23.620        40
23.630        60
23.640        47
23.650        20
23.660        47
23.670        20
23.680         7
23.690        27
23.700        67
23.710        13
23.720        60
23.730        33
23.740        27
23.750        67
23.760        33
23.770        20
23.780        27
23.790        27
23.800        40
23.810        27
23.820        73
23.830        20
23.840        47
23.850        60
23.860        40
23.870        40
23.880        67
23.890        20
23.900        33
23.910        20
23.920        27
23.930        33
23.940        27
23.950        33
23.960         7
23.970        13
23.980        40
23.990        33
24.000        47
24.010        20
24.020        20
24.030        13
24.040        60
24.050        20
24.060        27
24.070        20
24.080        40
24.090        33
24.100        33
24.110        33
24.120        33
24.130         7
24.140        33
24.150        27
24.160        20
24.170        40
24.180        20
24.190         7
24.200        13
24.210        20
24.220        47
24.230        33
24.240        13
24.250         0
24.260        40
24.270         0
24.280        13
24.290        27
24.300        47
24.310        47
24.320         0
24.330        47
24.340        27
24.350        33
24.360        27
24.370        27
24.380        20
24.390        47
24.400        20
24.410        53
24.420        40
24.430        33
24.440         7
24.450        27
24.460        27
24.470        33
24.480        13
24.490        13
24.500        27
24.510        53
24.520        27
24.530        47
24.540        27
24.550        67
24.560        47
24.570        27
24.580        33
24.590        53
24.600        53
24.610        47
24.620        13
24.630        20
24.640        33
24.650        27
24.660        53
24.670        47
24.680        33
24.690        13
24.700        47
24.710        67
24.720        27
24.730        20
24.740        40
24.750        20
24.760        27
24.770        40
24.780        33
24.790        60
24.800        33
24.810        40
24.820        53
24.830        67
24.840        40
24.850        27
24.860        33
24.870        40
24.880        33
24.890        27
24.900        67
24.910        53
24.920        33
24.930        27
24.940        67
24.950        40
24.960        47
24.970         0
24.980        27
24.990        20
25.000        27
25.010        73
25.020        60
25.030        53
25.040        33
25.050        20
25.060        20
25.070        27
25.080        13
25.090        33
25.100        27
25.110        33
25.120        20
25.130        47
25.140        33
25.150        27
25.160        53
25.170        13
25.180        53
25.190        47
25.200        27
25.210        40
25.220        47
25.230        13
25.240        27
25.250        27
25.260        67
25.270        40
25.280        27
25.290        47
25.300        33
25.310        40
25.320        27
25.330        20
25.340        47
25.350        13
25.360        33
25.370        60
25.380        13
25.390        13
25.400        40
25.410        60
25.420        27
25.430        27
25.440        27
25.450        27
25.460        13
25.470        33
25.480        33
25.490        33
25.500         7
25.510        27
25.520        20
25.530        27
25.540        13
25.550        13
25.560        27
25.570        20
25.580        27
25.590        33
25.600        33
25.610        20
25.620        33
25.630        33
25.640        27
25.650        40
25.660        27
25.670        33
25.680        47
25.690        20
25.700        20
25.710        27
25.720        40
25.730        20
25.740        27
25.750        13
25.760        47
25.770        67
25.780        47
25.790        47
25.800        53
25.810        20
25.820        27
25.830        33
25.840        27
25.850        40
25.860        53
25.870         0
25.880        27
25.890        40
25.900        27
25.910        20
25.920        20
25.930        40
25.940        40
25.950        27
25.960        13
25.970        40
25.980        33
25.990        20
26.000        13
26.010        33
26.020        40
26.030        53
26.040        27
26.050        13
26.060        47
26.070        40
26.080        27
26.090        27
26.100        20
26.110        33
26.120        27
26.130        20
26.140        33
26.150        20
26.160        47
26.170        47
26.180        27
26.190        27
26.200        47
26.210        27
26.220        27
26.230        20
26.240        40
26.250        40
26.260        33
26.270        60
26.280        53
26.290        40
26.300        47
26.310        80
26.320        73
26.330        20
26.340        53
26.350        20
26.360        47
26.370        33
26.380        33
26.390        33
26.400        53
26.410        33
26.420        33
26.430        40
26.440        53
26.450        53
26.460        33
26.470        53
26.480        33
26.490        20
26.500        13
26.510        27
26.520        40
26.530        20
26.540        40
26.550        33
26.560        27
26.570        73
26.580        40
26.590        27
26.600        40
26.610        40
26.620        27
26.630        40
26.640        67
26.650        67
26.660        47
26.670         0
26.680        47
26.690        53
26.700        20
26.710        20
26.720        20
26.730        33
26.740        53
26.750        33
26.760        20
26.770        33
26.780        20
26.790        53
26.800        40
26.810        27
26.820        40
26.830        27
26.840        13
26.850        47
26.860        20
26.870         7
26.880        20
26.890        27
26.900        27
26.910        20
26.920        20
26.930        33
26.940        13
26.950        33
26.960        40
26.970        13
26.980        40
26.990        20
27.000        33
27.010        20
27.020        13
27.030         7
27.040        20
27.050        13
27.060        20
27.070        33
27.080        20
27.090        27
27.100        33
27.110        20
27.120        33
27.130        33
27.140        33
27.150        27
27.160        40
27.170        20
27.180        27
27.190        40
27.200        47
27.210        20
27.220         7
27.230         7
27.240        33
27.250        20
27.260        33
27.270        33
27.280        27
27.290        40
27.300        13
27.310        20
27.320        20
27.330        47
27.340        27
27.350        20
27.360        20
27.370        27
27.380        40
27.390        27
27.400        13
27.410        33
27.420        13
27.430        13
27.440        47
27.450        40
27.460        53
27.470        33
27.480        13
27.490        13
27.500        40
27.510        13
27.520        20
27.530         0
27.540        27
27.550        60
27.560        13
27.570        33
27.580        20
27.590        20
27.600        40
27.610        20
27.620        67
27.630        20
27.640        47
27.650        13
27.660        27
27.670        20
27.680        13
27.690        53
27.700        33
27.710        53
27.720        53
27.730        40
27.740        33
27.750        27
27.760        33
27.770        20
27.780        20
27.790        33
27.800        47
27.810        20
27.820        33
27.830        20
27.840        33
27.850        40
27.860        60
27.870        47
27.880        47
27.890        33
27.900        47
27.910        53
27.920        33
27.930        20
27.940        20
27.950        40
27.960        33
27.970        27
27.980        27
27.990        27
28.000        20
28.010        40
28.020        13
28.030        33
28.040        40
28.050        33
28.060        40
28.070        40
28.080        47
28.090        33
28.100        27
28.110        40
28.120        20
28.130        27
28.140        20
28.150        13
28.160        53
28.170         7
28.180        20
28.190        20
28.200        47
28.210        40
28.220        40
28.230        27
28.240        27
28.250        40
28.260        40
28.270        13
28.280        33
28.290        27
28.300        40
28.310        27
28.320        27
28.330        33
28.340        27
28.350        27
28.360        27
28.370        27
28.380         0
28.390        27
28.400        33
28.410        27
28.420        13
28.430        13
28.440         7
28.450         7
28.460        33
28.470        27
28.480        13
28.490        13
28.500         7
28.510        53
28.520         7
28.530        20
28.540         7
28.550        40
28.560        53
28.570         7
28.580        40
28.590        33
28.600        53
28.610        53
28.620        53
28.630        40
28.640        53
28.650        40
28.660        27
28.670         7
28.680        33
28.690        20
28.700        13
28.710        27
28.720        47
28.730        33
28.740        47
28.750        53
28.760        60
28.770         0
28.780        20
28.790        20
28.800        27
28.810        20
28.820        20
28.830        13
28.840        20
28.850        27
28.860        33
28.870        20
28.880        60
28.890        60
28.900        33
28.910        13
28.920        40
28.930        40
28.940        20
28.950        47
28.960        20
28.970        47
28.980        13
28.990        20
29.000        33
29.010        40
29.020        53
29.030        27
29.040        53
29.050        20
29.060        40
29.070        33
29.080        53
29.090        20
29.100        73
29.110        20
29.120        53
29.130        47
29.140        33
29.150        33
29.160        67
29.170        53
29.180        13
29.190        47
29.200        40
29.210        20
29.220        33
29.230        47
29.240        33
29.250        33
29.260        60
29.270        33
29.280        53
29.290        47
29.300        40
29.310        40
29.320        33
29.330        67
29.340        73
29.350        60
29.360        87
29.370       113
29.380        67
29.390        67
29.400        33
29.410        80
29.420        60
29.430        67
29.440       107
29.450        67
29.460        53
29.470        40
29.480        60
29.490        40
29.500        33
29.510        67
29.520        13
29.530        27
29.540        53
29.550        40
29.560        27
29.570        20
29.580        53
29.590        33
29.600        20
29.610        27
29.620        33
29.630        20
29.640        33
29.650        33
29.660         7
29.670        40
29.680        27
29.690        27
29.700         7
29.710        27
29.720        47
29.730        20
29.740        40
29.750        53
29.760        27
29.770        20
29.780        20
29.790        33
29.800        20
29.810        33
29.820        40
29.830         7
29.840        67
29.850        27
29.860        53
29.870        73
29.880        33
29.890        47
29.900        40
29.910        47
29.920        27
29.930        33
29.940        47
29.950        20
29.960        20
29.970        47
29.980        67
29.990        47
30.000        33
30.010        40
30.020        33
30.030        20
30.040        27
30.050        40
30.060        60
30.070        40
30.080        33
30.090        60
30.100        40
30.110        20
30.120        20
30.130        27
30.140        27
30.150        33
30.160        33
30.170        20
30.180        73
30.190        33
30.200        53
30.210        67
30.220        47
30.230        20
30.240        60
30.250        20
30.260        40
30.270        60
30.280        53
30.290        33
30.300        27
30.310        27
30.320        33
30.330        40
30.340        13
30.350        60
30.360        33
30.370        60
30.380        33
30.390        20
30.400        27
30.410        40
30.420        27
30.430        47
30.440        33
30.450        53
30.460        13
30.470        20
30.480        47
30.490        33
30.500        47
30.510        73
30.520        60
30.530        47
30.540        60
30.550         7
30.560        87
30.570        47
30.580        93
30.590       113
30.600        47
30.610        87
30.620        53
30.630        80
30.640        93
30.650        93
30.660       120
30.670       100
30.680       100
30.690       147
30.700       127
30.710       213
30.720       200
30.730       193
30.740       227
30.750       273
30.760       307
30.770       307
30.780       400
30.790       520
30.800       560
30.810       686
30.820       666
30.830       766
30.840       880
30.850      1066
30.860      1206
30.870      1386
30.880      1613
30.890      1653
30.900      1946
30.910      2212
30.920      2352
30.930      2399
30.940      2672
30.950      2492
30.960      2666
30.970      2566
30.980      2366
30.990      2039
31.000      1959
31.010      1693
31.020      1639
31.030      1506
31.040      1373
31.050      1073
31.060       900
31.070       806
31.080       606
31.090       560
31.100       420
31.110       287
31.120       260
31.130       240
31.140       233
31.150       167
31.160       167
31.170       113
31.180        93
31.190       100
31.200       127
31.210        67
31.220        53
31.230       113
31.240        73
31.250        87
31.260        40
31.270        60
31.280        87
31.290        40
31.300        67
31.310        60
31.320        87
31.330        87
31.340        67
31.350        53
31.360        67
31.370        60
31.380        47
31.390       113
31.400        60
31.410        27
31.420        53
31.430        27
31.440        40
31.450        20
31.460        87
31.470        33
31.480        47
31.490        40
31.500        40
31.510        53
31.520        40
31.530        47
31.540        53
31.550        47
31.560        53
31.570        73
31.580        40
31.590        73
31.600        53
31.610        47
31.620        53
31.630        27
31.640        47
31.650        33
31.660        60
31.670        33
31.680        47
31.690        47
31.700        73
31.710        40
31.720        33
31.730        27
31.740        27
31.750        40
31.760        40
31.770        27
31.780        13
31.790        47
31.800        33
31.810        47
31.820        27
31.830        33
31.840        33
31.850        27
31.860        67
31.870        27
31.880        53
31.890         7
31.900        20
31.910        47
31.920        40
31.930        20
31.940        47
31.950        47
31.960        40
31.970        80
31.980        67
31.990        33
32.000        53
32.010        47
32.020        33
32.030        33
32.040        40
32.050        27
32.060        60
32.070        53
32.080        53
32.090        27
32.100        33
32.110        27
32.120        27
32.130        33
32.140        33
32.150        53
32.160        53
32.170        67
32.180        33
32.190        33
32.200        13
32.210        40
32.220        27
32.230        27
32.240        53
32.250        33
32.260        40
32.270        40
32.280        47
32.290        40
32.300        27
32.310        47
32.320        47
32.330        40
32.340        27
32.350        40
32.360        27
32.370        20
32.380        13
32.390        13
32.400        33
32.410        67
32.420        33
32.430        33
32.440        27
32.450        40
32.460         7
32.470        27
32.480        47
32.490        60
32.500        13
32.510        27
32.520        47
32.530        33
32.540        60
32.550        33
32.560        47
32.570         7
32.580        47
32.590        60
32.600        53
32.610        20
32.620        33
32.630        47
32.640        20
32.650        27
32.660        20
32.670        40
32.680        33
32.690        27
32.700        20
32.710        33
32.720        33
32.730        20
32.740        53
32.750        20
32.760        40
32.770        33
32.780        27
32.790        33
32.800        53
32.810        27
32.820        13
32.830        20
32.840        27
32.850        27
32.860        13
32.870        20
32.880        33
32.890        13
32.900        33
32.910        27
32.920        33
32.930        20
32.940        47
32.950        47
32.960        33
32.970        33
32.980        27
32.990        33
33.000        27
33.010        20
33.020        20
33.030        20
33.040        20
33.050         7
33.060        20
33.070        27
33.080        27
33.090        33
33.100        40
33.110        33
33.120        20
33.130        27
33.140        47
33.150        13
33.160        47
33.170        20
33.180        40
33.190        13
33.200        47
33.210        27
33.220        13
33.230        53
33.240         7
33.250        40
33.260        40
33.270        27
33.280        27
33.290        20
33.300        47
33.310        27
33.320        13
33.330        47
33.340        60
33.350        13
33.360        27
33.370        27
33.380        60
33.390        20
33.400        33
33.410        27
33.420        27
33.430         7
33.440        20
33.450        40
33.460        40
33.470        53
33.480        33
33.490        47
33.500        27
33.510        33
33.520        20
33.530        20
33.540        27
33.550        13
33.560        40
33.570        20
33.580        20
33.590        27
33.600        20
33.610        27
33.620        20
33.630        47
33.640        20
33.650        40
33.660        33
33.670        27
33.680        20
33.690        27
33.700        47
33.710        40
33.720        13
33.730        20
33.740        33
33.750        67
33.760        27
33.770        20
33.780        33
33.790        40
33.800        47
33.810        27
33.820        20
33.830        27
33.840        20
33.850        20
33.860        20
33.870        20
33.880        27
33.890        27
33.900        27
33.910        33
33.920        27
33.930        33
33.940        33
33.950        60
33.960        20
33.970        20
33.980        33
33.990        13
34.000        20
34.010        20
34.020         7
34.030        53
34.040        27
34.050         7
34.060        27
34.070        27
34.080        27
34.090        33
34.100        40
34.110        27
34.120        40
34.130        40
34.140        73
34.150        33
34.160        27
34.170        20
34.180        33
34.190        13
34.200        47
34.210        27
34.220        40
34.230        20
34.240        27
34.250        33
34.260        60
34.270        27
34.280        60
34.290        27
34.300        27
34.310        53
34.320        20
34.330        27
34.340        27
34.350        33
34.360         7
34.370        20
34.380        20
34.390        33
34.400         7
34.410        27
34.420        33
34.430        47
34.440        20
34.450         7
34.460        20
34.470        40
34.480         7
34.490        20
34.500        13
34.510        33
34.520        47
34.530        33
34.540        13
34.550        13
34.560        20
34.570        27
34.580        33
34.590        27
34.600        40
34.610        47
34.620        33
34.630        40
34.640        20
34.650        40
34.660         7
34.670        47
34.680        33
34.690        20
34.700         7
34.710        27
34.720        33
34.730        33
34.740        33
34.750         7
34.760         0
34.770        13
34.780        27
34.790        47
34.800        13
34.810        33
34.820        40
34.830        27
34.840        33
34.850        13
34.860        20
34.870        40
34.880        40
34.890        20
34.900        40
34.910        27
34.920        33
34.930        20
34.940        27
34.950        27
34.960        13
34.970        40
34.980        33
34.990        33
35.000        20
35.010        20
35.020         7
35.030        13
35.040        47
35.050        47
35.060        47
35.070        33
35.080        40
35.090        27
35.100        47
35.110        33
35.120        40
35.130        60
35.140        73
35.150        80
35.160        87
35.170       140
35.180        47
35.190        53
35.200        47
35.210        20
35.220        47
35.230       140
35.240       107
35.250        33
35.260        47
35.270        93
35.280        40
35.290        27
35.300        47
35.310        27
35.320        47
35.330        33
35.340        27
35.350        40
35.360        27
35.370         7
35.380        13
35.390        20
35.400        33
35.410        67
35.420        67
35.430        40
35.440         7
35.450        27
35.460        20
35.470        40
35.480         7
35.490        47
35.500        27
35.510        27
35.520         7
35.530        27
35.540        33
35.550        13
35.560        27
35.570        20
35.580        27
35.590        27
35.600         0
35.610        13
35.620        13
35.630        13
35.640        20
35.650        33
35.660        53
35.670        13
35.680        33
35.690         7
35.700        13
35.710        13
35.720        20
35.730        13
35.740        53
35.750        33
35.760        20
35.770        40
35.780        53
35.790        27
35.800        40
35.810        27
35.820        20
35.830         0
35.840        13
35.850        13
35.860        40
35.870        20
35.880        40
35.890        20
35.900        13
35.910        47
35.920        20
35.930        60
35.940        47
35.950        27
35.960        67
35.970        27
35.980        33
35.990        20
36.000         7
36.010        33
36.020        27
36.030        27
36.040        27
36.050         7
36.060        27
36.070        40
36.080        47
36.090        13
36.100        20
36.110        40
36.120        13
36.130        53
36.140        33
36.150        27
36.160        60
36.170        13
36.180        27
36.190        47
36.200        13
36.210        20
36.220        13
36.230        20
36.240         7
36.250        33
36.260        27
36.270        33
36.280        13
36.290        20
36.300         7
36.310        27
36.320        27
36.330        27
36.340        33
36.350        13
36.360        13
36.370        47
36.380        27
36.390        40
36.400        13
36.410         7
36.420        13
36.430        33
36.440        47
36.450        40
36.460         7
36.470        27
36.480        40
36.490        40
36.500         7
36.510        27
36.520        27
36.530        13
36.540        20
36.550        20
36.560        47
36.570        20
36.580        13
36.590        20
36.600         7
36.610        20
36.620        60
36.630         7
36.640        47
36.650         7
36.660         7
36.670        67
36.680         7
36.690        13
36.700        33
36.710        27
36.720        27
36.730         7
36.740        13
36.750        20
36.760        27
36.770        13
36.780        60
36.790        60
36.800        20
36.810        27
36.820        33
36.830         0
36.840        27
36.850        33
36.860        13
36.870        27
36.880        40
36.890        47
36.900        20
36.910        20
36.920        33
36.930         7
36.940        33
36.950        40
36.960        27
36.970        47
36.980        40
36.990        20
37.000        33
37.010        27
37.020        13
37.030        27
37.040        13
37.050        27
37.060        13
37.070        20
37.080        53
37.090        27
37.100        27
37.110        20
37.120        13
37.130        13
37.140         7
37.150        27
37.160        40
37.170        13
37.180        47
37.190        20
37.200        13
37.210         0
37.220        20
37.230        40
37.240        13
37.250        20
37.260        33
37.270        13
37.280        40
37.290         7
37.300        33
37.310        33
37.320        40
37.330        33
37.340        20
37.350        33
37.360        13
37.370         7
37.380        33
37.390        20
37.400         7
37.410        27
37.420        27
37.430        20
37.440        53
37.450        33
37.460        27
37.470        20
37.480        33
37.490        13
37.500        27
37.510        20
37.520        13
37.530        33
37.540        40
37.550        13
37.560        33
37.570        20
37.580        53
37.590        53
37.600        13
37.610        20
37.620        27
37.630        47
37.640        20
37.650        27
37.660        33
37.670        20
37.680        20
37.690        20
37.700        47
37.710        27
37.720        13
37.730        47
37.740        27
37.750        33
37.760        53
37.770        33
37.780        20
37.790        33
37.800        20
37.810        27
37.820        47
37.830         7
37.840        33
37.850        27
37.860        20
37.870        13
37.880        20
37.890        20
37.900        47
37.910        13
37.920        27
37.930        20
37.940        27
37.950        60
37.960        13
37.970        40
37.980        27
37.990        33
38.000        40
38.010        27
38.020        53
38.030        60
38.040        20
38.050        73
38.060        67
38.070        40
38.080        47
38.090        33
38.100        73
38.110        53
38.120        40
38.130        53
38.140        60
38.150        40
38.160        33
38.170        20
38.180        67
38.190        40
38.200        40
38.210        67
38.220        13
38.230        40
38.240        40
38.250        40
38.260        40
38.270        13
38.280        87
38.290        60
38.300        53
38.310        27
38.320        33
38.330        87
38.340        53
38.350        80
38.360        80
38.370        53
38.380        40
38.390        33
38.400        40
38.410        33
38.420        60
38.430        80
38.440        60
38.450        13
38.460        67
38.470        40
38.480        53
38.490        47
38.500        33
38.510        67
38.520        40
38.530        80
38.540       100
38.550        53
38.560        73
38.570        40
38.580        47
38.590        93
38.600        33
38.610        80
38.620        53
38.630        40
38.640        60
38.650        47
38.660        60
38.670        67
38.680        47
38.690        93
38.700        73
38.710        67
38.720        47
38.730        73
38.740        53
38.750        60
38.760        47
38.770        27
38.780        47
38.790        33
38.800        27
38.810        33
38.820        40
38.830        67
38.840        73
38.850        27
38.860        13
38.870        67
38.880        60
38.890        60
38.900        27
38.910        20
38.920        60
38.930        47
38.940        33
38.950        20
38.960        40
38.970        47
38.980        13
38.990        27
39.000        27
39.010        47
39.020        20
39.030        60
39.040        40
39.050        33
39.060        20
39.070        13
39.080         0
39.090        20
39.100        20
39.110        33
39.120        47
39.130        20
39.140        47
39.150        20
39.160        33
39.170        20
39.180        53
39.190        47
39.200        20
39.210        33
39.220        47
39.230        33
39.240         7
39.250        53
39.260        40
39.270        27
39.280        40
39.290        33
39.300        20
39.310        47
39.320        27
39.330        53
39.340        40
39.350        33
39.360        13
39.370         7
39.380        27
39.390        40
39.400        27
39.410        40
39.420        33
39.430        27
39.440        13
39.450        40
39.460        20
39.470        27
39.480        13
39.490        20
39.500        13
39.510        33
39.520        13
39.530        47
39.540        20
39.550        33
39.560        27
39.570        20
39.580        27
39.590        33
39.600        33
39.610        13
39.620        60
39.630        33
39.640        47
39.650        13
39.660        27
39.670        20
39.680        40
39.690        13
39.700         7
39.710        13
39.720        13
39.730        27
39.740        33
39.750        33
39.760        27
39.770        33
39.780        27
39.790        20
39.800         0
39.810        13
39.820        33
39.830        27
39.840        33
39.850        13
39.860        47
39.870        27
39.880        27
39.890        40
39.900        27
39.910        20
39.920        13
39.930        13
39.940         7
39.950        13
39.960        27
39.970        47
39.980        33
39.990         0
40.000        33
40.010        13
40.020        20
40.030        20
40.040        47
40.050        13
40.060        40
40.070        27
40.080        33
40.090        13
40.100        13
40.110        33
40.120        13
40.130        13
40.140        20
40.150        40
40.160        33
40.170        67
40.180         7
40.190        40
40.200        33
40.210        33
40.220        27
40.230        20
40.240        20
40.250        40
40.260        27
40.270        33
40.280        27
40.290        33
40.300        13
40.310        33
40.320        20
40.330        20
40.340        20
40.350        20
40.360        13
40.370        20
40.380        33
40.390        27
40.400         7
40.410        20
40.420        20
40.430        27
40.440        20
40.450        33
40.460        13
40.470        27
40.480        33
40.490        40
40.500        20
40.510        20
40.520        33
40.530        13
40.540        27
40.550        40
40.560        13
40.570        33
40.580        27
40.590        20
40.600        47
40.610        47
40.620        27
40.630        47
40.640        20
40.650        27
40.660        27
40.670        13
40.680        27
40.690        20
40.700        13
40.710         7
40.720        13
40.730        40
40.740        13
40.750        13
40.760        40
40.770        40
40.780        27
40.790        20
40.800        20
40.810         7
40.820         7
40.830         0
40.840        13
40.850        13
40.860        27
40.870        20
40.880        13
40.890        20
40.900         7
40.910        27
40.920        33
40.930        27
40.940        40
40.950        27
40.960        13
40.970        20
40.980         7
40.990        20
41.000        27
41.010        13
41.020        27
41.030        27
41.040        27
41.050        40
41.060        33
41.070        13
41.080         7
41.090        13
41.100        20
41.110        13
41.120        20
41.130        27
41.140        60
41.150        20
41.160        40
41.170        13
41.180        33
41.190        27
41.200        27
41.210        27
41.220         7
41.230        13
41.240        33
41.250        27
41.260        13
41.270        27
41.280         0
41.290        13
41.300        40
41.310        40
41.320        20
41.330        13
41.340        13
41.350        47
41.360         7
41.370         7
41.380        27
41.390        20
41.400         7
41.410        13
41.420        13
41.430        40
41.440        40
41.450        27
41.460         7
41.470        13
41.480         7
41.490        13
41.500        33
41.510        60
41.520        13
41.530        13
41.540         7
41.550        20
41.560        47
41.570        20
41.580        27
41.590        20
41.600        20
41.610        33
41.620        53
41.630        33
41.640        33
41.650        53
41.660        20
41.670        20
41.680        40
41.690        87
41.700        67
41.710        87
41.720        73
41.730        87
41.740        73
41.750        60
41.760        80
41.770        60
41.780        20
41.790        40
41.800        47
41.810        33
41.820        47
41.830        87
41.840        40
41.850        33
41.860        20
41.870        20
41.880        33
41.890        33
41.900        33
41.910        33
41.920        20
41.930        27
41.940        20
41.950        40
41.960        33
41.970         7
41.980        20
41.990        13
42.000        20
42.010        40
42.020        40
42.030        33
42.040        27
42.050        13
42.060         7
42.070         7
42.080        20
42.090         7
42.100        13
42.110        40
42.120        40
42.130        20
42.140        27
42.150        13
42.160         7
42.170         7
42.180        40
42.190        33
42.200        33
42.210        20
42.220         7
42.230        27
42.240         7
42.250        20
42.260         7
42.270        33
42.280        13
42.290        33
42.300        20
42.310        27
42.320        27
42.330         0
42.340        13
42.350        40
42.360        20
42.370        27
42.380        27
42.390        33
42.400        13
42.410        20
42.420         7
42.430        27
42.440         0
42.450        33
42.460        27
42.470        33
42.480        20
42.490         7
42.500        13
42.510        27
42.520        20
42.530         7
42.540        13
42.550        27
42.560        33
42.570        13
42.580        40
42.590        33
42.600        40
42.610        20
42.620        20
42.630        13
42.640        40
42.650        13
42.660        40
42.670        20
42.680        13
42.690        33
42.700        53
42.710        20
42.720        40
42.730        20
42.740        13
42.750        27
42.760        27
42.770        27
42.780        40
42.790        13
42.800        20
42.810         7
42.820        53
42.830        47
42.840         7
42.850        13
42.860        33
42.870         0
42.880        13
42.890        27
42.900        13
42.910        73
42.920        20
42.930        27
42.940        33
42.950        33
42.960        47
42.970        27
42.980        13
42.990        33
43.000         7
43.010        40
43.020        13
43.030         7
43.040        27
43.050        20
43.060        40
43.070        27
43.080        20
43.090        13
43.100         7
43.110        27
43.120        40
43.130        47
43.140        40
43.150        20
43.160        13
43.170        20
43.180        73
43.190        27
43.200        47
43.210        40
43.220        53
43.230        47
43.240        13
43.250        67
43.260         7
43.270        53
43.280        40
43.290        27
43.300         0
43.310        27
43.320        27
43.330        13
43.340        13
43.350        33
43.360        13
43.370        27
43.380        33
43.390        47
43.400        27
43.410        40
43.420        33
43.430        13
43.440        27
43.450        27
43.460        27
43.470        20
43.480        33
43.490         7
43.500         7
43.510        13
43.520        40
43.530        27
43.540         7
43.550         7
43.560        47
43.570        27
43.580        40
43.590        27
43.600        40
43.610        13
43.620         0
43.630        20
43.640        33
43.650        20
43.660        27
43.670        20
43.680        33
43.690        20
43.700        20
43.710        67
43.720         7
43.730        33
43.740        13
43.750        13
43.760        20
43.770        13
43.780        13
43.790        27
43.800        13
43.810        40
43.820         7
43.830        27
43.840        27
43.850        13
43.860        33
43.870         7
43.880        20
43.890         7
43.900        20
43.910        33
43.920        33
43.930         7
43.940         0
43.950        13
43.960        33
43.970        20
43.980        27
43.990        27
44.000        20
44.010        33
44.020        20
44.030        40
44.040        13
44.050        33
44.060        13
44.070         0
44.080        27
44.090        13
44.100        20
44.110        40
44.120        20
44.130        20
44.140        13
44.150        13
44.160        33
44.170        27
44.180        13
44.190        33
44.200        40
44.210        13
44.220        13
44.230        20
44.240        20
44.250        33
44.260        13
44.270        40
44.280        27
44.290        27
44.300        27
44.310        13
44.320        27
44.330        27
44.340        27
44.350        33
44.360        47
44.370        13
44.380        13
44.390        20
44.400        13
44.410        27
44.420        13
44.430         7
44.440        27
44.450        20
44.460        33
44.470        13
44.480        27
44.490        20
44.500        20
44.510        20
44.520        27
44.530        40
44.540        13
44.550        20
44.560        13
44.570         7
44.580        33
44.590        13
44.600        13
44.610         7
44.620        40
44.630        20
44.640        47
44.650        20
44.660        20
44.670        13
44.680        20
44.690        33
44.700        13
44.710        33
44.720        33
44.730        20
44.740         7
44.750         7
44.760        53
44.770        47
44.780        47
44.790        13
44.800         7
44.810        20
44.820        13
44.830        13
44.840        27
44.850        13
44.860        13
44.870        33
44.880        33
44.890        13
44.900         0
44.910        13
44.920         0
44.930        20
44.940        40
44.950         7
44.960        27
44.970         7
44.980        47
44.990        13
45.000        27
45.010         0
45.020        27
45.030        27
45.040         7
45.050        20
45.060        13
45.070        13
45.080        27
45.090        33
45.100        27
45.110         0
45.120        20
45.130        27
45.140        27
45.150        33
45.160        13
45.170        20
45.180        13
45.190        20
45.200        33
45.210        40
45.220        33
45.230        40
45.240        27
45.250        13
45.260        33
45.270        20
45.280        33
45.290         0
45.300        13
45.310        13
45.320        27
45.330        20
45.340        20
45.350         7
45.360        27
45.370        13
45.380        27
45.390        13
45.400         0
45.410        27
45.420        20
45.430        27
45.440        27
45.450        20
45.460        27
45.470        20
45.480        20
45.490        27
45.500        20
45.510         7
45.520        13
45.530        20
45.540        33
45.550        20
45.560        33
45.570        27
45.580         7
45.590        40
45.600        27
45.610        27
45.620        33
45.630        20
45.640         7
45.650        33
45.660        13
45.670        20
45.680        40
45.690        60
45.700        27
45.710        53
45.720        33
45.730         7
45.740        13
45.750        33
45.760        27
45.770        20
45.780        13
45.790        20
45.800        13
45.810         7
45.820        13
45.830        13
45.840         7
45.850        27
45.860        33
45.870        27
45.880         0
45.890        27
45.900        27
45.910         7
45.920        20
45.930        13
45.940        27
45.950         7
45.960        20
45.970        13
45.980        20
45.990         7
46.000        40
46.010         0
46.020        13
46.030        40
46.040         7
46.050        53
46.060        13
46.070         7
46.080        13
46.090        20
46.100        13
46.110        20
46.120        20
46.130         7
46.140        13
46.150        27
46.160        13
46.170        13
46.180        27
46.190        27
46.200         7
46.210        20
46.220        13
46.230        13
46.240         7
46.250        13
46.260         0
46.270         7
46.280        27
46.290        20
46.300        47
46.310        13
46.320         7
46.330         7
46.340        20
46.350        27
46.360        27
46.370        33
46.380        13
46.390         0
46.400        13
46.410        13
46.420         7
46.430        33
46.440        20
46.450        33
46.460        33
46.470        40
46.480        27
46.490         7
46.500         7
46.510        27
46.520        20
46.530        27
46.540        20
46.550        13
46.560        13
46.570        27
46.580        20
46.590        27
46.600        27
46.610        33
46.620        20
46.630        13
46.640        27
46.650        60
46.660        20
46.670        53
46.680        13
46.690        33
46.700         7
46.710        13
46.720        20
46.730        40
46.740        20
46.750         7
46.760        13
46.770         7
46.780        13
46.790        20
46.800        40
46.810        27
46.820        13
46.830         0
46.840        40
46.850        20
46.860        27
46.870        20
46.880        20
46.890        33
46.900        20
46.910        20
46.920        27
46.930         7
46.940        20
46.950        13
46.960        27
46.970        33
46.980         7
46.990        13
47.000        33
47.010        33
47.020        13
47.030        33
47.040        13
47.050        20
47.060        20
47.070        47
47.080        27
47.090        33
47.100        27
47.110        27
47.120         7
47.130        33
47.140         7
47.150        27
47.160        27
47.170        27
47.180        20
47.190        13
47.200        20
47.210        33
47.220         7
47.230        60
47.240        13
47.250        53
47.260        40
47.270        20
47.280         7
47.290        40
47.300        40
47.310        13
47.320        33
47.330        27
47.340        13
47.350        47
47.360        60
47.370        53
47.380        13
47.390        33
47.400        33
47.410        33
47.420        20
47.430        13
47.440        33
47.450        40
47.460        20
47.470        27
47.480        47
47.490        40
47.500        27
47.510        27
47.520        27
47.530        33
47.540        27
47.550        20
47.560         7
47.570        33
47.580        20
47.590        40
47.600        13
47.610        33
47.620        47
47.630         7
47.640        33
47.650        40
47.660        13
47.670        33
47.680        20
47.690         0
47.700        20
47.710        33
47.720         0
47.730        20
47.740        20
47.750        33
47.760        47
47.770        53
47.780        20
47.790         7
47.800         0
47.810        20
47.820        13
47.830        20
47.840        33
47.850         7
47.860        13
47.870        27
47.880        13
47.890        13
47.900        27
47.910        40
47.920        20
47.930        20
47.940        20
47.950         7
47.960        27
47.970         7
47.980        20
47.990        13
48.000        27
48.010        20
48.020        20
48.030        33
48.040        33
48.050        20
48.060        27
48.070         7
48.080        20
48.090        20
48.100        27
48.110        20
48.120         0
48.130        53
48.140        13
48.150        20
48.160        20
48.170        27
48.180        33
48.190        20
48.200        13
48.210        27
48.220        13
48.230        40
48.240        13
48.250        20
48.260        47
48.270        27
48.280        20
48.290        27
48.300        27
48.310         7
48.320         7
48.330        20
48.340        40
48.350        33
48.360         0
48.370        27
48.380        27
48.390        40
48.400        33
48.410        60
48.420        20
48.430        20
48.440        47
48.450        40
48.460        13
48.470        47
48.480        27
48.490        27
48.500         7
48.510        20
48.520        40
48.530        40
48.540        33
48.550        47
48.560        20
48.570        20
48.580        27
48.590        27
48.600         7
48.610         0
48.620        13
48.630        20
48.640        20
48.650        27
48.660        40
48.670        13
48.680        13
48.690         7
48.700         7
48.710        40
48.720        33
48.730        27
48.740        20
48.750        20
48.760        33
48.770        13
48.780        27
48.790        13
48.800        13
48.810        27
48.820         0
48.830        13
48.840        40
48.850         0
48.860         7
48.870        20
48.880        13
48.890        27
48.900         7
48.910         0
48.920        20
48.930         7
48.940        13
48.950         7
48.960         7
48.970        20
48.980        13
48.990         0
49.000        20
49.010        20
49.020         7
49.030        13
49.040        47
49.050        33
49.060         7
49.070        27
49.080        27
49.090        13
49.100        20
49.110        13
49.120        27
49.130        13
49.140        20
49.150         0
49.160        33
49.170         7
49.180        40
49.190        20
49.200        33
49.210         7
49.220        20
49.230        13
49.240        33
49.250         7
49.260         0
49.270        20
49.280        13
49.290        27
49.300         7
49.310         0
49.320         0
49.330        47
49.340        13
49.350        13
49.360        33
49.370         0
49.380        20
49.390        47
49.400         7
49.410        40
49.420        20
49.430        27
49.440        20
49.450        27
49.460        13
49.470        27
49.480         0
49.490        20
49.500        13
49.510        13
49.520        33
49.530        13
49.540        13
49.550        20
49.560        27
49.570        13
49.580         7
49.590        13
49.600        40
49.610         7
49.620        20
49.630         7
49.640        27
49.650        13
49.660         7
49.670        20
49.680        20
49.690        13
49.700         7
49.710        13
49.720        27
49.730        27
49.740         7
49.750        27
49.760        20
49.770        20
49.780         7
49.790        27
49.800         7
49.810         7
49.820        20
49.830        27
49.840         7
49.850        27
49.860        20
49.870        53
49.880        33
49.890        20
49.900        40
49.910        13
49.920        13
49.930        80
49.940        13
49.950         7
49.960        13
49.970        27
49.980        27
49.990        40
50.000        27
50.010         7
50.020        27
50.030         0
50.040        13
50.050        27
50.060        20
50.070        27
50.080         7
50.090        13
50.100        13
50.110         7
50.120        27
50.130        20
50.140        13
50.150        13
50.160        20
50.170         7
50.180        27
50.190        20
50.200        13
50.210        13
50.220        33
50.230        13
50.240        13
50.250         7
50.260        27
50.270        20
50.280         7
50.290        60
50.300         7
50.310        13
50.320        20
50.330         0
50.340        20
50.350         7
50.360         0
50.370        13
50.380        13
50.390        27
50.400         0
50.410        40
50.420        13
50.430         7
50.440        13
50.450         7
50.460         7
50.470        20
50.480        27
50.490         7
50.500        40
50.510        47
50.520        33
50.530        13
50.540        27
50.550         7
50.560        20
50.570        33
50.580        33
50.590        20
50.600        13
50.610        20
50.620        13
50.630         7
50.640        27
50.650        13
50.660        27
50.670        13
50.680        27
50.690        20
50.700        20
50.710        20
50.720         7
50.730        13
50.740        13
50.750        13
50.760        13
50.770        33
50.780        27
50.790        27
50.800        20
50.810        33
50.820        20
50.830         7
50.840         0
50.850         7
50.860        40
50.870        20
50.880        13
50.890        27
50.900        20
50.910        27
50.920        27
50.930        20
50.940        20
50.950        13
50.960        27
50.970        20
50.980        27
50.990         7
51.000        20
51.010        27
51.020        27
51.030        20
51.040        13
51.050        27
51.060         7
51.070        33
51.080         0
51.090         7
51.100         7
51.110        40
51.120        27
51.130        20
51.140        27
51.150         7
51.160        27
51.170        13
51.180        27
51.190        20
51.200        27
51.210         7
51.220        20
51.230        20
51.240        13
51.250        20
51.260         7
51.270         7
51.280        13
51.290        13
51.300        20
51.310        27
51.320         7
51.330        40
51.340        27
51.350        13
51.360        13
51.370         7
51.380         7
51.390        13
51.400        20
51.410        20
51.420        20
51.430        20
51.440         7
51.450         7
51.460        20
51.470        27
51.480         7
51.490        13
51.500        13
51.510         7
51.520        20
51.530        13
51.540        27
51.550        27
51.560        47
51.570        13
51.580        20
51.590         7
51.600        13
51.610        47
51.620        13
51.630        13
51.640        20
51.650        33
51.660        20
51.670        13
51.680        33
51.690        33
51.700        13
51.710        20
51.720        13
51.730        20
51.740        20
51.750        20
51.760        33
51.770        13
51.780        33
51.790        20
51.800        13
51.810        20
51.820         7
51.830        20
51.840        13
51.850        20
51.860         7
51.870        27
51.880        20
51.890        13
51.900        33
51.910        20
51.920        13
51.930         0
51.940        27
51.950         7
51.960        27
51.970        20
51.980         0
51.990        20
52.000        13
52.010         7
52.020         7
52.030        33
52.040        27
52.050         7
52.060        13
52.070        20
52.080        13
52.090        40
52.100        20
52.110         7
52.120        13
52.130        27
52.140         7
52.150        33
52.160        47
52.170         0
52.180         0
52.190        20
52.200        13
52.210        13
52.220         0
52.230        20
52.240        20
52.250        20
52.260        13
52.270        60
52.280        13
52.290        40
52.300        20
52.310        33
52.320        33
52.330        20
52.340        13
52.350        27
52.360         7
52.370         7
52.380         7
52.390        20
52.400        13
52.410         7
52.420        13
52.430        27
52.440        13
52.450         0
52.460        40
52.470        33
52.480         0
52.490        27
52.500         0
52.510         0
52.520        20
52.530        40
52.540         7
52.550         7
52.560         7
52.570        27
52.580        60
52.590        33
52.600        13
52.610        20
52.620         0
52.630         7
52.640         7
52.650         7
52.660        13
52.670        13
52.680         7
52.690        20
52.700        20
52.710        20
52.720        33
52.730         0
52.740        13
52.750         7
52.760        20
52.770        27
52.780        13
52.790         7
52.800        40
52.810         0
52.820        13
52.830        20
52.840        27
52.850        13
52.860        20
52.870        27
52.880         0
52.890        20
52.900        20
52.910        33
52.920        13
52.930        13
52.940         0
52.950        27
52.960        40
52.970        27
52.980        20
52.990        27
53.000         7
53.010         7
53.020         7
53.030        27
53.040        20
53.050        20
53.060        13
53.070        27
53.080        20
53.090        27
53.100        20
53.110        13
53.120        33
53.130        13
53.140        27
53.150        13
53.160        40
53.170         7
53.180        20
53.190        33
53.200        27
53.210        20
53.220         7
53.230         7
53.240         7
53.250         7
53.260        27
53.270        40
53.280        20
53.290        20
53.300         7
53.310         7
53.320        20
53.330        13
53.340        40
53.350        73
53.360        13
53.370        13
53.380        33
53.390        13
53.400         7
53.410        13
53.420        20
53.430        13
53.440        20
53.450         0
53.460        33
53.470        20
53.480         0
53.490        13
53.500        13
53.510        27
53.520         7
53.530        13
53.540        20
53.550        27
53.560        13
53.570        13
53.580        40
53.590         7
53.600        13
53.610        20
53.620         7
53.630         7
53.640        27
53.650        20
53.660        13
53.670         7
53.680        13
53.690         0
53.700        27
53.710        13
53.720        20
53.730        13
53.740        27
53.750        27
53.760        13
53.770        20
53.780         0
53.790        60
53.800        13
53.810        40
53.820        27
53.830        27
53.840        13
53.850        20
53.860        47
53.870        33
53.880         7
53.890        27
53.900        13
53.910        13
53.920        13
53.930         7
53.940         7
53.950        20
53.960         7
53.970        20
53.980         7
53.990        27
54.000         7
54.010         7
54.020        20
54.030        33
54.040         0
54.050        27
54.060        13
54.070        53
54.080        20
54.090         7
54.100        20
54.110        33
54.120         0
54.130        20
54.140        27
54.150        27
54.160        20
54.170        33
54.180        33
54.190        13
54.200        33
54.210        27
54.220        13
54.230         0
54.240        13
54.250        33
54.260         7
54.270        13
54.280        27
54.290         7
54.300        20
54.310        13
54.320         7
54.330        13
54.340        20
54.350         7
54.360        13
54.370        13
54.380         7
54.390        20
54.400        20
54.410        27
54.420        20
54.430        13
54.440        27
54.450        13
54.460        13
54.470        20
54.480         7
54.490         7
54.500         7
54.510         0
54.520        27
54.530        27
54.540         7
54.550        20
54.560        20
54.570         7
54.580         7
54.590         0
54.600        27
54.610        33
54.620         7
54.630        13
54.640         7
54.650         7
54.660        27
54.670        13
54.680        20
54.690        20
54.700        27
54.710        27
54.720        27
54.730        33
54.740        40
54.750        33
54.760        27
54.770        47
54.780         0
54.790         0
54.800        33
54.810        27
54.820        20
54.830        33
54.840        20
54.850        20
54.860        13
54.870        40
54.880        13
54.890        47
54.900        33
54.910        27
54.920        27
54.930        40
54.940        33
54.950        47
54.960        60
54.970        47
54.980        60
54.990        73
55.000        67
55.010        67
55.020        53
55.030        67
55.040       100
55.050       113
55.060        73
55.070        87
55.080        80
55.090        93
55.100        93
55.110        47
55.120        53
55.130        47
55.140        80
55.150        67
55.160        47
55.170        60
55.180        60
55.190        60
55.200        73
55.210        73
55.220        40
55.230        40
55.240        47
55.250        67
55.260        53
55.270        40
55.280        53
55.290        60
55.300        47
55.310        40
55.320        40
55.330        13
55.340        40
55.350        13
55.360        40
55.370        27
55.380        20
55.390        13
55.400        13
55.410        33
55.420        27
55.430        13
55.440        60
55.450        20
55.460         7
55.470        27
55.480        27
55.490        20
55.500         0
55.510        27
55.520        40
55.530        20
55.540        20
55.550        20
55.560        27
55.570        33
55.580        13
55.590        13
55.600         0
55.610         7
55.620         7
55.630        40
55.640        33
55.650        20
55.660        20
55.670        20
55.680         7
55.690        33
55.700        20
55.710        13
55.720        47
55.730        27
55.740         7
55.750        33
55.760        20
55.770        20
55.780        20
55.790        20
55.800        20
55.810         7
55.820         0
55.830        33
55.840         0
55.850         7
55.860        27
55.870        33
55.880        20
55.890        13
55.900        40
55.910        33
55.920        13
55.930        20
55.940        33
55.950        47
55.960        40
55.970        47
55.980        20
55.990        27
56.000        13
56.010        27
56.020        13
56.030        20
56.040        27
56.050        13
56.060        40
56.070        20
56.080        20
56.090        20
56.100        27
56.110        20
56.120        27
56.130        13
56.140        40
56.150        20
56.160        47
56.170        20
56.180        20
56.190        27
56.200        13
56.210        33
56.220        27
56.230        20
56.240        27
56.250        20
56.260        33
56.270         0
56.280        13
56.290        27
56.300        13
56.310         7
56.320        20
56.330        20
56.340        13
56.350        20
56.360        27
56.370        13
56.380         7
56.390         7
56.400        20
56.410         7
56.420        13
56.430        27
56.440        27
56.450        20
56.460         7
56.470         7
56.480         7
56.490         7
56.500        13
56.510        13
56.520        27
56.530         7
56.540        33
56.550        20
56.560         7
56.570         7
56.580         7
56.590        33
56.600        33
56.610        13
56.620         0
56.630        13
56.640        33
56.650        13
56.660        27
56.670        40
56.680         7
56.690         7
56.700        33
56.710        27
56.720        20
56.730        13
56.740         7
56.750        13
56.760         7
56.770        20
56.780         7
56.790         7
56.800         0
56.810        13
56.820         7
56.830         0
56.840        27
56.850        20
56.860         7
56.870        13
56.880        33
56.890        13
56.900        20
56.910         7
56.920        13
56.930         7
56.940        33
56.950        13
56.960        20
56.970        13
56.980         7
56.990        20
57.000        13
57.010        40
57.020        20
57.030        33
57.040        13
57.050         7
57.060        20
57.070        40
57.080         0
57.090        13
57.100         7
57.110        33
57.120        13
57.130        53
57.140        33
57.150        13
57.160        20
57.170        27
57.180         0
57.190        47
57.200        33
57.210        13
57.220        13
57.230         0
57.240        33
57.250        13
57.260         0
57.270        33
57.280        27
57.290        27
57.300        13
57.310        60
57.320         7
57.330        20
57.340        20
57.350        33
57.360        40
57.370        13
57.380        13
57.390        40
57.400        13
57.410        33
57.420        40
57.430        33
57.440        20
57.450        47
57.460        33
57.470        67
57.480       133
57.490       107
57.500       180
57.510       207
57.520       140
57.530       140
57.540       140
57.550       113
57.560       113
57.570       100
57.580        87
57.590        67
57.600       100
57.610        40
57.620        33
57.630        60
57.640        93
57.650       120
57.660       107
57.670        87
57.680       107
57.690       100
57.700        60
57.710       100
57.720       113
57.730        53
57.740        73
57.750        80
57.760        33
57.770        27
57.780        53
57.790        27
57.800        27
57.810        13
57.820         7
57.830        27
57.840        20
57.850        13
57.860        20
57.870        40
57.880        13
57.890        13
57.900        13
57.910        40
57.920         7
57.930         7
57.940        13
57.950        13
57.960         0
57.970        20
57.980        27
57.990        13
58.000         7
58.010        27
58.020        20
58.030         7
58.040        13
58.050         7
58.060         7
58.070        27
58.080        13
58.090        13
58.100        13
58.110        33
58.120         0
58.130        47
58.140        27
58.150        13
58.160         7
58.170        27
58.180        13
58.190        20
58.200        20
58.210        27
58.220        13
58.230         7
58.240         0
58.250        13
58.260         7
58.270        13
58.280        20
58.290        33
58.300        13
58.310         7
58.320        27
58.330         0
58.340        13
58.350        20
58.360        13
58.370        20
58.380        20
58.390        33
58.400        33
58.410        27
58.420        33
58.430        13
58.440        33
58.450        13
58.460         7
58.470         0
58.480        13
58.490         0
58.500         7
58.510        20
58.520         7
58.530        20
58.540        33
58.550        13
58.560         7
58.570         7
58.580        27
58.590        13
58.600        13
58.610        40
58.620         7
58.630        27
58.640        13
58.650        13
58.660         7
58.670         0
58.680        13
58.690        13
58.700        33
58.710        27
58.720        20
58.730        47
58.740         7
58.750        20
58.760         7
58.770         7
58.780         7
58.790         7
58.800        13
58.810        13
58.820         7
58.830        20
58.840        33
58.850        20
58.860        13
58.870        13
58.880        27
58.890        20
58.900        13
58.910         0
58.920        60
58.930        27
58.940         7
58.950         7
58.960         0
58.970         7
58.980        13
58.990        33
59.000        20
59.010        20
59.020        33
59.030        27
59.040         7
59.050         7
59.060        20
59.070        20
59.080         7
59.090         7
59.100         7
59.110         7
59.120        20
59.130         0
59.140        20
59.150        20
59.160        20
59.170        53
59.180        20
59.190        20
59.200        27
59.210        13
59.220        20
59.230        27
59.240        27
59.250         7
59.260        27
59.270        13
59.280        13
59.290        47
59.300        13
59.310        20
59.320        20
59.330        27
59.340        20
59.350         7
59.360        20
59.370        27
59.380        13
59.390        13
59.400         7
59.410         0
59.420         0
59.430        20
59.440        33
59.450        13
59.460         0
59.470         7
59.480        20
59.490         7
59.500        13
59.510        47
59.520        33
59.530        33
59.540        33
59.550         0
59.560        27
59.570        27
59.580         7
59.590         0
59.600        20
59.610         7
59.620        13
59.630        13
59.640        20
59.650        20
59.660         7
59.670         7
59.680        27
59.690        13
59.700         7
59.710        20
59.720         7
59.730        13
59.740        13
59.750        33
59.760        20
59.770        20
59.780        13
59.790         7
59.800        13
59.810        27
59.820        20
59.830        20
59.840         7
59.850         7
59.860        13
59.870         0
59.880        20
59.890        33
59.900        13
59.910        20
59.920        27
59.930        13
59.940        33
59.950        20
59.960         7
59.970        27
59.980        33
59.990         0
60.000        13
