20.000        47
20.010        47
20.020        40
20.030        53
20.040        40
20.050        40
20.060        40
20.070        73
20.080        60
20.090        27
20.100        60
20.110        20
20.120        33
20.130        40
20.140        47
20.150        33
20.160        60
20.170        40
20.180        47
20.190        53
20.200        40
20.210        67
20.220        20
20.230        47
20.240        47
20.250        33
20.260        60
20.270        53
20.280        13
20.290        27
20.300        27
20.310        40
20.320        27
20.330        93
20.340        67
20.350        40
20.360        20
20.370        13
20.380        27
20.390        53
20.400        33
20.410        33
20.420        47
20.430        67
20.440        53
20.450        40
20.460        53
20.470        40
20.480        60
20.490        40
20.500        40
20.510        33
20.520        40
20.530        53
20.540        33
20.550        47
20.560        33
20.570        33
20.580        40
20.590        33
20.600        27
20.610        67
20.620        53
20.630        27
20.640        53
20.650        80
20.660        47
20.670        47
20.680        47
20.690        40
20.700        40
20.710        60
20.720        47
20.730        47
20.740        40
20.750        33
20.760        47
20.770        33
20.780        53
20.790        80
20.800        60
20.810        80
20.820        33
20.830        40
20.840        27
20.850        40
20.860        53
20.870        60
20.880        40
20.890        20
20.900        33
20.910        40
20.920        40
20.930        73
20.940        67
20.950        33
20.960        67
20.970        33
20.980         7
20.990        67
21.000        27
21.010        47
21.020        33
21.030        33
21.040        53
21.050        33
21.060        40
21.070        53
21.080        53
21.090        33
21.100        53
21.110        33
21.120         7
21.130        47
21.140        40
21.150        60
21.160        60
21.170        40
21.180        67
21.190        33
21.200        73
21.210        40
21.220        47
21.230        27
21.240        40
21.250        53
21.260        47
21.270        27
21.280        53
21.290        40
21.300        53
21.310        67
21.320        40
21.330        53
21.340        40
21.350        93
21.360        87
21.370        53
21.380        33
21.390        40
21.400        60
21.410        53
21.420        27
21.430        47
21.440        80
21.450        47
21.460        40
21.470        47
21.480        47
21.490        13
21.500        60
21.510        27
21.520        80
21.530        40
21.540        47
21.550        40
21.560        73
21.570        33
21.580        33
21.590        33
21.600        73
21.610        53
21.620         7
21.630        40
21.640        47
21.650        20
21.660        53
21.670        40
21.680        80
21.690        47
21.700        33
21.710        47
21.720        47
21.730        20
21.740        40
21.750        27
21.760        53
21.770        20
21.780        40
21.790        67
21.800        40
21.810        20
21.820        27
21.830        33
21.840        60
21.850        33
21.860        20
21.870        53
21.880        40
21.890        40
21.900        40
21.910        60
21.920        53
21.930        53
21.940        33
21.950        27
21.960        40
21.970        13
21.980        53
21.990        33
22.000        47
22.010        33
22.020        33
22.030        33
22.040        67
22.050        53
22.060        60
22.070        67
22.080        73
22.090        67
22.100        33
22.110        53
22.120        67
22.130        60
22.140        53
22.150        40
22.160        40
22.170        73
22.180        67
22.190        67
22.200        13
22.210        27
22.220        73
22.230        87
22.240        27
22.250        60
22.260        40
22.270        47
22.280        47
22.290        53
22.300        47
22.310        27
22.320        27
22.330        47
22.340        53
22.350        47
22.360        53
22.370        27
22.380        27
22.390        60
22.400        53
22.410        60
22.420        20
22.430        60
22.440        40
22.450        40
22.460        60
22.470        27
22.480        80
22.490        33
22.500        47
22.510        33
22.520         7
22.530        47
22.540        33
22.550        20
22.560        47
22.570        27
22.580        53
22.590        73
22.600        33
22.610        20
22.620        33
22.630        33
22.640        27
22.650        27
22.660        13
22.670        27
22.680        53
22.690        53
22.700        27
22.710        53
22.720        20
22.730        47
22.740        40
22.750        20
22.760        60
22.770        47
22.780        33
22.790        60
22.800        27
22.810        33
22.820        47
22.830        40
22.840        33
22.850        47
22.860        27
22.870        27
22.880        27
22.890        60
22.900        27
22.910        47
22.920        47
22.930         7
22.940        27
22.950        73
22.960        20
22.970        33
22.980        13
22.990        33
23.000        33
23.010        40
23.020        33
23.030        33
23.040        27
23.050        20
23.060        27
23.070        67
23.080        27
23.090        27
23.100        13
23.110        27
23.120        47
23.130        47
23.140        20
23.150        47
23.160        40
23.170        20
23.180        33
23.190        13
23.200        13
23.210        33
23.220        47
23.230        20
23.240        47
23.250        40
23.260        60
23.270        27
23.280         7
23.290        20
23.300        47
23.310        40
23.320        53
23.330        33
23.340        27
23.350        20
23.360        40
23.370        33
23.380        27
23.390        40
23.400        13
23.410        27
23.420        33
23.430        67
23.440        47
23.450        87
23.460        27
23.470        53
23.480        33
23.490        20
23.500        27
23.510        33
23.520        53
23.530        53
23.540        60
23.550        33
23.560        40
23.570        33
23.580        40
23.590        20
23.600        13
23.610        33
23.620        20
23.630        40
23.640        53
23.650        40
23.660        40
23.670        13
23.680        40
23.690        20
23.700        40
23.710        53
23.720        47
23.730        33
23.740        33
23.750        67
23.760        67
23.770        27
23.780        47
23.790        53
23.800        47
23.810        33
23.820        20
23.830        27
23.840         0
23.850        20
23.860        40
23.870        13
23.880        53
23.890        20
23.900        53
23.910        47
23.920        33
23.930        40
23.940        33
23.950        67
23.960        27
23.970        27
23.980        53
23.990        40
24.000        40
24.010        47
24.020        93
24.030        60
24.040        60
24.050        47
24.060        40
24.070        47
24.080        60
24.090        40
24.100        40
24.110        67
24.120        47
24.130        60
24.140        73
24.150        60
24.160        27
24.170        67
24.180        53
24.190        47
24.200        27
24.210        53
24.220        60
24.230        60
24.240        60
24.250        33
24.260        27
24.270        60
24.280        47
24.290        13
24.300        27
24.310        33
24.320        20
24.330        40
24.340        47
24.350        53
24.360        33
24.370        27
24.380        47
24.390        67
24.400        27
24.410        47
24.420        47
24.430        20
24.440        33
24.450         7
24.460        40
24.470        73
24.480        27
24.490        33
24.500        40
24.510        20
24.520        27
24.530        73
24.540        33
24.550        40
24.560        73
24.570        67
24.580        73
24.590        13
24.600        27
24.610        20
24.620        40
24.630        13
24.640        47
24.650        33
24.660        20
24.670        20
24.680        20
24.690        47
24.700        27
24.710        47
24.720        40
24.730        60
24.740        33
24.750        47
24.760        33
24.770         7
24.780        87
24.790        47
24.800        60
24.810        20
24.820        40
24.830        40
24.840        73
24.850        60
24.860        47
24.870        33
24.880        87
24.890        60
24.900        33
24.910        40
24.920        60
24.930        73
24.940        73
24.950        53
24.960       107
24.970        87
24.980        73
24.990       100
25.000        67
25.010        53
25.020       100
25.030       153
25.040       127
25.050       160
25.060       173
25.070       187
25.080       153
25.090       207
25.100       253
25.110       280
25.120       240
25.130       273
25.140       240
25.150       247
25.160       327
25.170       393
25.180       213
25.190       280
25.200       280
25.210       233
25.220       267
25.230       207
25.240       153
25.250       140
25.260       127
25.270       113
25.280       160
25.290       127
25.300        53
25.310        80
25.320       107
25.330       107
25.340        53
25.350        40
25.360        33
25.370        40
25.380        60
25.390        47
25.400        20
25.410        27
25.420        53
25.430        40
25.440        13
25.450        13
25.460        47
25.470        20
25.480         7
25.490        33
25.500        20
25.510        33
25.520        27
25.530        60
25.540        20
25.550        20
25.560        20
25.570        20
25.580        40
25.590        33
25.600        53
25.610        20
25.620        13
25.630        40
25.640        67
25.650        47
25.660        27
25.670        20
25.680        53
25.690        40
25.700        27
25.710        60
25.720        47
25.730        40
25.740        33
25.750        47
25.760        33
25.770        20
25.780        27
25.790        27
25.800        53
25.810        33
25.820        47
25.830        33
25.840        20
25.850        40
25.860        40
25.870        27
25.880        40
25.890        20
25.900        20
25.910        13
25.920        40
25.930        53
25.940        27
25.950        20
25.960        47
25.970        47
25.980         7
25.990        33
26.000        27
26.010        33
26.020        40
26.030        47
26.040        27
26.050        40
26.060        73
26.070        27
26.080        20
26.090        33
26.100        53
26.110        27
26.120        47
26.130        27
26.140        27
26.150        33
26.160        13
26.170        33
26.180        27
26.190        53
26.200        33
26.210        40
26.220        47
26.230        47
26.240        20
26.250        20
26.260        27
26.270        33
26.280        47
26.290        27
26.300        60
26.310       120
26.320        60
26.330        27
26.340        20
26.350        33
26.360        27
26.370        27
26.380        33
26.390        20
26.400         0
26.410        47
26.420        20
26.430        33
26.440        27
26.450        20
26.460        80
26.470        13
26.480        33
26.490        20
26.500        13
26.510        40
26.520        27
26.530        53
26.540         7
26.550        20
26.560        33
26.570        20
26.580         7
26.590        27
26.600        27
26.610        33
26.620        47
26.630        47
26.640        33
26.650        47
26.660        20
26.670        20
26.680        27
26.690        40
26.700        47
26.710        27
26.720        20
26.730        33
26.740        40
26.750        47
26.760        40
26.770        47
26.780        27
26.790        20
26.800        33
26.810        33
26.820        53
26.830        60
26.840        20
26.850         7
26.860        33
26.870        47
26.880        13
26.890        40
26.900        33
26.910        40
26.920        47
26.930        47
26.940         0
26.950        40
26.960         7
26.970        33
26.980        33
26.990        40
27.000        20
27.010        40
27.020        67
27.030        13
27.040        20
27.050        33
27.060        20
27.070        60
27.080        67
27.090        33
27.100        33
27.110        53
27.120        40
27.130        47
27.140        53
27.150        33
27.160        20
27.170        20
27.180        27
27.190        20
27.200        20
27.210        27
27.220         7
27.230        20
27.240        33
27.250        13
27.260        33
27.270        33
27.280        27
27.290         7
27.300        47
27.310        20
27.320        20
27.330        20
27.340        73
27.350        40
27.360        47
27.370        73
27.380        47
27.390        33
27.400        27
27.410        13
27.420        20
27.430         7
27.440        53
27.450        27
27.460        47
27.470        47
27.480        40
27.490        27
27.500         7
27.510        33
27.520        47
27.530        33
27.540        33
27.550        27
27.560        20
27.570        40
27.580        53
27.590        27
27.600        27
27.610        33
27.620        80
27.630        33
27.640        40
27.650        47
27.660        27
27.670        20
27.680        20
27.690        53
27.700        47
27.710        13
27.720        40
27.730        60
27.740        67
27.750        40
27.760        33
27.770        67
27.780        27
27.790        87
27.800        47
27.810        80
27.820        33
27.830        53
27.840        40
27.850        80
27.860        67
27.870        87
27.880        87
27.890        67
27.900       120
27.910        53
27.920        53
27.930       107
27.940       107
27.950        60
27.960        80
27.970        93
27.980        93
27.990        93
28.000        93
28.010       100
28.020        87
28.030        93
28.040        67
28.050        80
28.060        93
28.070        93
28.080       160
28.090        87
28.100        80
28.110       107
28.120       107
28.130        80
28.140        67
28.150       100
28.160       107
28.170        93
28.180        73
28.190       140
28.200        80
28.210       120
28.220        87
28.230       133
28.240       127
28.250        93
28.260        47
28.270       147
28.280        80
28.290       113
28.300        73
28.310        53
28.320        73
28.330       107
28.340        47
28.350        67
28.360        80
28.370        53
28.380        20
28.390        60
28.400        53
28.410        67
28.420        40
28.430        47
28.440        47
28.450         7
28.460        60
28.470        53
28.480        67
28.490        27
28.500        20
28.510        27
28.520        40
28.530        40
28.540        27
28.550         7
28.560        33
28.570        33
28.580        40
28.590        53
28.600        33
28.610        47
28.620        53
28.630        40
28.640        33
28.650        13
28.660        33
28.670        33
28.680        27
28.690        53
28.700        60
28.710        47
28.720        47
28.730        20
28.740        33
28.750        40
28.760        27
28.770         7
28.780        33
28.790        20
28.800        20
28.810        53
28.820        20
28.830        27
28.840        13
28.850        47
28.860        67
28.870        27
28.880        47
28.890        20
28.900        40
28.910        27
28.920        80
28.930        27
28.940        40
28.950        20
28.960        20
28.970        13
28.980        47
28.990        33
29.000        47
29.010        40
29.020        33
29.030        20
29.040        27
29.050        27
29.060        33
29.070        20
29.080        33
29.090        13
29.100        33
29.110        47
29.120        40
29.130        47
29.140        20
29.150        33
29.160        40
29.170        87
29.180        13
29.190        33
29.200        40
29.210        47
29.220        40
29.230        20
29.240        33
29.250        53
29.260        20
29.270        33
29.280        40
29.290        27
29.300        47
29.310        47
29.320        20
29.330        27
29.340        33
29.350        40
29.360        13
29.370        20
29.380        13
29.390        40
29.400         7
29.410        13
29.420        47
29.430        33
29.440        27
29.450         7
29.460        80
29.470         7
29.480         7
29.490        20
29.500        27
29.510        20
29.520        27
29.530        27
29.540        27
29.550        60
29.560        20
29.570        40
29.580        60
29.590         7
29.600        27
29.610        20
29.620        40
29.630        47
29.640        40
29.650        47
29.660        27
29.670        27
29.680        13
29.690        20
29.700        33
29.710        33
29.720        13
29.730        73
29.740        40
29.750        47
29.760        13
29.770        20
29.780        33
29.790        47
29.800        40
29.810        20
29.820        20
29.830        33
29.840        47
29.850        13
29.860        40
29.870        33
29.880        13
29.890        20
29.900        60
29.910        33
29.920        47
29.930        47
29.940        27
29.950        40
29.960        20
29.970        13
29.980        33
29.990        67
30.000        20
30.010        33
30.020        33
30.030        53
30.040         7
30.050        53
30.060        13
30.070        27
30.080        20
30.090        47
30.100        60
30.110        47
30.120         7
30.130        20
30.140        27
30.150        40
30.160        33
30.170        40
30.180        47
30.190        40
30.200        27
30.210        33
30.220        27
30.230        47
30.240        27
30.250        33
30.260        13
30.270        47
30.280        67
30.290        20
30.300         7
30.310        33
30.320        13
30.330        47
30.340        53
30.350        27
30.360        27
30.370        27
30.380        47
30.390        33
30.400        47
30.410        33
30.420        33
30.430        47
30.440        47
30.450        27
30.460        20
30.470        40
30.480        20
30.490        60
30.500         7
30.510        20
30.520         7
30.530        60
30.540        40
30.550        67
30.560        33
30.570        67
30.580        47
30.590        27
30.600        73
30.610        60
30.620        53
30.630        40
30.640        53
30.650        60
30.660        47
30.670        60
30.680        47
30.690        33
30.700        47
30.710        27
30.720        60
30.730        27
30.740        40
30.750        33
30.760        47
30.770        27
30.780        47
30.790        33
30.800        33
30.810        47
30.820        20
30.830        40
30.840        40
30.850        20
30.860        27
30.870        13
30.880        13
30.890        60
30.900        60
30.910        27
30.920        27
30.930        33
30.940        53
30.950        53
30.960        47
30.970        27
30.980        47
30.990        33
31.000        40
31.010        53
31.020        13
31.030        60
31.040        53
31.050        33
31.060        53
31.070        33
31.080        67
31.090        27
31.100        47
31.110        20
31.120        67
31.130        27
31.140        47
31.150        67
31.160        47
31.170        27
31.180        33
31.190        20
31.200        47
31.210        40
31.220        47
31.230        33
31.240        40
31.250        33
31.260        33
31.270        67
31.280        60
31.290        33
31.300        20
31.310        47
31.320        53
31.330        60
31.340        40
31.350        33
31.360        40
31.370        73
31.380        73
31.390        47
31.400        33
31.410        27
31.420        40
31.430        27
31.440        33
31.450        27
31.460        87
31.470        67
31.480        33
31.490        53
31.500        53
31.510        73
31.520        33
31.530        40
31.540        47
31.550        53
31.560        80
31.570        53
31.580        87
31.590        87
31.600        87
31.610        73
31.620        67
31.630       100
31.640        73
31.650       100
31.660        67
31.670        60
31.680        67
31.690        93
31.700        80
31.710        67
31.720        53
31.730        93
31.740        80
31.750        60
31.760        40
31.770       133
31.780       107
31.790       127
31.800       100
31.810       107
31.820        73
31.830       107
31.840        53
31.850        87
31.860        93
31.870       127
31.880        80
31.890        80
31.900        53
31.910        73
31.920       107
31.930        53
31.940       100
31.950        67
31.960       107
31.970        33
31.980        60
31.990        53
32.000        33
32.010         7
32.020        93
32.030        80
32.040        47
32.050        27
32.060        67
32.070        27
32.080        60
32.090        27
32.100         7
32.110        40
32.120        33
32.130        13
32.140        27
32.150        33
32.160        33
32.170        20
32.180        33
32.190        47
32.200        20
32.210        13
32.220        13
32.230        20
32.240        33
32.250        47
32.260        33
32.270        20
32.280        40
32.290        27
32.300         7
32.310         7
32.320        27
32.330        27
32.340        20
32.350        20
32.360        33
32.370        47
32.380         7
32.390        33
32.400        33
32.410        40
32.420        33
32.430        20
32.440        33
32.450        33
32.460        20
32.470        27
32.480        40
32.490         0
32.500        20
32.510        20
32.520        27
32.530        33
32.540        13
32.550        13
32.560        27
32.570        20
32.580        60
32.590        33
32.600        13
32.610        20
32.620         7
32.630        33
32.640        27
32.650        47
32.660        40
32.670        40
32.680        13
32.690        27
32.700         7
32.710        33
32.720         7
32.730        40
32.740        13
32.750        47
32.760        40
32.770        53
32.780        27
32.790        53
32.800        13
32.810        27
32.820        27
32.830        40
32.840        20
32.850        27
32.860        40
32.870         7
32.880        27
32.890        40
32.900        47
32.910        20
32.920        27
32.930        47
32.940        40
32.950        20
32.960        27
32.970        27
32.980        20
32.990        40
33.000        27
33.010        33
33.020        40
33.030        33
33.040        27
33.050        13
33.060        27
33.070        27
33.080        20
33.090        40
33.100        53
33.110        13
33.120        13
33.130        27
33.140        27
33.150        13
33.160        33
33.170        40
33.180        27
33.190        33
33.200        40
33.210        40
33.220        53
33.230        40
33.240        33
33.250        13
33.260        20
33.270        40
33.280        13
33.290        13
33.300        53
33.310        13
33.320        40
33.330        27
33.340        27
33.350        40
33.360        20
33.370        40
33.380        40
33.390         7
33.400        13
33.410        13
33.420        27
33.430        33
33.440        13
33.450        47
33.460        33
33.470        20
33.480        33
33.490        33
33.500        33
33.510        40
33.520        20
33.530        33
33.540        27
33.550        27
33.560        47
33.570        47
33.580        27
33.590        13
33.600        27
33.610        33
33.620        80
33.630        60
33.640        53
33.650        27
33.660         7
33.670        40
33.680        20
33.690        13
33.700        20
33.710        40
33.720        40
33.730        47
33.740        53
33.750        13
33.760        13
33.770        20
33.780        40
33.790        40
33.800        53
33.810        33
33.820        40
33.830        33
33.840        13
33.850        20
33.860        20
33.870        13
33.880        40
33.890        13
33.900        33
33.910        20
33.920        27
33.930        33
33.940        40
33.950        20
33.960        20
33.970        40
33.980        33
33.990        53
34.000        13
34.010        47
34.020        33
34.030        47
34.040        13
34.050        33
34.060        40
34.070         7
34.080         7
34.090        13
34.100        40
34.110         0
34.120        33
34.130         7
34.140        27
34.150        20
34.160        33
34.170        20
34.180        13
34.190        20
34.200        27
34.210        40
34.220         7
34.230        47
34.240         7
34.250        27
34.260        40
34.270        27
34.280        20
34.290        40
34.300        47
34.310        60
34.320        40
34.330        33
34.340        40
34.350        13
34.360        47
34.370        33
34.380        20
34.390        20
34.400        27
34.410        20
34.420        40
34.430        33
34.440        13
34.450         7
34.460        40
34.470        20
34.480        27
34.490        40
34.500        27
34.510        27
34.520        47
34.530        40
34.540        40
34.550        33
34.560         7
34.570        27
34.580         7
34.590        20
34.600        20
34.610        20
34.620         0
34.630        27
34.640        13
34.650        27
34.660        33
34.670        20
34.680        40
34.690         7
34.700        13
34.710         7
34.720         0
34.730        20
34.740        13
34.750        27
34.760        20
34.770        20
34.780        20
34.790        27
34.800        33
34.810        47
34.820        20
34.830        20
34.840        20
34.850        33
34.860        40
34.870        27
34.880         0
34.890        40
34.900        27
34.910        13
34.920        20
34.930        33
34.940        20
34.950         7
34.960        13
34.970        20
34.980        27
34.990        53
35.000        27
35.010        33
35.020        27
35.030        20
35.040        27
35.050        33
35.060        27
35.070        27
35.080        20
35.090        20
35.100        27
35.110        47
35.120        33
35.130        27
35.140        40
35.150        40
35.160        60
35.170       100
35.180        47
35.190        33
35.200        40
35.210        47
35.220        33
35.230        27
35.240        33
35.250        13
35.260        40
35.270        60
35.280        33
35.290        20
35.300        53
35.310        40
35.320        27
35.330        33
35.340        33
35.350        33
35.360        40
35.370         7
35.380        33
35.390        47
35.400        40
35.410        53
35.420         7
35.430        20
35.440        33
35.450        47
35.460        33
35.470        33
35.480        40
35.490        40
35.500        33
35.510        20
35.520        27
35.530        27
35.540        33
35.550        47
35.560        13
35.570        13
35.580        40
35.590         7
35.600        33
35.610        27
35.620        33
35.630        33
35.640        20
35.650        60
35.660        33
35.670        53
35.680        47
35.690         7
35.700        40
35.710        27
35.720        60
35.730        33
35.740        20
35.750        33
35.760         7
35.770        40
35.780        20
35.790        47
35.800        40
35.810        13
35.820        27
35.830        40
35.840        20
35.850        53
35.860        20
35.870        87
35.880        20
35.890        33
35.900        53
35.910        27
35.920        27
35.930        27
35.940        33
35.950        47
35.960        40
35.970        20
35.980        40
35.990        13
36.000        33
36.010        33
36.020        47
36.030        13
36.040        60
36.050        33
36.060        40
36.070        47
36.080        40
36.090        33
36.100        13
36.110        53
36.120        40
36.130        20
36.140        40
36.150        33
36.160        40
36.170        27
36.180        13
36.190        40
36.200        47
36.210        47
36.220        33
36.230        40
36.240        87
36.250        27
36.260        27
36.270        33
36.280        27
36.290        20
36.300        33
36.310        13
36.320        60
36.330        13
36.340        47
36.350        60
36.360        40
36.370        20
36.380        13
36.390        33
36.400        47
36.410        47
36.420        47
36.430        53
36.440        47
36.450        47
36.460        40
36.470        67
36.480        93
36.490        87
36.500        27
36.510        27
36.520        60
36.530        27
36.540        67
36.550        20
36.560        33
36.570        27
36.580        27
36.590        67
36.600        27
36.610        40
36.620        27
36.630        27
36.640        20
36.650        27
36.660        47
36.670        27
36.680         7
36.690        20
36.700        27
36.710        40
36.720         7
36.730        33
36.740        40
36.750        13
36.760        27
36.770        40
36.780        27
36.790        33
36.800        20
36.810        73
36.820        60
36.830         7
36.840        20
36.850        53
36.860        53
36.870        13
36.880        13
36.890        20
36.900        33
36.910        33
36.920        27
36.930        53
36.940        27
36.950        40
36.960        33
36.970        33
36.980         0
36.990        33
37.000        27
37.010        40
37.020        13
37.030        33
37.040        20
37.050        53
37.060        20
37.070        27
37.080        40
37.090        13
37.100        33
37.110        27
37.120        33
37.130        27
37.140        40
37.150        33
37.160        13
37.170        27
37.180        13
37.190        13
37.200        27
37.210        27
37.220        40
37.230        20
37.240        27
37.250        13
37.260        20
37.270        20
37.280        47
37.290        40
37.300        33
37.310        33
37.320        13
37.330        40
37.340        27
37.350        27
37.360        47
37.370        20
37.380        27
37.390        13
37.400        13
37.410        20
37.420        20
37.430        33
37.440        40
37.450        13
37.460        20
37.470        27
37.480        53
37.490        73
37.500        33
37.510         7
37.520        33
37.530        27
37.540        47
37.550        47
37.560        33
37.570        40
37.580        47
37.590        47
37.600        20
37.610        60
37.620        60
37.630        73
37.640        33
37.650        40
37.660        47
37.670        20
37.680        40
37.690        47
37.700        33
37.710        40
37.720        40
37.730        27
37.740         7
37.750        13
37.760        33
37.770        27
37.780        33
37.790        27
37.800        20
37.810        27
37.820        53
37.830         7
37.840        27
37.850        27
37.860        60
37.870        13
37.880        27
37.890        27
37.900        13
37.910        40
37.920        40
37.930        40
37.940        27
37.950        20
37.960        40
37.970        27
37.980        27
37.990        40
38.000        33
38.010        67
38.020        40
38.030        27
38.040        33
38.050        20
38.060        27
38.070        20
38.080        20
38.090        27
38.100        13
38.110        13
38.120         7
38.130        33
38.140        20
38.150        13
38.160        53
38.170        13
38.180        40
38.190        27
38.200        40
38.210        13
38.220        40
38.230        20
38.240        27
38.250        20
38.260        40
38.270        27
38.280        13
38.290         7
38.300        20
38.310        27
38.320        53
38.330        33
38.340         7
38.350        20
38.360        40
38.370        13
38.380        20
38.390        33
38.400         7
38.410        47
38.420        53
38.430        40
38.440         7
38.450        13
38.460        60
38.470        27
38.480        40
38.490        27
38.500        27
38.510        20
38.520        33
38.530        67
38.540        27
38.550        20
38.560        20
38.570        13
38.580        27
38.590        60
38.600        47
38.610        27
38.620        47
38.630        53
38.640        40
38.650        33
38.660        33
38.670        53
38.680        20
38.690        47
38.700        13
38.710        33
38.720        27
38.730        47
38.740        40
38.750        13
38.760        20
38.770        27
38.780        13
38.790        20
38.800        20
38.810        20
38.820        47
38.830        40
38.840        13
38.850        13
38.860        27
38.870        27
38.880        27
38.890        27
38.900        20
38.910        20
38.920        20
38.930        40
38.940        27
38.950        27
38.960        27
38.970        20
38.980        27
38.990        40
39.000        20
39.010        20
39.020        27
39.030        20
39.040        40
39.050        27
39.060        27
39.070         7
39.080        20
39.090        13
39.100        20
39.110        33
39.120        67
39.130        40
39.140        47
39.150        53
39.160        33
39.170        33
39.180        53
39.190        40
39.200        33
39.210        40
39.220        20
39.230         7
39.240        53
39.250        27
39.260        20
39.270        13
39.280        27
39.290        20
39.300        40
39.310        20
39.320        33
39.330        60
39.340        27
39.350        33
39.360        20
39.370        20
39.380        33
39.390        67
39.400        33
39.410        20
39.420        13
39.430        40
39.440        60
39.450        40
39.460        20
39.470        20
39.480        40
39.490        40
39.500        47
39.510        47
39.520        60
39.530        40
39.540        33
39.550        53
39.560        20
39.570        33
39.580        20
39.590        60
39.600        60
39.610        40
39.620        53
39.630        53
39.640        33
39.650        47
39.660        47
39.670        47
39.680        53
39.690        73
39.700        27
39.710         7
39.720        27
39.730        20
39.740        53
39.750        40
39.760        27
39.770        47
39.780        40
39.790        73
39.800        40
39.810        53
39.820        13
39.830        13
39.840        60
39.850        20
39.860        40
39.870        40
39.880        33
39.890        33
39.900        40
39.910        60
39.920        60
39.930        47
39.940        33
39.950        13
39.960        80
39.970        47
39.980        73
39.990        53
40.000        27
40.010        27
40.020        60
40.030        20
40.040        40
40.050        40
40.060        47
40.070        47
40.080        33
40.090        47
40.100        27
40.110        47
40.120        33
40.130        47
40.140        47
40.150        40
40.160        33
40.170        33
40.180        40
40.190        27
40.200        20
40.210        47
40.220        60
40.230        33
40.240        80
40.250        60
40.260        60
40.270        40
40.280        27
40.290        40
40.300        80
40.310        47
40.320        40
40.330        27
40.340        47
40.350        73
40.360        13
40.370        33
40.380        33
40.390        60
40.400        27
40.410        27
40.420        13
40.430        60
40.440        27
40.450        27
40.460        27
40.470        27
40.480        33
40.490        33
40.500        40
40.510        27
40.520        47
40.530        53
40.540        27
40.550        20
40.560        40
40.570        47
40.580        40
40.590        33
40.600        60
40.610        40
40.620        27
40.630        27
40.640        73
40.650        47
40.660        67
40.670        13
40.680        53
40.690        20
40.700        60
40.710        27
40.720        27
40.730        27
40.740        40
40.750        60
40.760        53
40.770        27
40.780        40
40.790        53
40.800        47
40.810        33
40.820        40
40.830        33
40.840        73
40.850        47
40.860        33
40.870        47
40.880        20
40.890        20
40.900        20
40.910        27
40.920        33
40.930        20
40.940        27
40.950        33
40.960        27
40.970        33
40.980        20
40.990        33
41.000        13
41.010        13
41.020        33
41.030        40
41.040        27
41.050        13
41.060        27
41.070        53
41.080        27
41.090        27
41.100        13
41.110        27
41.120        33
41.130        27
41.140        60
41.150         7
41.160        20
41.170        33
41.180        33
41.190        13
41.200        67
41.210        33
41.220        20
41.230        47
41.240        40
41.250        47
41.260        47
41.270        40
41.280        40
41.290        40
41.300        60
41.310        47
41.320        47
41.330        33
41.340        53
41.350        60
41.360        87
41.370        40
41.380        53
41.390        67
41.400        47
41.410        67
41.420        47
41.430        60
41.440        33
41.450        20
41.460        53
41.470        53
41.480        27
41.490        27
41.500        67
41.510        33
41.520        73
41.530        47
41.540        40
41.550        53
41.560        40
41.570        60
41.580        40
41.590        67
41.600        27
41.610        80
41.620        67
41.630        80
41.640        47
41.650        87
41.660        47
41.670       140
41.680        87
41.690        87
41.700       133
41.710        87
41.720       100
41.730       127
41.740        93
41.750        67
41.760        80
41.770        60
41.780        53
41.790        73
41.800        80
41.810        87
41.820        60
41.830        87
41.840        67
41.850        33
41.860        40
41.870        47
41.880        53
41.890        53
41.900        60
41.910        33
41.920        40
41.930        20
41.940        40
41.950        40
41.960        33
41.970        40
41.980        27
41.990        47
42.000        27
42.010         0
42.020        53
42.030        40
42.040        20
42.050         7
42.060        27
42.070        13
42.080        47
42.090        27
42.100        20
42.110        13
42.120        33
42.130        13
42.140        53
42.150        40
42.160        40
42.170        33
42.180        20
42.190        33
42.200        47
42.210        27
42.220        27
42.230        33
42.240        33
42.250        47
42.260        47
42.270        33
42.280        33
42.290        20
42.300        53
42.310        53
42.320        40
42.330        20
42.340        53
42.350        13
42.360        27
42.370        13
42.380        13
42.390         7
42.400        33
42.410        40
42.420        13
42.430        27
42.440        60
42.450        27
42.460        20
42.470        27
42.480         0
42.490        40
42.500        20
42.510        20
42.520        40
42.530        33
42.540        20
42.550        47
42.560        13
42.570        27
42.580        47
42.590        47
42.600        20
42.610        53
42.620        27
42.630        20
42.640        27
42.650         0
42.660        13
42.670        33
42.680        13
42.690        27
42.700        20
42.710         7
42.720        13
42.730         7
42.740        67
42.750        33
42.760        60
42.770        33
42.780        13
42.790        47
42.800        20
42.810        27
42.820        33
42.830        33
42.840        40
42.850        53
42.860        20
42.870        60
42.880        27
42.890        27
42.900        13
42.910        20
42.920        27
42.930         7
42.940        20
42.950        13
42.960        33
42.970        13
42.980        53
42.990        27
43.000        33
43.010        13
43.020        20
43.030         0
43.040         7
43.050        40
43.060        40
43.070        27
43.080         7
43.090        40
43.100        20
43.110        53
43.120        27
43.130        20
43.140        20
43.150        20
43.160        27
43.170         7
43.180        60
43.190        20
43.200        27
43.210        13
43.220        40
43.230        33
43.240        47
43.250        13
43.260        13
43.270        53
43.280        33
43.290        33
43.300        53
43.310        27
43.320        47
43.330         7
43.340        20
43.350        47
43.360        60
43.370        40
43.380        53
43.390        53
43.400        80
43.410        47
43.420        40
43.430        27
43.440        33
43.450        53
43.460        20
43.470        13
43.480        60
43.490        27
43.500        33
43.510        47
43.520        33
43.530        33
43.540        13
43.550        33
43.560        27
43.570        20
43.580        20
43.590        13
43.600        33
43.610        27
43.620        13
43.630         7
43.640        20
43.650        40
43.660        27
43.670        40
43.680        20
43.690        40
43.700        47
43.710        53
43.720        27
43.730        47
43.740        27
43.750        40
43.760        20
43.770        33
43.780        27
43.790        27
43.800        20
43.810        47
43.820        33
43.830        27
43.840        27
43.850        20
43.860        20
43.870        20
43.880        87
43.890        53
43.900         0
43.910        53
43.920        20
43.930        47
43.940        27
43.950        13
43.960        20
43.970        13
43.980        60
43.990        27
44.000        27
44.010        13
44.020        27
44.030        20
44.040        27
44.050        27
44.060        40
44.070        13
44.080        60
44.090        33
44.100        27
44.110        40
44.120        20
44.130        13
44.140        40
44.150        13
44.160        53
44.170        40
44.180        20
44.190        40
44.200        27
44.210        13
44.220        40
44.230        33
44.240        20
44.250        33
44.260        27
44.270        20
44.280        27
44.290        20
44.300        13
44.310        13
44.320        13
44.330        20
44.340        27
44.350        13
44.360         0
44.370         0
44.380        27
44.390        33
44.400        33
44.410         7
44.420        13
44.430        33
44.440        40
44.450        47
44.460        27
44.470        27
44.480        40
44.490        20
44.500        33
44.510        40
44.520        40
44.530        53
44.540        53
44.550        13
44.560        13
44.570        33
44.580        20
44.590        20
44.600        40
44.610        27
44.620         7
44.630         7
44.640         0
44.650        73
44.660        33
44.670        40
44.680        13
44.690        20
44.700        20
44.710        33
44.720        33
44.730        13
44.740         7
44.750        40
44.760        40
44.770        33
44.780        20
44.790        27
44.800        27
44.810        27
44.820        27
44.830        40
44.840        13
44.850        27
44.860        40
44.870        60
44.880        40
44.890        27
44.900        40
44.910        13
44.920        40
44.930        27
44.940        33
44.950        27
44.960        20
44.970        13
44.980        27
44.990        13
45.000         7
45.010        20
45.020        27
45.030        33
45.040         7
45.050        47
45.060         0
45.070         7
45.080        27
45.090        33
45.100        20
45.110        27
45.120        27
45.130        47
45.140         7
45.150        27
45.160        20
45.170        33
45.180        20
45.190         7
45.200         7
45.210        27
45.220        27
45.230        27
45.240        27
45.250        27
45.260        20
45.270        20
45.280        27
45.290        27
45.300        20
45.310        13
45.320        27
45.330        13
45.340        13
45.350        53
45.360        33
45.370        27
45.380        33
45.390        27
45.400        13
45.410        33
45.420        27
45.430        33
45.440        47
45.450        27
45.460        13
45.470        13
45.480        33
45.490        20
45.500        27
45.510        67
45.520        40
45.530        47
45.540        47
45.550        27
45.560        20
45.570        33
45.580        40
45.590        40
45.600        40
45.610        33
45.620        47
45.630        40
45.640        20
45.650        40
45.660        27
45.670        27
45.680        33
45.690        33
45.700         7
45.710        20
45.720        27
45.730        47
45.740        20
45.750        40
45.760        40
45.770        27
45.780        13
45.790        67
45.800        33
45.810        33
45.820        47
45.830        27
45.840        20
45.850        47
45.860        40
45.870        13
45.880        27
45.890        40
45.900        27
45.910        20
45.920        33
45.930        20
45.940        20
45.950         7
45.960        27
45.970        33
45.980        47
45.990        20
46.000        13
46.010         0
46.020        20
46.030        20
46.040        20
46.050        20
46.060        27
46.070        27
46.080        27
46.090        27
46.100        33
46.110        20
46.120        20
46.130        33
46.140        47
46.150        20
46.160        40
46.170        40
46.180        53
46.190        13
46.200        27
46.210        27
46.220        20
46.230        20
46.240         7
46.250        13
46.260        33
46.270        40
46.280        27
46.290        33
46.300        33
46.310         7
46.320        33
46.330        13
46.340        33
46.350         7
46.360        27
46.370        40
46.380        40
46.390        13
46.400        47
46.410        33
46.420        47
46.430        40
46.440        60
46.450        13
46.460        40
46.470        20
46.480        20
46.490        33
46.500        20
46.510        13
46.520         7
46.530        13
46.540        20
46.550        20
46.560        27
46.570        33
46.580        60
46.590        20
46.600        20
46.610        40
46.620        33
46.630        40
46.640        40
46.650        33
46.660        20
46.670        33
46.680        20
46.690        33
46.700        27
46.710        27
46.720        33
46.730        53
46.740        13
46.750        53
46.760        13
46.770        27
46.780        13
46.790        27
46.800        33
46.810        27
46.820        20
46.830        33
46.840         7
46.850        20
46.860        13
46.870         7
46.880        13
46.890        13
46.900        27
46.910        20
46.920        13
46.930        27
46.940        13
46.950        27
46.960        20
46.970        20
46.980        13
46.990         0
47.000        33
47.010        20
47.020        40
47.030        33
47.040        33
47.050        40
47.060        33
47.070        20
47.080        20
47.090        13
47.100        13
47.110        20
47.120        27
47.130        13
47.140        13
47.150        20
47.160        20
47.170        40
47.180        27
47.190        27
47.200        20
47.210        47
47.220        13
47.230        33
47.240         0
47.250        27
47.260        33
47.270        27
47.280        20
47.290        13
47.300         7
47.310        47
47.320        53
47.330        27
47.340        27
47.350        27
47.360        33
47.370        13
47.380        33
47.390        13
47.400        13
47.410        20
47.420        27
47.430        13
47.440        20
47.450        27
47.460         7
47.470         7
47.480        40
47.490        27
47.500        13
47.510        27
47.520        20
47.530        13
47.540        20
47.550        20
47.560        47
47.570        20
47.580         7
47.590        27
47.600        20
47.610        20
47.620        13
47.630        27
47.640        13
47.650        33
47.660        53
47.670        20
47.680         7
47.690        40
47.700         0
47.710         7
47.720        20
47.730        33
47.740        13
47.750        13
47.760        13
47.770        40
47.780        20
47.790        13
47.800         7
47.810        13
47.820        20
47.830        20
47.840        20
47.850        13
47.860        33
47.870        20
47.880        33
47.890        33
47.900        27
47.910        13
47.920        27
47.930        33
47.940        13
47.950        40
47.960        20
47.970        53
47.980        80
47.990        47
48.000        20
48.010         7
48.020        33
48.030         7
48.040        27
48.050         7
48.060         7
48.070        13
48.080        40
48.090        27
48.100        33
48.110        27
48.120        27
48.130        33
48.140        13
48.150        27
48.160        20
48.170        27
48.180        40
48.190        40
48.200         7
48.210        20
48.220        13
48.230        40
48.240        13
48.250        40
48.260        40
48.270        20
48.280        20
48.290        20
48.300        27
48.310        33
48.320         7
48.330        33
48.340        40
48.350        60
48.360        13
48.370        40
48.380        20
48.390        27
48.400        27
48.410        27
48.420        20
48.430        40
48.440        53
48.450        20
48.460        13
48.470        47
48.480         7
48.490        13
48.500        27
48.510        27
48.520        20
48.530        27
48.540        27
48.550        33
48.560        73
48.570        20
48.580        20
48.590        40
48.600        13
48.610        20
48.620        20
48.630        40
48.640        20
48.650        33
48.660        53
48.670        13
48.680        47
48.690        27
48.700        47
48.710        33
48.720         7
48.730        60
48.740        20
48.750        20
48.760        33
48.770        27
48.780        33
48.790        13
48.800        13
48.810        53
48.820        27
48.830        20
48.840        20
48.850        40
48.860        20
48.870        27
48.880        27
48.890        20
48.900         0
48.910        20
48.920        20
48.930        33
48.940        13
48.950        33
48.960        20
48.970         0
48.980        13
48.990        20
49.000        20
49.010        20
49.020        40
49.030        20
49.040        13
49.050        20
49.060         0
49.070        20
49.080        13
49.090        20
49.100        27
49.110        47
49.120        40
49.130        87
49.140        20
49.150        27
49.160        40
49.170        33
49.180         7
49.190        27
49.200        47
49.210        13
49.220        13
49.230        47
49.240        20
49.250        20
49.260        27
49.270        20
49.280        27
49.290        33
49.300        20
49.310        40
49.320        33
49.330        20
49.340        47
49.350        27
49.360         0
49.370        33
49.380        27
49.390        40
49.400        20
49.410         7
49.420         7
49.430        13
49.440        13
49.450        20
49.460        13
49.470        27
49.480        27
49.490        13
49.500         7
49.510        13
49.520        27
49.530         7
49.540        40
49.550        33
49.560        53
49.570        20
49.580        47
49.590        27
49.600        27
49.610        27
49.620        20
49.630        13
49.640        33
49.650        33
49.660        20
49.670        13
49.680        20
49.690        13
49.700        33
49.710        27
49.720        20
49.730        20
49.740        13
49.750        13
49.760         0
49.770        40
49.780         7
49.790         7
49.800        40
49.810        20
49.820         7
49.830        47
49.840        20
49.850        33
49.860        27
49.870        27
49.880        40
49.890        33
49.900         0
49.910        20
49.920        33
49.930        20
49.940        27
49.950         7
49.960        13
49.970        27
49.980        27
49.990        20
50.000        20
50.010        33
50.020        13
50.030        27
50.040        13
50.050        20
50.060        27
50.070         7
50.080        27
50.090         7
50.100        27
50.110        20
50.120        20
50.130        40
50.140        27
50.150        20
50.160        20
50.170        47
50.180        27
50.190        33
50.200        33
50.210        33
50.220        13
50.230        33
50.240        33
50.250        20
50.260        20
50.270        27
50.280        20
50.290        33
50.300        27
50.310        33
50.320        27
50.330        53
50.340        67
50.350        40
50.360        33
50.370        13
50.380        20
50.390        33
50.400        13
50.410        20
50.420        27
50.430        40
50.440        53
50.450        40
50.460         7
50.470        40
50.480        33
50.490         7
50.500        27
50.510        20
50.520        47
50.530        20
50.540        20
50.550        13
50.560        33
50.570        20
50.580        33
50.590         0
50.600        40
50.610        27
50.620        20
50.630        27
50.640        20
50.650        20
50.660        33
50.670         7
50.680        27
50.690        13
50.700        27
50.710        20
50.720         7
50.730        20
50.740        20
50.750        27
50.760        20
50.770         7
50.780        20
50.790        13
50.800        33
50.810        33
50.820        13
50.830        27
50.840        27
50.850        13
50.860        20
50.870        27
50.880        33
50.890        20
50.900        27
50.910        27
50.920         0
50.930        20
50.940        33
50.950        20
50.960        27
50.970        27
50.980        27
50.990        27
51.000         7
51.010        13
51.020        20
51.030        13
51.040        40
51.050        33
51.060        20
51.070        27
51.080         7
51.090        33
51.100        47
51.110        40
51.120        27
51.130        33
51.140        33
51.150        20
51.160        20
51.170        33
51.180        20
51.190        20
51.200        40
51.210         7
51.220        20
51.230        27
51.240         0
51.250        33
51.260        20
51.270        47
51.280        20
51.290        27
51.300        40
51.310        40
51.320        27
51.330        33
51.340         7
51.350        27
51.360        20
51.370        60
51.380        47
51.390        13
51.400        20
51.410        13
51.420        13
51.430         7
51.440        27
51.450        33
51.460        40
51.470        40
51.480        13
51.490        20
51.500        47
51.510        27
51.520        40
51.530         7
51.540        47
51.550        47
51.560         0
51.570        47
51.580        20
51.590        13
51.600        20
51.610        20
51.620        47
51.630        40
51.640        27
51.650        33
51.660         7
51.670        67
51.680        27
51.690        27
51.700        20
51.710        27
51.720        40
51.730        27
51.740         7
51.750        33
51.760        20
51.770        33
51.780        20
51.790        20
51.800        27
51.810        40
51.820        20
51.830        33
51.840        27
51.850        13
51.860        20
51.870        27
51.880        27
51.890         0
51.900         7
51.910        27
51.920        27
51.930        33
51.940        20
51.950         7
51.960         7
51.970        13
51.980        20
51.990        20
52.000        27
52.010        20
52.020        13
52.030        13
52.040        20
52.050        13
52.060        40
52.070        33
52.080        27
52.090        40
52.100        27
52.110        40
52.120        27
52.130        20
52.140        13
52.150         7
52.160        47
52.170        33
52.180        13
52.190        20
52.200        40
52.210         7
52.220        20
52.230        27
52.240        20
52.250        20
52.260         7
52.270        47
52.280        20
52.290        33
52.300         7
52.310        20
52.320        33
52.330        20
52.340        47
52.350        13
52.360        13
52.370        27
52.380        20
52.390        27
52.400        13
52.410        27
52.420        33
52.430        27
52.440         7
52.450        47
52.460        53
52.470        13
52.480        47
52.490        33
52.500        33
52.510         7
52.520        47
52.530        47
52.540        33
52.550         7
52.560        13
52.570        33
52.580        47
52.590        60
52.600        40
52.610        53
52.620        53
52.630        27
52.640        53
52.650        47
52.660        27
52.670        33
52.680        33
52.690        40
52.700        47
52.710        20
52.720        27
52.730        53
52.740        60
52.750        40
52.760        27
52.770        60
52.780        27
52.790        60
52.800        53
52.810        13
52.820        47
52.830        33
52.840        53
52.850        53
52.860        27
52.870        27
52.880         7
52.890        80
52.900        27
52.910        27
52.920        47
52.930        60
52.940        67
52.950        13
52.960        53
52.970         7
52.980        53
52.990        40
53.000        33
53.010        33
53.020        33
53.030        27
53.040        13
53.050        47
53.060        20
53.070        40
53.080        27
53.090        20
53.100        20
53.110        20
53.120        60
53.130        47
53.140        33
53.150        33
53.160        33
53.170        73
53.180        60
53.190        27
53.200        33
53.210        13
53.220        47
53.230        47
53.240        67
53.250        27
53.260        60
53.270        40
53.280        67
53.290        33
53.300        47
53.310        40
53.320        67
53.330        60
53.340        60
53.350        27
53.360        60
53.370        33
53.380        27
53.390        27
53.400        27
53.410        20
53.420        87
53.430        33
53.440        47
53.450         7
53.460        33
53.470        13
53.480        27
53.490        27
53.500        20
53.510        40
53.520         7
53.530        33
53.540        33
53.550        33
53.560        27
53.570        27
53.580        27
53.590        33
53.600        33
53.610        13
53.620        13
53.630        20
53.640        27
53.650         7
53.660        20
53.670        20
53.680        27
53.690        13
53.700        33
53.710        47
53.720        53
53.730        33
53.740        27
53.750        13
53.760        33
53.770        20
53.780        27
53.790        27
53.800         7
53.810        33
53.820         7
53.830        27
53.840        20
53.850        20
53.860        13
53.870        27
53.880        13
53.890        27
53.900        13
53.910        13
53.920        33
53.930        27
53.940        20
53.950         7
53.960         7
53.970         0
53.980        13
53.990        60
54.000        47
54.010        13
54.020         7
54.030        33
54.040        20
54.050        53
54.060        40
54.070        13
54.080        33
54.090        47
54.100         0
54.110        33
54.120        40
54.130         0
54.140        33
54.150        27
54.160        27
54.170        20
54.180        27
54.190        27
54.200        13
54.210        27
54.220        13
54.230        20
54.240        40
54.250        33
54.260        47
54.270        40
54.280        27
54.290        47
54.300        33
54.310        53
54.320        27
54.330        33
54.340        40
54.350        27
54.360        60
54.370        27
54.380        33
54.390        27
54.400        40
54.410        47
54.420        27
54.430        40
54.440        40
54.450        33
54.460        20
54.470        53
54.480         0
54.490        47
54.500        27
54.510        20
54.520        33
54.530        33
54.540        40
54.550        13
54.560        33
54.570        27
54.580        27
54.590        40
54.600        20
54.610        33
54.620        33
54.630         7
54.640        47
54.650        20
54.660        60
54.670        33
54.680        20
54.690        33
54.700        13
54.710        27
54.720        27
54.730        27
54.740         7
54.750        33
54.760        47
54.770        40
54.780        47
54.790        40
54.800        27
54.810        40
54.820        27
54.830        13
54.840        13
54.850         7
54.860        27
54.870        33
54.880        13
54.890         7
54.900        33
54.910        33
54.920        20
54.930        53
54.940        40
54.950        60
54.960        60
54.970        13
54.980        13
54.990        53
55.000        47
55.010        40
55.020        33
55.030        33
55.040        27
55.050         7
55.060        33
55.070        27
55.080        27
55.090        33
55.100        20
55.110        20
55.120        20
55.130        13
55.140        27
55.150        33
55.160        20
55.170        33
55.180         0
55.190        20
55.200        40
55.210        67
55.220        33
55.230        20
55.240        47
55.250        13
55.260        33
55.270        40
55.280        40
55.290        27
55.300        40
55.310        27
55.320        40
55.330        20
55.340        53
55.350        33
55.360        40
55.370        13
55.380        20
55.390        40
55.400        20
55.410        33
55.420        33
55.430        47
55.440        33
55.450        27
55.460        13
55.470        33
55.480        33
55.490        33
55.500        20
55.510        33
55.520        33
55.530        27
55.540         0
55.550        20
55.560        20
55.570        20
55.580        33
55.590        33
55.600        13
55.610         0
55.620        27
55.630        33
55.640        40
55.650        20
55.660        33
55.670        20
55.680        27
55.690        33
55.700        13
55.710        20
55.720        20
55.730        33
55.740         0
55.750         0
55.760        40
55.770        27
55.780        27
55.790        33
55.800        20
55.810        67
55.820        27
55.830        33
55.840        20
55.850        33
55.860        47
55.870         7
55.880        13
55.890        53
55.900        13
55.910        13
55.920        20
55.930        47
55.940        20
55.950        20
55.960        27
55.970        33
55.980        40
55.990         7
56.000        33
56.010        27
56.020        20
56.030        47
56.040         7
56.050        13
56.060        20
56.070        13
56.080        13
56.090        33
56.100        20
56.110        20
56.120        20
56.130        47
56.140         7
56.150        13
56.160        27
56.170        13
56.180        20
56.190        27
56.200        27
56.210         0
56.220        13
56.230        27
56.240        40
56.250        47
56.260        20
56.270        33
56.280        13
56.290        40
56.300        13
56.310        40
56.320        20
56.330        33
56.340        13
56.350        20
56.360        33
56.370         7
56.380         7
56.390        20
56.400        40
56.410        33
56.420        53
56.430        13
56.440         7
56.450        40
56.460        20
56.470        13
56.480        20
56.490         7
56.500         7
56.510        13
56.520        47
56.530        40
56.540        27
56.550        33
56.560        13
56.570        13
56.580        33
56.590         7
56.600         7
56.610        27
56.620        20
56.630        27
56.640         7
56.650        13
56.660        33
56.670        33
56.680        27
56.690        60
56.700        20
56.710        20
56.720        40
56.730        13
56.740        27
56.750        33
56.760         7
56.770        27
56.780        13
56.790        40
56.800        20
56.810        20
56.820        13
56.830        27
56.840         0
56.850        27
56.860        27
56.870        27
56.880        40
56.890        20
56.900        40
56.910         7
56.920        40
56.930         0
56.940         7
56.950        27
56.960        13
56.970        20
56.980        27
56.990        20
57.000        33
57.010        20
57.020        33
57.030        53
57.040        13
57.050        13
57.060        13
57.070        13
57.080        13
57.090        13
57.100        33
57.110        60
57.120        20
57.130        20
57.140        27
57.150        27
57.160        40
57.170        33
57.180        40
57.190        20
57.200        33
57.210        27
57.220        20
57.230        20
57.240        40
57.250        33
57.260        33
57.270        20
57.280        33
57.290        33
57.300        13
57.310        33
57.320        33
57.330         7
57.340        40
57.350        27
57.360        13
57.370        53
57.380        27
57.390        40
57.400        27
57.410        13
57.420        40
57.430        20
57.440        33
57.450        47
57.460        53
57.470        20
57.480        20
57.490        33
57.500        40
57.510        60
57.520        67
57.530        67
57.540        67
57.550        27
57.560        73
57.570        47
57.580        60
57.590        40
57.600        53
57.610        20
57.620        67
57.630        13
57.640        33
57.650        33
57.660        40
57.670        60
57.680        27
57.690        40
57.700        40
57.710        53
57.720        13
57.730        40
57.740        33
57.750        20
57.760        13
57.770        13
57.780        13
57.790        20
57.800        33
57.810        53
57.820        40
57.830        27
57.840        33
57.850        13
57.860        20
57.870         0
57.880        40
57.890        13
57.900         7
57.910        33
57.920        20
57.930        20
57.940         7
57.950        20
57.960        27
57.970        40
57.980        13
57.990        20
58.000        33
58.010        20
58.020         7
58.030        27
58.040        33
58.050        20
58.060         0
58.070        20
58.080        27
58.090        20
58.100         7
58.110        20
58.120        27
58.130        20
58.140         7
58.150        20
58.160        33
58.170        27
58.180        20
58.190        20
58.200        33
58.210        20
58.220        20
58.230        20
58.240        27
58.250        20
58.260        27
58.270        40
58.280        13
58.290        13
58.300        20
58.310        40
58.320        53
58.330        20
58.340        33
58.350        20
58.360        47
58.370        33
58.380        13
58.390        13
58.400        20
58.410        20
58.420        53
58.430        20
58.440        20
58.450        27
58.460        33
58.470        27
58.480        20
58.490        27
58.500        20
58.510        20
58.520        27
58.530        33
58.540        33
58.550        40
58.560        87
58.570        13
58.580        40
58.590        27
58.600        53
58.610        33
58.620        27
58.630        13
58.640        47
58.650        53
58.660         0
58.670        27
58.680        40
58.690        33
58.700        60
58.710        40
58.720        33
58.730        27
58.740        27
58.750        13
58.760        27
58.770        20
58.780        27
58.790        27
58.800        33
58.810        33
58.820        33
58.830        27
58.840        33
58.850        20
58.860        20
58.870        27
58.880         7
58.890        27
58.900        27
58.910        27
58.920        20
58.930        20
58.940        40
58.950        13
58.960        27
58.970        40
58.980        27
58.990         7
59.000        33
59.010        33
59.020        40
59.030        20
59.040        20
59.050        13
59.060        13
59.070        33
59.080        27
59.090        33
59.100        20
59.110        13
59.120        13
59.130        27
59.140         7
59.150        20
59.160         7
59.170        20
59.180         7
59.190         7
59.200        13
59.210        20
59.220        33
59.230        13
59.240        13
59.250        20
59.260        53
59.270        27
59.280        27
59.290        13
59.300        13
59.310        20
59.320        40
59.330        40
59.340        27
59.350        40
59.360         7
59.370        13
59.380        13
59.390        40
59.400        20
59.410        60
59.420         0
59.430         7
59.440        27
59.450        40
59.460        20
59.470         7
59.480        33
59.490        27
59.500        20
59.510        53
59.520        33
59.530        13
59.540         7
59.550        20
59.560        27
59.570        13
59.580         7
59.590        27
59.600        27
59.610        13
59.620        40
59.630        13
59.640        13
59.650         7
59.660        13
59.670        13
59.680        40
59.690         7
59.700        13
59.710        20
59.720        27
59.730        47
59.740        27
59.750        20
59.760        40
59.770        40
59.780        13
59.790        27
59.800        20
59.810        13
59.820        33
59.830        13
59.840        13
59.850        40
59.860        13
59.870        33
59.880        27
59.890        33
59.900         7
59.910        13
59.920         7
59.930        13
59.940        40
59.950        40
59.960        13
59.970         7
59.980        13
59.990        27
60.000        27
