20.000        20
20.010        53
20.020        47
20.030        60
20.040        33
20.050        53
20.060        47
20.070        13
20.080        33
20.090        40
20.100        47
20.110        47
20.120        27
20.130        47
20.140        67
20.150        53
20.160        33
20.170        53
20.180        27
20.190        47
20.200        53
20.210        60
20.220        47
20.230        67
20.240        47
20.250        53
20.260        53
20.270        40
20.280        33
20.290        67
20.300        53
20.310        60
20.320        53
20.330        47
20.340        27
20.350        80
20.360         7
20.370        60
20.380        40
20.390        47
20.400        47
20.410        20
20.420        33
20.430        47
20.440        53
20.450        53
20.460        53
20.470        20
20.480        27
20.490        13
20.500        60
20.510        33
20.520        33
20.530        47
20.540        53
20.550        60
20.560        33
20.570        40
20.580        27
20.590        20
20.600        47
20.610        20
20.620        40
20.630        47
20.640        40
20.650        60
20.660        33
20.670        40
20.680        47
20.690        47
20.700        47
20.710        73
20.720        67
20.730        53
20.740        47
20.750        67
20.760        53
20.770        40
20.780        67
20.790        33
20.800        87
20.810        60
20.820        53
20.830        47
20.840        40
20.850        47
20.860        40
20.870        47
20.880        40
20.890        47
20.900        67
20.910        67
20.920        60
20.930        47
20.940        40
20.950        67
20.960        33
20.970        20
20.980        47
20.990        40
21.000        47
21.010        13
21.020        40
21.030        27
21.040        20
21.050        53
21.060        40
21.070        53
21.080        67
21.090        20
21.100        33
21.110        33
21.120        20
21.130        40
21.140        67
21.150        13
21.160        47
21.170        60
21.180        27
21.190        40
21.200        80
21.210        47
21.220        60
21.230        13
21.240        60
21.250        53
21.260        40
21.270        40
21.280        53
21.290        47
21.300        67
21.310        53
21.320        60
21.330        47
21.340        40
21.350        40
21.360        33
21.370        47
21.380        33
21.390        47
21.400        27
21.410        67
21.420        20
21.430        67
21.440        60
21.450        20
21.460        40
21.470        40
21.480        27
21.490        20
21.500        47
21.510        27
21.520        53
21.530        33
21.540        13
21.550        27
21.560        27
21.570        20
21.580        27
21.590        33
21.600        20
21.610        60
21.620        73
21.630        80
21.640        60
21.650        27
21.660        33
21.670        40
21.680        20
21.690        60
21.700        20
21.710        47
21.720        33
21.730        33
21.740        20
21.750        13
21.760        53
21.770        20
21.780        60
21.790        33
21.800        33
21.810        33
21.820        40
21.830        60
21.840        33
21.850        53
21.860        20
21.870        33
21.880        20
21.890        60
21.900        60
21.910        67
21.920        33
21.930        47
21.940        33
21.950        40
21.960        47
21.970        73
21.980        67
21.990        27
22.000        27
22.010        47
22.020        47
22.030        13
22.040        47
22.050        60
22.060        13
22.070        40
22.080        47
22.090        73
22.100        20
22.110        27
22.120        33
22.130        40
22.140        33
22.150        40
22.160        20
22.170        20
22.180        67
22.190        27
22.200        33
22.210        40
22.220        20
22.230        13
22.240        13
22.250        40
22.260        33
22.270        33
22.280        33
22.290        47
22.300        40
22.310        47
22.320        33
22.330        53
22.340         7
22.350        40
22.360        47
22.370        33
22.380        33
22.390        67
22.400        20
22.410        33
22.420        20
22.430         7
22.440        33
22.450        20
22.460        53
22.470        60
22.480        20
22.490        73
22.500        40
22.510        53
22.520        47
22.530        33
22.540        33
22.550        27
22.560        40
22.570        20
22.580        33
22.590        47
22.600        20
22.610        53
22.620        53
22.630        40
22.640        40
22.650        20
22.660        53
22.670        47
22.680        13
22.690        27
22.700        47
22.710        27
22.720        47
22.730        47
22.740        53
22.750        13
22.760        13
22.770        27
22.780        40
22.790        13
22.800        20
22.810        27
22.820        27
22.830        40
22.840        27
22.850        47
22.860        27
22.870        67
22.880        53
22.890        47
22.900        40
22.910        40
22.920        27
22.930        20
22.940        27
22.950        33
22.960        40
22.970        33
22.980        27
22.990        33
23.000        33
23.010        27
23.020        40
23.030        20
23.040        40
23.050        53
23.060        40
23.070        20
23.080        33
23.090        53
23.100        47
23.110        53
23.120        33
23.130        40
23.140        27
23.150        33
23.160        40
23.170        20
23.180        33
23.190        33
23.200        60
23.210        33
23.220        60
23.230        27
23.240        47
23.250        27
23.260         7
23.270        33
23.280        40
23.290        40
23.300        27
23.310        27
23.320        27
23.330        33
23.340        33
23.350        13
23.360        27
23.370        13
23.380        27
23.390        40
23.400        27
23.410        47
23.420        27
23.430        47
23.440        40
23.450        27
23.460        40
23.470        33
23.480        27
23.490        40
23.500        40
23.510        33
23.520        47
23.530        20
23.540        33
23.550        33
23.560        47
23.570        47
23.580        27
23.590        20
23.600        20
23.610        33
23.620        67
23.630        40
23.640        13
23.650        33
23.660        33
23.670        13
23.680        33
23.690        47
23.700        33
23.710        40
23.720        33
23.730        33
23.740        60
23.750        33
23.760        40
23.770        67
23.780        20
23.790        33
23.800        13
23.810        20
23.820        33
23.830        53
23.840        40
23.850        13
23.860        53
23.870        33
23.880        53
23.890        20
23.900         7
23.910        20
23.920        33
23.930        20
23.940        53
23.950        20
23.960        20
23.970        33
23.980        20
23.990        33
24.000        27
24.010        53
24.020        33
24.030        33
24.040        47
24.050        40
24.060        53
24.070         7
24.080        20
24.090        87
24.100        60
24.110        33
24.120        27
24.130        47
24.140        27
24.150        47
24.160        27
24.170        40
24.180        27
24.190        47
24.200        33
24.210        27
24.220        33
24.230        47
24.240        60
24.250        27
24.260        47
24.270        40
24.280        13
24.290        27
24.300        53
24.310         7
24.320        33
24.330        53
24.340        13
24.350        53
24.360        73
24.370        33
24.380        47
24.390        67
24.400        20
24.410        27
24.420        27
24.430        40
24.440        47
24.450        20
24.460        40
24.470        27
24.480        20
24.490        13
24.500        33
24.510        53
24.520        20
24.530        60
24.540        20
24.550        33
24.560         0
24.570        27
24.580        27
24.590        27
24.600        27
24.610        13
24.620        27
24.630        33
24.640        33
24.650        40
24.660        47
24.670        27
24.680        27
24.690        33
24.700        40
24.710        47
24.720        33
24.730        20
24.740        73
24.750        47
24.760        20
24.770        33
24.780        27
24.790        33
24.800        60
24.810        40
24.820        27
24.830        40
24.840        40
24.850        33
24.860        33
24.870        60
24.880        27
24.890        33
24.900        13
24.910        27
24.920        40
24.930        20
24.940        40
24.950        20
24.960         7
24.970        13
24.980        60
24.990        20
25.000        53
25.010        27
25.020        20
25.030        40
25.040        33
25.050        33
25.060        40
25.070        33
25.080        27
25.090        40
25.100        27
25.110         7
25.120        40
25.130        53
25.140         7
25.150        20
25.160        47
25.170        33
25.180        27
25.190         7
25.200         7
25.210        60
25.220        40
25.230        33
25.240        40
25.250        53
25.260        67
25.270        33
25.280        20
25.290        40
25.300        13
25.310        47
25.320         0
25.330        27
25.340        20
25.350        27
25.360        60
25.370        27
25.380        33
25.390        27
25.400        20
25.410        27
25.420        40
25.430        20
25.440        73
25.450        33
25.460        27
25.470        20
25.480        27
25.490        53
25.500        20
25.510        27
25.520        33
25.530        53
25.540        33
25.550        40
25.560        27
25.570        53
25.580         0
25.590        27
25.600        53
25.610        33
25.620        33
25.630        27
25.640        33
25.650        40
25.660        13
25.670        40
25.680        20
25.690        33
25.700        20
25.710        47
25.720        27
25.730        13
25.740        53
25.750        13
25.760        27
25.770        40
25.780        20
25.790        13
25.800        13
25.810        33
25.820        53
25.830         7
25.840        33
25.850        40
25.860        20
25.870        40
25.880        20
25.890        20
25.900        33
25.910        20
25.920        20
25.930        13
25.940        33
25.950        13
25.960        33
25.970        20
25.980        20
25.990        27
26.000        47
26.010        53
26.020        27
26.030        20
26.040        40
26.050        13
26.060        27
26.070        33
26.080        60
26.090        33
26.100        53
26.110        27
26.120        40
26.130        27
26.140        40
26.150         7
26.160        67
26.170        47
26.180        27
26.190        27
26.200        13
26.210        33
26.220        20
26.230        20
26.240        27
26.250        33
26.260        20
26.270        40
26.280        67
26.290        27
26.300        20
26.310        20
26.320        40
26.330        60
26.340        27
26.350        33
26.360        33
26.370        20
26.380        27
26.390        20
26.400        20
26.410         7
26.420        53
26.430        20
26.440        33
26.450        40
26.460        33
26.470        27
26.480        20
26.490         7
26.500        33
26.510        20
26.520         0
26.530        27
26.540        47
26.550        60
26.560        27
26.570        20
26.580        47
26.590        27
26.600        40
26.610        20
26.620        20
26.630        60
26.640        40
26.650        40
26.660        27
26.670         7
26.680        20
26.690        13
26.700        33
26.710        27
26.720        27
26.730        60
26.740        60
26.750        27
26.760        27
26.770        53
26.780        40
26.790        20
26.800        33
26.810        33
26.820        33
26.830        20
26.840        40
26.850        27
26.860        53
26.870        33
26.880        20
26.890        33
26.900        20
26.910        60
26.920        20
26.930        27
26.940         0
26.950        47
26.960         7
26.970        33
26.980        27
26.990        47
27.000        40
27.010         7
27.020        47
27.030        40
27.040        27
27.050        47
27.060        40
27.070        27
27.080        20
27.090        20
27.100        13
27.110        27
27.120        20
27.130        20
27.140        40
27.150        27
27.160        27
27.170        20
27.180        40
27.190        20
27.200        27
27.210        27
27.220        53
27.230        40
27.240        20
27.250        33
27.260        33
27.270        33
27.280        40
27.290        20
27.300        20
27.310         7
27.320        47
27.330        40
27.340        13
27.350        20
27.360        27
27.370        33
27.380        40
27.390        40
27.400        27
27.410        20
27.420        27
27.430        33
27.440        27
27.450        33
27.460        33
27.470        40
27.480        20
27.490        20
27.500        33
27.510        20
27.520        27
27.530        20
27.540        27
27.550         7
27.560        40
27.570        20
27.580        27
27.590        13
27.600        47
27.610         7
27.620        13
27.630        53
27.640        27
27.650        33
27.660        33
27.670        33
27.680        33
27.690        27
27.700        33
27.710         7
27.720        13
27.730        33
27.740        33
27.750        40
27.760        53
27.770        33
27.780        40
27.790        33
27.800        33
27.810        20
27.820        53
27.830        60
27.840       100
27.850        47
27.860        53
27.870        27
27.880        47
27.890        40
27.900        47
27.910        33
27.920        47
27.930        53
27.940        73
27.950        53
27.960        40
27.970        53
27.980        13
27.990        40
28.000        13
28.010        20
28.020        27
28.030        33
28.040        53
28.050        27
28.060        40
28.070        27
28.080        40
28.090        53
28.100        33
28.110        27
28.120        13
28.130        40
28.140        47
28.150        27
28.160        20
28.170        53
28.180        53
28.190        33
28.200        33
28.210        20
28.220        40
28.230        27
28.240        27
28.250        20
28.260        20
28.270        20
28.280        40
28.290        20
28.300         7
28.310        33
28.320        20
28.330        27
28.340        33
28.350        33
28.360        20
28.370        33
28.380        20
28.390        47
28.400        13
28.410        47
28.420        33
28.430        27
28.440        33
28.450        27
28.460        13
28.470        27
28.480        33
28.490        53
28.500        20
28.510        27
28.520        20
28.530        27
28.540        33
28.550        33
28.560        13
28.570        40
28.580        60
28.590        40
28.600        20
28.610        27
28.620        47
28.630        60
28.640        13
28.650        13
28.660        40
28.670        27
28.680        53
28.690        60
28.700        47
28.710        27
28.720        33
28.730        13
28.740        13
28.750        20
28.760        27
28.770        20
28.780        53
28.790        27
28.800        13
28.810        60
28.820        20
28.830        27
28.840        13
28.850        40
28.860        27
28.870        20
28.880        27
28.890        13
28.900        40
28.910        20
28.920        13
28.930        53
28.940        20
28.950        13
28.960        33
28.970        33
28.980        13
28.990        40
29.000        33
29.010        27
29.020        20
29.030        40
29.040        27
29.050        20
29.060        27
29.070        33
29.080        47
29.090        13
29.100        27
29.110        13
29.120        20
29.130        20
29.140        33
29.150        27
29.160        80
29.170        47
29.180        53
29.190        27
29.200        20
29.210        33
29.220        47
29.230        40
29.240        27
29.250        47
29.260        20
29.270        33
29.280         0
29.290        20
29.300        13
29.310        33
29.320        53
29.330        60
29.340        20
29.350        47
29.360        13
29.370        53
29.380        47
29.390        33
29.400        13
29.410        27
29.420        20
29.430        33
29.440        27
29.450        33
29.460        40
29.470        40
29.480        13
29.490        13
29.500        20
29.510        33
29.520        40
29.530        33
29.540        27
29.550        13
29.560        27
29.570        27
29.580        40
29.590        20
29.600        73
29.610        20
29.620        20
29.630        27
29.640        27
29.650        20
29.660        33
29.670        53
29.680         0
29.690        13
29.700        33
29.710        33
29.720         7
29.730        53
29.740         7
29.750        27
29.760        33
29.770         7
29.780        47
29.790        40
29.800        27
29.810        27
29.820        33
29.830        87
29.840        53
29.850        33
29.860        47
29.870        40
29.880        13
29.890        33
29.900        87
29.910        27
29.920        67
29.930        67
29.940        13
29.950        53
29.960        53
29.970        93
29.980        60
29.990        60
30.000        40
30.010        40
30.020        67
30.030        40
30.040        73
30.050        40
30.060        73
30.070        27
30.080        47
30.090        60
30.100        33
30.110        53
30.120        27
30.130        47
30.140        73
30.150        40
30.160        47
30.170        73
30.180        33
30.190        73
30.200        20
30.210        20
30.220        40
30.230        53
30.240        40
30.250        40
30.260        60
30.270        60
30.280        33
30.290        47
30.300        60
30.310         7
30.320        60
30.330       100
30.340        73
30.350        20
30.360        53
30.370        27
30.380        60
30.390       107
30.400        40
30.410        47
30.420        80
30.430        67
30.440        47
30.450        53
30.460        67
30.470        53
30.480        73
30.490       100
30.500        20
30.510        80
30.520        47
30.530        87
30.540        93
30.550        80
30.560       127
30.570       120
30.580        73
30.590       113
30.600       120
30.610       120
30.620       167
30.630       140
30.640        93
30.650       140
30.660       140
30.670       220
30.680       180
30.690       333
30.700       327
30.710       267
30.720       506
30.730       373
30.740       480
30.750       513
30.760       533
30.770       680
30.780       793
30.790       726
30.800       993
30.810      1146
30.820      1146
30.830      1446
30.840      1519
30.850      1966
30.860      2146
30.870      2252
30.880      2566
30.890      2746
30.900      3019
30.910      3692
30.920      3579
30.930      3852
30.940      3645
30.950      3665
30.960      3798
30.970      3505
30.980      3505
30.990      3085
31.000      2945
31.010      2859
31.020      2526
31.030      2286
31.040      1873
31.050      1853
31.060      1459
31.070      1166
31.080      1146
31.090       726
31.100       620
31.110       586
31.120       407
31.130       380
31.140       253
31.150       240
31.160       247
31.170       213
31.180       200
31.190       180
31.200       167
31.210       127
31.220       107
31.230       113
31.240       120
31.250        93
31.260        60
31.270        67
31.280       107
31.290        73
31.300       100
31.310        60
31.320        60
31.330        47
31.340        80
31.350        33
31.360        47
31.370        60
31.380        60
31.390        40
31.400       107
31.410       100
31.420        73
31.430        53
31.440        60
31.450        60
31.460        67
31.470        80
31.480        47
31.490        67
31.500        40
31.510        33
31.520        53
31.530       100
31.540        20
31.550        80
31.560        53
31.570        53
31.580        47
31.590        27
31.600        47
31.610         7
31.620        33
31.630        27
31.640        67
31.650        27
31.660        40
31.670        53
31.680        60
31.690        53
31.700        27
31.710        27
31.720        27
31.730        47
31.740        20
31.750        80
31.760        47
31.770        67
31.780        53
31.790        53
31.800        60
31.810        13
31.820        33
31.830        47
31.840        60
31.850        20
31.860        40
31.870        80
31.880        40
31.890        40
31.900        33
31.910        53
31.920        27
31.930        60
31.940        80
31.950        67
31.960        67
31.970        20
31.980        33
31.990        47
32.000        40
32.010        47
32.020        20
32.030        40
32.040        33
32.050        20
32.060        60
32.070        40
32.080        20
32.090        47
32.100        20
32.110        87
32.120        40
32.130        27
32.140        40
32.150        53
32.160        27
32.170        60
32.180        20
32.190        27
32.200        20
32.210        20
32.220        53
32.230        20
32.240        40
32.250        67
32.260        47
32.270        27
32.280        47
32.290        60
32.300        67
32.310        33
32.320        47
32.330        27
32.340        53
32.350        60
32.360        27
32.370        40
32.380        20
32.390        60
32.400        27
32.410        27
32.420        47
32.430        13
32.440        53
32.450        53
32.460        20
32.470        53
32.480        40
32.490        33
32.500        53
32.510        33
32.520        87
32.530        27
32.540        47
32.550        47
32.560        47
32.570        33
32.580        73
32.590        40
32.600        40
32.610        33
32.620        27
32.630        60
32.640        67
32.650        33
32.660        27
32.670        47
32.680        67
32.690        40
32.700        53
32.710        53
32.720        27
32.730        67
32.740        20
32.750        53
32.760        27
32.770         7
32.780        27
32.790        53
32.800        47
32.810        40
32.820        47
32.830        40
32.840        27
32.850        13
32.860        20
32.870        33
32.880        27
32.890        33
32.900        20
32.910        13
32.920        20
32.930        53
32.940        67
32.950        47
32.960        20
32.970        13
32.980        33
32.990        40
33.000        33
33.010        40
33.020        13
33.030        33
33.040        27
33.050        40
33.060        33
33.070        13
33.080        47
33.090        33
33.100        13
33.110        33
33.120        40
33.130        33
33.140        20
33.150        27
33.160        47
33.170        13
33.180        27
33.190        20
33.200        40
33.210        20
33.220        33
33.230        40
33.240        20
33.250        40
33.260        67
33.270        47
33.280        33
33.290        13
33.300        47
33.310        40
33.320        47
33.330        27
33.340        20
33.350        53
33.360        40
33.370        40
33.380        33
33.390        33
33.400        33
33.410        47
33.420        27
33.430        47
33.440        47
33.450        13
33.460        27
33.470        27
33.480        27
33.490        40
33.500        20
33.510        13
33.520        20
33.530        33
33.540        40
33.550         7
33.560        13
33.570         7
33.580        33
33.590         7
33.600        20
33.610        13
33.620        20
33.630        40
33.640        47
33.650        40
33.660        27
33.670        27
33.680        27
33.690        33
33.700        20
33.710        20
33.720        20
33.730        33
33.740        13
33.750        53
33.760        33
33.770        20
33.780        20
33.790        60
33.800        27
33.810        20
33.820        47
33.830         7
33.840        47
33.850        27
33.860        40
33.870        13
33.880        20
33.890        33
33.900        40
33.910        40
33.920        27
33.930        13
33.940         7
33.950        47
33.960        33
33.970        33
33.980        40
33.990        33
34.000        53
34.010        27
34.020        40
34.030        27
34.040        33
34.050        20
34.060        20
34.070        20
34.080        33
34.090        27
34.100        47
34.110        40
34.120        40
34.130        27
34.140        20
34.150        33
34.160        20
34.170         7
34.180        20
34.190        13
34.200        33
34.210        53
34.220        13
34.230        27
34.240        27
34.250        13
34.260        33
34.270        40
34.280        27
34.290        33
34.300        20
34.310        33
34.320        40
34.330        33
34.340        13
34.350        27
34.360        33
34.370        27
34.380         7
34.390        20
34.400        47
34.410        33
34.420        13
34.430        33
34.440         7
34.450        33
34.460        13
34.470        27
34.480        40
34.490        40
34.500        47
34.510        53
34.520        20
34.530        33
34.540        53
34.550         7
34.560        13
34.570        47
34.580        47
34.590        27
34.600         7
34.610        27
34.620        33
34.630        20
34.640        47
34.650        27
34.660        13
34.670        27
34.680        20
34.690        20
34.700        20
34.710        13
34.720        20
34.730        33
34.740        33
34.750        20
34.760        40
34.770        13
34.780         7
34.790        33
34.800        27
34.810        27
34.820        20
34.830        20
34.840        40
34.850        27
34.860        20
34.870         7
34.880        27
34.890        13
34.900        47
34.910        33
34.920        20
34.930        27
34.940        53
34.950        53
34.960        20
34.970        20
34.980        40
34.990        27
35.000        27
35.010        13
35.020        40
35.030        13
35.040        13
35.050        40
35.060         0
35.070        13
35.080        53
35.090        20
35.100        20
35.110        33
35.120        60
35.130        73
35.140        73
35.150        27
35.160        73
35.170        47
35.180        53
35.190        20
35.200        53
35.210        47
35.220        27
35.230        53
35.240        20
35.250        40
35.260        27
35.270        67
35.280        13
35.290        27
35.300        27
35.310        33
35.320        13
35.330        27
35.340        13
35.350         7
35.360         7
35.370        13
35.380        13
35.390        27
35.400        33
35.410        40
35.420        27
35.430        13
35.440        67
35.450        47
35.460        13
35.470        13
35.480         0
35.490         0
35.500        13
35.510        20
35.520        27
35.530        40
35.540        13
35.550        27
35.560        33
35.570        20
35.580        47
35.590        60
35.600        53
35.610        27
35.620        40
35.630        13
35.640        27
35.650        13
35.660        27
35.670        20
35.680        13
35.690        13
35.700        27
35.710        33
35.720        13
35.730        27
35.740        13
35.750        40
35.760        13
35.770        27
35.780        27
35.790        13
35.800        47
35.810        27
35.820        20
35.830        20
35.840        33
35.850        40
35.860        20
35.870        20
35.880        27
35.890        27
35.900        20
35.910        53
35.920        20
35.930        20
35.940        33
35.950        20
35.960        27
35.970        33
35.980        33
35.990        33
36.000        27
36.010        13
36.020        33
36.030        67
36.040        33
36.050        33
36.060        40
36.070        33
36.080        20
36.090        20
36.100        20
36.110        20
36.120        13
36.130        20
36.140        33
36.150        27
36.160        27
36.170        33
36.180        47
36.190        27
36.200        27
36.210        20
36.220        27
36.230        13
36.240        40
36.250        13
36.260        53
36.270        47
36.280        27
36.290        33
36.300        80
36.310        27
36.320        13
36.330        47
36.340        13
36.350        27
36.360         7
36.370        33
36.380        33
36.390        27
36.400        27
36.410        33
36.420        33
36.430        20
36.440        20
36.450        47
36.460        33
36.470        33
36.480        47
36.490        13
36.500        27
36.510        20
36.520        13
36.530        27
36.540        20
36.550        33
36.560        20
36.570        27
36.580        20
36.590        20
36.600        13
36.610        33
36.620         0
36.630        40
36.640        13
36.650        20
36.660        20
36.670         7
36.680        33
36.690        27
36.700        40
36.710         0
36.720        20
36.730        27
36.740        33
36.750        60
36.760        27
36.770        27
36.780        27
36.790        33
36.800        40
36.810        27
36.820        13
36.830        40
36.840        60
36.850        73
36.860        20
36.870        40
36.880        20
36.890        27
36.900        33
36.910        27
36.920        47
36.930        47
36.940        27
36.950        33
36.960        27
36.970        20
36.980        40
36.990        27
37.000        20
37.010        20
37.020        33
37.030        47
37.040        27
37.050        13
37.060        27
37.070        27
37.080        40
37.090        53
37.100        40
37.110        27
37.120        33
37.130        27
37.140        27
37.150        13
37.160        13
37.170        40
37.180         7
37.190        27
37.200        20
37.210        33
37.220        47
37.230        27
37.240        27
37.250        27
37.260        13
37.270        20
37.280        33
37.290        20
37.300        13
37.310        40
37.320        20
37.330        27
37.340        13
37.350        27
37.360        27
37.370        13
37.380        20
37.390        13
37.400        33
37.410        33
37.420        40
37.430        20
37.440        27
37.450        13
37.460        20
37.470        40
37.480        13
37.490        40
37.500        27
37.510        27
37.520        27
37.530        27
37.540        27
37.550        27
37.560        27
37.570         7
37.580        13
37.590        33
37.600        20
37.610        20
37.620        27
37.630        20
37.640        40
37.650        40
37.660        13
37.670        27
37.680        20
37.690        13
37.700        20
37.710        33
37.720         7
37.730         0
37.740        13
37.750        20
37.760        20
37.770        27
37.780        13
37.790        47
37.800        33
37.810        33
37.820        40
37.830        20
37.840        20
37.850        47
37.860         7
37.870        33
37.880        40
37.890        27
37.900        40
37.910        33
37.920        20
37.930        13
37.940        20
37.950        40
37.960        40
37.970        33
37.980        27
37.990        33
38.000        27
38.010        20
38.020        47
38.030        73
38.040        27
38.050        53
38.060        20
38.070        33
38.080        27
38.090        27
38.100        53
38.110        53
38.120        13
38.130        20
38.140        27
38.150        47
38.160        40
38.170        53
38.180        40
38.190        33
38.200        40
38.210        20
38.220        33
38.230        27
38.240        20
38.250        60
38.260         7
38.270        27
38.280        47
38.290        40
38.300        20
38.310        47
38.320        67
38.330        33
38.340        20
38.350        20
38.360        33
38.370        53
38.380        33
38.390        13
38.400        53
38.410        27
38.420         0
38.430        20
38.440        53
38.450        27
38.460        33
38.470         0
38.480        27
38.490        20
38.500        27
38.510        20
38.520        33
38.530        33
38.540        40
38.550        13
38.560        33
38.570        60
38.580        20
38.590        33
38.600        20
38.610        20
38.620        20
38.630        47
38.640        27
38.650        60
38.660        20
38.670        20
38.680        33
38.690        33
38.700        40
38.710        13
38.720        60
38.730        20
38.740        53
38.750        33
38.760        40
38.770        47
38.780        13
38.790        40
38.800        13
38.810         7
38.820        20
38.830        20
38.840        20
38.850        67
38.860        20
38.870        27
38.880        13
38.890        20
38.900        33
38.910        33
38.920        40
38.930        53
38.940        27
38.950        27
38.960        40
38.970        27
38.980        13
38.990        33
39.000        13
39.010        27
39.020         7
39.030        27
39.040        13
39.050        13
39.060        20
39.070        33
39.080        47
39.090        27
39.100        13
39.110        27
39.120        33
39.130        40
39.140        20
39.150        40
39.160        27
39.170        67
39.180        40
39.190        40
39.200        20
39.210        40
39.220        33
39.230         7
39.240        27
39.250         0
39.260        20
39.270        20
39.280        40
39.290        20
39.300         7
39.310        20
39.320        33
39.330        33
39.340        13
39.350        27
39.360        27
39.370         7
39.380        20
39.390        27
39.400        27
39.410        20
39.420        27
39.430        13
39.440        33
39.450        13
39.460        27
39.470        20
39.480         7
39.490        20
39.500         0
39.510        33
39.520        20
39.530        13
39.540        27
39.550        13
39.560        27
39.570        13
39.580        13
39.590         7
39.600        27
39.610        20
39.620        13
39.630         0
39.640        20
39.650        20
39.660        33
39.670        13
39.680        27
39.690        20
39.700        13
39.710         7
39.720        33
39.730        20
39.740        33
39.750        20
39.760        33
39.770        20
39.780        27
39.790        27
39.800        13
39.810         7
39.820        13
39.830        13
39.840        20
39.850        20
39.860         7
39.870        40
39.880        27
39.890        40
39.900         7
39.910        20
39.920        27
39.930        40
39.940        20
39.950        33
39.960        13
39.970         7
39.980         0
39.990        27
40.000        33
40.010        27
40.020         7
40.030         7
40.040        13
40.050         7
40.060         7
40.070        13
40.080        20
40.090        33
40.100         0
40.110        20
40.120         7
40.130        20
40.140        33
40.150        20
40.160        20
40.170        20
40.180         0
40.190        53
40.200        27
40.210        33
40.220         0
40.230        13
40.240        13
40.250        27
40.260        33
40.270        20
40.280        27
40.290        27
40.300        13
40.310        20
40.320        27
40.330         7
40.340        27
40.350        13
40.360        20
40.370        20
40.380         0
40.390        13
40.400        13
40.410         7
40.420        27
40.430        13
40.440        13
40.450        20
40.460        13
40.470        20
40.480        20
40.490        20
40.500        27
40.510        27
40.520        13
40.530        13
40.540        20
40.550         7
40.560        33
40.570        20
40.580        27
40.590        20
40.600        20
40.610        47
40.620        33
40.630        27
40.640        27
40.650        33
40.660        13
40.670        27
40.680         7
40.690        20
40.700         0
40.710        27
40.720        27
40.730        20
40.740         7
40.750        33
40.760        33
40.770        20
40.780         7
40.790        53
40.800        13
40.810         0
40.820        13
40.830        33
40.840        13
40.850        53
40.860        40
40.870         0
40.880        13
40.890         0
40.900        33
40.910        27
40.920        27
40.930        20
40.940         7
40.950        13
40.960         7
40.970        13
40.980         7
40.990         7
41.000        27
41.010         0
41.020         7
41.030        27
41.040         0
41.050        33
41.060        20
41.070        20
41.080        27
41.090        20
41.100        27
41.110        33
41.120        27
41.130        27
41.140         7
41.150        20
41.160        20
41.170        33
41.180        20
41.190        27
41.200        13
41.210        27
41.220         7
41.230         7
41.240        27
41.250        33
41.260        27
41.270        53
41.280         7
41.290        20
41.300        20
41.310        20
41.320        40
41.330         7
41.340        27
41.350         7
41.360        20
41.370        20
41.380        33
41.390        13
41.400        20
41.410        33
41.420        20
41.430        27
41.440        27
41.450        13
41.460         7
41.470        20
41.480         7
41.490        47
41.500         7
41.510        20
41.520         0
41.530        13
41.540        47
41.550         7
41.560        27
41.570        27
41.580        40
41.590        13
41.600        40
41.610        20
41.620        13
41.630        27
41.640        27
41.650        47
41.660        33
41.670        73
41.680        53
41.690        47
41.700       127
41.710        47
41.720        53
41.730       107
41.740        47
41.750        67
41.760        60
41.770        80
41.780        73
41.790        47
41.800       100
41.810        27
41.820        40
41.830        40
41.840        33
41.850        40
41.860        40
41.870        20
41.880        53
41.890        13
41.900        13
41.910        13
41.920        20
41.930        20
41.940        27
41.950        27
41.960        20
41.970        13
41.980        47
41.990        13
42.000        13
42.010         0
42.020        33
42.030        20
42.040        13
42.050         0
42.060        20
42.070        13
42.080         7
42.090        33
42.100        20
42.110        40
42.120        20
42.130        27
42.140         7
42.150        47
42.160        27
42.170        13
42.180        20
42.190        27
42.200        33
42.210        33
42.220        20
42.230        20
42.240        13
42.250        33
42.260         7
42.270        40
42.280         7
42.290        20
42.300        27
42.310        27
42.320        20
42.330        47
42.340        27
42.350        13
42.360        13
42.370        13
42.380         7
42.390         7
42.400         7
42.410        27
42.420        20
42.430        13
42.440        27
42.450        40
42.460        20
42.470        33
42.480        33
42.490        20
42.500        33
42.510        13
42.520        20
42.530        33
42.540         7
42.550        33
42.560        20
42.570         7
42.580        13
42.590         7
42.600        20
42.610        20
42.620        20
42.630        40
42.640        27
42.650        53
42.660         0
42.670         0
42.680         7
42.690         0
42.700        13
42.710        33
42.720        27
42.730        20
42.740        13
42.750        13
42.760         0
42.770         7
42.780        33
42.790        47
42.800        33
42.810        20
42.820        40
42.830        47
42.840        20
42.850        40
42.860        40
42.870        13
42.880        33
42.890        13
42.900        27
42.910        20
42.920        33
42.930         7
42.940         0
42.950        33
42.960        47
42.970        13
42.980        13
42.990        40
43.000        33
43.010        27
43.020        33
43.030        33
43.040        20
43.050        13
43.060        40
43.070        27
43.080        27
43.090        47
43.100        47
43.110        33
43.120         0
43.130        13
43.140        20
43.150        47
43.160        13
43.170        13
43.180        27
43.190        33
43.200        33
43.210        27
43.220        40
43.230        47
43.240        13
43.250        20
43.260        20
43.270        13
43.280        33
43.290        47
43.300        33
43.310        13
43.320         7
43.330        40
43.340        13
43.350        27
43.360        20
43.370        33
43.380        67
43.390        47
43.400        33
43.410        40
43.420        40
43.430        13
43.440        33
43.450        27
43.460        20
43.470        20
43.480        40
43.490        13
43.500         7
43.510        27
43.520         7
43.530        27
43.540        20
43.550        40
43.560        40
43.570         7
43.580        20
43.590        20
43.600        27
43.610         7
43.620        33
43.630        33
43.640        20
43.650         7
43.660        13
43.670        33
43.680        33
43.690        40
43.700        13
43.710        60
43.720        27
43.730         7
43.740        27
43.750         0
43.760        27
43.770        20
43.780        33
43.790        27
43.800         7
43.810        40
43.820        27
43.830        53
43.840         7
43.850        27
43.860        27
43.870        20
43.880        20
43.890        33
43.900        13
43.910        33
43.920        20
43.930        13
43.940        40
43.950         7
43.960        27
43.970        33
43.980        20
43.990        20
44.000        13
44.010        33
44.020        13
44.030        40
44.040        47
44.050        27
44.060        40
44.070         7
44.080        40
44.090        20
44.100        20
44.110        33
44.120         7
44.130        20
44.140        20
44.150        27
44.160        33
44.170        27
44.180        20
44.190         7
44.200        47
44.210        27
44.220         7
44.230        33
44.240        40
44.250        33
44.260        40
44.270         7
44.280        20
44.290        33
44.300        40
44.310        33
44.320        13
44.330        13
44.340        27
44.350        33
44.360        60
44.370        20
44.380        20
44.390        13
44.400        33
44.410        33
44.420        27
44.430        20
44.440        13
44.450        13
44.460        13
44.470        27
44.480         0
44.490        40
44.500        13
44.510        33
44.520         7
44.530        20
44.540        33
44.550        40
44.560         7
44.570        33
44.580        13
44.590        20
44.600        40
44.610        40
44.620        27
44.630        27
44.640        40
44.650        40
44.660         7
44.670        27
44.680        27
44.690        13
44.700        20
44.710        20
44.720        33
44.730         7
44.740        27
44.750         7
44.760         7
44.770        33
44.780        20
44.790        13
44.800        13
44.810        27
44.820        40
44.830        33
44.840        13
44.850        13
44.860        13
44.870        20
44.880        33
44.890        13
44.900        27
44.910         7
44.920        20
44.930        13
44.940         0
44.950         7
44.960        20
44.970        27
44.980        20
44.990        13
45.000        13
45.010         7
45.020        27
45.030        27
45.040        13
45.050        33
45.060        20
45.070         0
45.080         7
45.090        20
45.100        33
45.110        13
45.120        40
45.130         7
45.140         7
45.150        27
45.160         0
45.170         7
45.180        13
45.190         7
45.200        20
45.210         7
45.220         7
45.230        13
45.240        20
45.250        33
45.260        47
45.270        20
45.280        13
45.290        13
45.300        27
45.310        20
45.320        33
45.330        13
45.340        40
45.350        27
45.360        40
45.370        20
45.380         0
45.390        20
45.400        20
45.410        27
45.420        20
45.430        20
45.440        13
45.450         7
45.460         7
45.470        20
45.480         7
45.490        13
45.500         7
45.510        33
45.520        13
45.530         7
45.540        27
45.550        27
45.560        13
45.570        13
45.580        40
45.590        20
45.600        20
45.610        13
45.620        20
45.630        13
45.640        20
45.650        20
45.660        13
45.670        13
45.680        33
45.690        27
45.700         7
45.710        20
45.720        13
45.730         7
45.740        27
45.750        27
45.760         7
45.770        27
45.780        13
45.790        20
45.800        20
45.810        27
45.820        53
45.830         0
45.840        27
45.850         0
45.860         0
45.870        33
45.880        13
45.890        20
45.900        13
45.910        27
45.920        13
45.930         0
45.940        20
45.950         7
45.960         0
45.970        27
45.980        13
45.990         7
46.000        27
46.010         7
46.020        33
46.030        13
46.040        13
46.050        13
46.060        20
46.070         7
46.080         7
46.090        27
46.100        20
46.110         7
46.120         7
46.130         7
46.140        27
46.150         7
46.160         7
46.170        13
46.180        13
46.190        13
46.200         7
46.210        13
46.220         7
46.230        13
46.240         7
46.250        27
46.260        27
46.270        33
46.280         7
46.290         7
46.300        27
46.310        47
46.320        13
46.330         7
46.340        27
46.350        20
46.360        27
46.370        27
46.380        47
46.390        13
46.400        20
46.410        27
46.420         0
46.430        20
46.440        13
46.450         7
46.460        20
46.470        27
46.480        33
46.490         0
46.500        20
46.510        13
46.520        27
46.530        13
46.540        13
46.550        27
46.560        13
46.570        33
46.580         7
46.590        40
46.600        33
46.610        33
46.620         7
46.630        27
46.640         0
46.650         7
46.660        27
46.670         7
46.680        20
46.690        33
46.700        13
46.710         0
46.720        20
46.730        13
46.740         7
46.750        13
46.760         7
46.770        13
46.780        33
46.790         7
46.800        27
46.810         7
46.820        33
46.830        13
46.840         7
46.850        13
46.860        13
46.870        20
46.880        27
46.890         7
46.900         0
46.910        13
46.920         0
46.930         7
46.940        13
46.950        27
46.960        40
46.970        20
46.980        40
46.990         7
47.000        20
47.010        33
47.020        40
47.030         7
47.040         7
47.050        33
47.060         0
47.070        20
47.080        13
47.090         7
47.100         7
47.110        27
47.120        13
47.130         7
47.140        33
47.150         7
47.160         7
47.170        13
47.180        20
47.190        13
47.200        13
47.210         7
47.220        13
47.230        27
47.240         7
47.250        27
47.260        20
47.270        13
47.280        20
47.290         7
47.300        13
47.310        20
47.320        20
47.330        13
47.340        20
47.350        33
47.360        33
47.370        13
47.380         7
47.390        53
47.400        40
47.410        13
47.420        40
47.430        33
47.440        13
47.450         7
47.460        20
47.470        33
47.480        13
47.490        33
47.500         7
47.510        33
47.520        40
47.530        27
47.540        13
47.550        13
47.560        20
47.570        13
47.580         0
47.590        27
47.600        47
47.610        13
47.620        13
47.630        20
47.640        27
47.650        33
47.660        20
47.670         7
47.680        13
47.690        20
47.700        13
47.710        33
47.720         0
47.730        33
47.740        33
47.750        13
47.760         0
47.770         7
47.780        20
47.790        33
47.800        20
47.810        13
47.820         0
47.830         7
47.840        20
47.850        20
47.860        20
47.870        13
47.880        40
47.890         7
47.900        13
47.910        47
47.920        20
47.930        13
47.940        40
47.950        20
47.960        20
47.970        27
47.980        20
47.990        27
48.000         0
48.010         7
48.020        13
48.030        13
48.040        20
48.050         7
48.060         7
48.070        27
48.080        33
48.090         7
48.100        13
48.110        20
48.120         0
48.130        20
48.140        27
48.150        20
48.160         7
48.170         0
48.180         0
48.190         7
48.200         7
48.210        27
48.220        20
48.230        27
48.240         7
48.250        20
48.260        33
48.270        13
48.280        13
48.290        13
48.300         7
48.310        13
48.320        13
48.330        20
48.340        20
48.350         0
48.360        20
48.370        13
48.380         7
48.390        33
48.400        13
48.410        20
48.420        27
48.430         0
48.440        13
48.450        20
48.460        20
48.470        27
48.480        13
48.490        20
48.500        20
48.510        27
48.520        20
48.530        20
48.540        20
48.550         7
48.560        33
48.570        13
48.580        13
48.590         0
48.600        27
48.610        27
48.620         7
48.630        27
48.640        27
48.650        20
48.660        13
48.670         7
48.680        47
48.690        20
48.700        20
48.710         7
48.720         0
48.730        20
48.740        20
48.750        33
48.760        13
48.770        13
48.780        27
48.790        20
48.800        13
48.810         7
48.820         7
48.830         7
48.840         7
48.850         7
48.860        13
48.870        13
48.880        13
48.890        40
48.900        33
48.910        13
48.920        13
48.930        20
48.940        13
48.950        47
48.960         7
48.970        27
48.980        40
48.990        13
49.000         0
49.010         7
49.020        13
49.030        13
49.040         7
49.050        27
49.060        13
49.070         7
49.080        13
49.090        33
49.100        13
49.110        33
49.120        40
49.130        27
49.140         7
49.150        20
49.160        13
49.170        13
49.180        13
49.190         7
49.200        13
49.210        20
49.220        20
49.230         0
49.240         7
49.250         7
49.260        13
49.270         7
49.280        20
49.290         7
49.300        13
49.310        20
49.320        13
49.330        13
49.340         7
49.350         7
49.360        20
49.370        20
49.380         7
49.390        20
49.400        20
49.410        13
49.420        20
49.430        27
49.440        13
49.450        20
49.460        13
49.470         7
49.480        27
49.490        27
49.500        13
49.510        33
49.520        13
49.530        13
49.540        13
49.550         7
49.560         7
49.570        27
49.580        13
49.590        27
49.600         7
49.610        20
49.620        13
49.630        20
49.640         7
49.650         7
49.660        13
49.670        27
49.680         0
49.690        13
49.700        13
49.710        20
49.720        13
49.730        13
49.740         7
49.750        27
49.760         7
49.770        20
49.780        33
49.790        13
49.800         0
49.810        27
49.820        40
49.830        20
49.840        13
49.850        53
49.860        27
49.870        13
49.880        20
49.890         0
49.900        27
49.910        20
49.920        13
49.930        27
49.940        20
49.950        33
49.960        27
49.970        20
49.980        20
49.990         7
50.000        20
50.010        27
50.020        40
50.030         7
50.040        20
50.050        13
50.060        40
50.070        20
50.080        33
50.090        13
50.100        27
50.110         7
50.120        20
50.130        20
50.140        13
50.150        33
50.160        20
50.170        13
50.180        20
50.190         7
50.200        20
50.210        20
50.220        20
50.230        33
50.240        13
50.250         7
50.260        20
50.270        13
50.280        13
50.290        13
50.300        13
50.310        33
50.320        20
50.330        20
50.340        20
50.350        27
50.360         7
50.370        27
50.380         7
50.390         7
50.400        13
50.410         0
50.420         7
50.430        13
50.440        40
50.450         7
50.460        27
50.470        33
50.480        47
50.490         7
50.500        27
50.510         7
50.520        27
50.530         7
50.540         7
50.550         0
50.560        20
50.570         0
50.580        27
50.590         7
50.600        13
50.610        33
50.620        13
50.630        20
50.640        20
50.650        27
50.660        13
50.670        13
50.680        13
50.690         7
50.700        27
50.710         7
50.720        20
50.730         0
50.740        33
50.750         0
50.760        20
50.770        13
50.780        13
50.790         7
50.800        20
50.810        13
50.820        27
50.830        13
50.840         7
50.850         7
50.860         0
50.870        13
50.880        33
50.890         7
50.900         7
50.910        20
50.920         7
50.930        13
50.940         7
50.950        20
50.960        27
50.970         0
50.980        20
50.990        33
51.000        20
51.010        13
51.020        20
51.030        27
51.040         7
51.050        20
51.060        13
51.070        20
51.080        13
51.090        27
51.100        13
51.110        13
51.120        13
51.130        27
51.140         7
51.150        13
51.160        13
51.170        40
51.180        27
51.190         7
51.200         7
51.210        20
51.220        20
51.230        13
51.240         7
51.250        27
51.260        20
51.270        33
51.280        13
51.290        20
51.300        13
51.310        20
51.320         0
51.330        27
51.340        13
51.350         0
51.360        27
51.370        13
51.380         0
51.390         0
51.400        27
51.410        33
51.420        20
51.430         0
51.440        20
51.450        47
51.460        20
51.470        13
51.480         7
51.490         7
51.500        13
51.510        13
51.520        20
51.530        13
51.540         7
51.550        27
51.560         7
51.570        13
51.580        13
51.590        20
51.600        27
51.610        33
51.620        33
51.630        27
51.640        27
51.650        20
51.660         7
51.670         0
51.680        27
51.690         0
51.700         7
51.710        33
51.720        27
51.730        20
51.740        13
51.750        20
51.760         7
51.770        27
51.780        13
51.790         7
51.800        27
51.810        20
51.820        13
51.830        13
51.840         0
51.850         7
51.860         0
51.870        27
51.880        20
51.890        13
51.900        20
51.910        20
51.920        13
51.930        27
51.940        20
51.950        33
51.960        13
51.970         0
51.980        13
51.990        33
52.000         0
52.010        33
52.020        13
52.030        33
52.040        27
52.050        20
52.060         0
52.070        27
52.080        13
52.090         7
52.100         7
52.110        40
52.120         0
52.130        13
52.140         7
52.150        13
52.160         0
52.170        27
52.180        27
52.190         7
52.200        27
52.210        20
52.220        20
52.230         7
52.240         7
52.250        13
52.260        20
52.270         7
52.280        13
52.290         7
52.300        27
52.310        13
52.320        13
52.330        13
52.340        47
52.350         7
52.360        13
52.370        13
52.380        27
52.390         0
52.400        20
52.410        20
52.420        20
52.430         0
52.440        13
52.450         7
52.460        20
52.470         0
52.480        40
52.490        27
52.500        20
52.510        27
52.520        27
52.530        20
52.540         7
52.550        27
52.560        20
52.570        27
52.580        27
52.590        20
52.600         7
52.610        27
52.620        13
52.630        20
52.640        20
52.650        20
52.660         7
52.670        27
52.680        13
52.690        13
52.700         7
52.710        33
52.720        27
52.730        20
52.740        27
52.750        20
52.760        20
52.770        47
52.780        20
52.790         7
52.800        20
52.810        13
52.820        20
52.830        20
52.840        27
52.850         7
52.860         0
52.870         0
52.880        27
52.890        27
52.900        13
52.910         0
52.920        13
52.930         7
52.940        13
52.950        20
52.960         0
52.970        20
52.980         7
52.990        33
53.000        20
53.010        13
53.020         7
53.030         7
53.040        13
53.050        27
53.060        13
53.070        27
53.080        27
53.090        13
53.100        27
53.110        33
53.120         7
53.130        33
53.140        13
53.150         7
53.160        13
53.170         0
53.180        20
53.190        20
53.200        13
53.210         7
53.220        20
53.230         0
53.240        20
53.250        33
53.260        27
53.270        20
53.280        27
53.290        13
53.300         7
53.310        20
53.320        27
53.330         0
53.340        13
53.350        20
53.360        33
53.370         7
53.380        13
53.390        40
53.400         7
53.410        20
53.420        27
53.430        33
53.440        13
53.450        27
53.460        33
53.470        13
53.480        40
53.490        13
53.500        20
53.510         7
53.520        33
53.530        20
53.540        27
53.550         7
53.560         7
53.570        13
53.580        27
53.590        33
53.600         0
53.610        27
53.620        13
53.630         7
53.640        27
53.650        27
53.660         0
53.670        20
53.680        13
53.690        20
53.700        13
53.710        20
53.720        20
53.730        13
53.740         7
53.750         0
53.760        40
53.770         0
53.780        13
53.790        20
53.800         7
53.810         7
53.820         7
53.830        27
53.840        13
53.850        13
53.860        33
53.870        13
53.880        13
53.890        33
53.900        13
53.910        13
53.920        27
53.930        27
53.940        67
53.950        13
53.960        13
53.970        20
53.980        13
53.990         0
54.000         0
54.010         7
54.020        13
54.030        33
54.040        47
54.050        40
54.060         7
54.070         7
54.080         0
54.090        13
54.100        27
54.110        27
54.120        20
54.130        33
54.140        13
54.150        13
54.160        20
54.170         7
54.180         0
54.190        33
54.200        33
54.210        27
54.220        20
54.230        13
54.240         7
54.250        20
54.260        20
54.270        20
54.280        13
54.290        27
54.300         7
54.310         7
54.320        20
54.330        20
54.340        27
54.350        20
54.360         7
54.370         7
54.380        13
54.390         7
54.400         7
54.410        13
54.420        13
54.430        20
54.440        27
54.450        20
54.460        20
54.470         0
54.480        27
54.490         0
54.500        27
54.510         7
54.520         7
54.530        13
54.540         7
54.550         7
54.560        20
54.570         0
54.580        27
54.590        20
54.600        40
54.610        20
54.620        20
54.630        33
54.640         7
54.650         7
54.660         7
54.670        20
54.680        27
54.690        27
54.700        20
54.710        13
54.720        40
54.730         7
54.740        27
54.750        20
54.760        33
54.770        27
54.780        13
54.790        20
54.800        33
54.810        40
54.820        13
54.830        13
54.840        40
54.850        27
54.860        33
54.870        80
54.880        33
54.890        60
54.900        27
54.910        33
54.920        20
54.930        60
54.940        60
54.950        67
54.960        47
54.970        53
54.980       120
54.990        67
55.000       127
55.010       100
55.020        60
55.030        53
55.040        87
55.050        87
55.060       147
55.070       113
55.080       173
55.090       113
55.100       100
55.110       113
55.120        80
55.130       147
55.140        93
55.150       127
55.160       100
55.170        60
55.180       107
55.190        80
55.200        87
55.210        40
55.220        93
55.230        73
55.240         7
55.250        60
55.260        80
55.270        60
55.280        53
55.290        67
55.300        47
55.310        53
55.320        53
55.330        53
55.340        33
55.350        53
55.360        27
55.370        53
55.380         7
55.390        33
55.400        33
55.410        27
55.420        47
55.430        20
55.440         7
55.450        27
55.460        20
55.470        20
55.480        27
55.490        33
55.500        33
55.510        13
55.520        13
55.530        13
55.540         0
55.550        20
55.560        13
55.570        13
55.580        13
55.590        13
55.600        13
55.610        20
55.620         7
55.630         7
55.640        40
55.650        40
55.660        20
55.670         7
55.680         7
55.690        20
55.700        20
55.710        27
55.720        27
55.730        20
55.740        13
55.750        33
55.760         0
55.770         7
55.780        33
55.790        13
55.800         7
55.810         0
55.820         7
55.830        20
55.840        20
55.850         7
55.860        13
55.870        13
55.880         7
55.890        20
55.900        27
55.910         0
55.920         0
55.930        20
55.940        20
55.950        20
55.960        27
55.970        13
55.980        13
55.990        20
56.000         7
56.010        13
56.020         7
56.030        13
56.040        33
56.050         7
56.060         7
56.070        27
56.080        13
56.090        13
56.100        13
56.110        13
56.120        13
56.130         0
56.140         0
56.150        13
56.160        13
56.170        20
56.180        33
56.190        40
56.200        20
56.210        20
56.220         7
56.230        20
56.240        27
56.250         0
56.260        20
56.270        13
56.280         7
56.290         0
56.300        13
56.310         0
56.320        13
56.330        20
56.340        13
56.350         7
56.360        13
56.370        27
56.380         0
56.390        27
56.400         7
56.410        13
56.420        13
56.430        27
56.440        13
56.450        20
56.460        20
56.470        13
56.480        40
56.490        20
56.500         0
56.510         7
56.520        13
56.530         7
56.540        13
56.550         7
56.560         7
56.570        13
56.580        20
56.590        13
56.600        13
56.610        27
56.620        13
56.630        20
56.640        20
56.650        13
56.660         7
56.670        27
56.680         0
56.690        27
56.700         7
56.710        27
56.720        13
56.730        13
56.740         7
56.750        13
56.760        27
56.770         7
56.780        20
56.790        27
56.800         0
56.810        20
56.820        20
56.830        20
56.840        40
56.850        27
56.860         7
56.870        13
56.880        27
56.890         0
56.900        13
56.910         7
56.920         0
56.930        20
56.940        13
56.950         7
56.960        13
56.970        47
56.980        13
56.990        27
57.000        20
57.010        13
57.020         7
57.030        20
57.040         7
57.050        13
57.060         7
57.070         7
57.080         7
57.090        20
57.100         0
57.110         7
57.120         0
57.130         7
57.140        13
57.150        13
57.160        27
57.170         7
57.180        20
57.190        13
57.200        13
57.210         0
57.220         0
57.230        13
57.240         7
57.250        27
57.260        13
57.270        40
57.280        20
57.290        40
57.300        20
57.310        20
57.320        20
57.330        20
57.340         7
57.350        27
57.360        13
57.370        20
57.380        20
57.390        27
57.400         0
57.410         7
57.420        20
57.430        27
57.440        13
57.450        13
57.460        13
57.470        27
57.480         0
57.490        27
57.500        53
57.510        27
57.520        47
57.530        60
57.540        20
57.550        33
57.560        40
57.570        40
57.580         7
57.590        27
57.600        20
57.610        33
57.620         7
57.630        40
57.640        13
57.650        13
57.660        33
57.670        33
57.680        33
57.690        47
57.700        40
57.710        33
57.720        40
57.730         7
57.740        20
57.750        40
57.760         7
57.770         7
57.780         7
57.790        27
57.800         0
57.810        13
57.820        20
57.830        27
57.840        20
57.850        13
57.860        13
57.870         7
57.880         7
57.890        13
57.900        27
57.910         7
57.920         7
57.930         7
57.940         0
57.950        13
57.960        13
57.970        20
57.980        13
57.990        27
58.000        20
58.010        20
58.020         7
58.030         0
58.040         7
58.050        27
58.060        13
58.070        13
58.080        20
58.090        33
58.100         7
58.110         7
58.120        13
58.130         0
58.140        20
58.150         7
58.160         7
58.170         7
58.180        13
58.190         7
58.200        27
58.210         7
58.220         7
58.230        20
58.240         7
58.250        13
58.260         7
58.270        20
58.280        20
58.290         7
58.300         7
58.310         0
58.320         0
58.330        13
58.340        13
58.350         7
58.360        20
58.370        40
58.380         0
58.390        20
58.400        13
58.410         0
58.420        20
58.430        27
58.440        20
58.450         0
58.460        13
58.470        13
58.480        20
58.490        20
58.500         7
58.510        20
58.520         7
58.530         7
58.540        20
58.550         7
58.560        40
58.570        27
58.580        27
58.590        13
58.600        13
58.610        13
58.620        13
58.630        27
58.640        33
58.650        13
58.660        13
58.670        13
58.680        13
58.690         0
58.700         0
58.710         7
58.720        13
58.730        27
58.740        20
58.750         7
58.760        20
58.770         7
58.780        20
58.790         7
58.800        27
58.810        13
58.820        13
58.830        13
58.840         7
58.850         7
58.860        20
58.870        20
58.880        27
58.890        27
58.900         0
58.910        20
58.920        20
58.930        13
58.940         7
58.950        13
58.960         0
58.970        20
58.980         7
58.990         7
59.000        20
59.010        13
59.020         7
59.030         0
59.040        20
59.050        27
59.060         7
59.070         7
59.080         0
59.090        20
59.100         7
59.110         7
59.120         7
59.130         7
59.140         0
59.150         7
59.160        13
59.170        33
59.180         7
59.190         7
59.200         7
59.210         7
59.220        40
59.230        40
59.240         7
59.250        27
59.260        13
59.270        13
59.280        20
59.290        40
59.300        27
59.310         0
59.320        27
59.330         0
59.340        13
59.350         7
59.360         7
59.370        33
59.380        20
59.390         7
59.400        13
59.410        13
59.420         7
59.430        13
59.440         7
59.450        13
59.460        13
59.470         7
59.480         7
59.490        13
59.500        27
59.510         0
59.520        33
59.530         7
59.540        13
59.550         7
59.560        20
59.570         7
59.580         7
59.590         0
59.600        20
59.610        33
59.620         7
59.630        13
59.640        47
59.650        27
59.660         7
59.670        13
59.680        13
59.690         0
59.700        33
59.710         7
59.720        20
59.730         0
59.740        13
59.750         0
59.760         7
59.770         0
59.780        13
59.790         7
59.800        13
59.810        27
59.820        20
59.830         7
59.840         7
59.850        13
59.860        27
59.870        20
59.880         7
59.890         0
59.900        20
59.910        13
59.920        13
59.930        13
59.940         7
59.950        13
59.960        20
59.970        13
59.980        13
59.990         7
60.000         7
