20.000         0
20.010         0
20.020        60
20.030        47
20.040         7
20.050        33
20.060        20
20.070        60
20.080        40
20.090        60
20.100        40
20.110        53
20.120        33
20.130        47
20.140        47
20.150         7
20.160        27
20.170        40
20.180        53
20.190        53
20.200        33
20.210        40
20.220        13
20.230        27
20.240        33
20.250        53
20.260        33
20.270        27
20.280        47
20.290        40
20.300        40
20.310        33
20.320        47
20.330        27
20.340        47
20.350        67
20.360        40
20.370        47
20.380        53
20.390        47
20.400        40
20.410        33
20.420        27
20.430        33
20.440        20
20.450        40
20.460        53
20.470        53
20.480        33
20.490        47
20.500        13
20.510        27
20.520        60
20.530         7
20.540        33
20.550        33
20.560        47
20.570        40
20.580        40
20.590        33
20.600        67
20.610        33
20.620        47
20.630        67
20.640        47
20.650        60
20.660        53
20.670        33
20.680        20
20.690        40
20.700        40
20.710        53
20.720        47
20.730        27
20.740        60
20.750        47
20.760        33
20.770        20
20.780        33
20.790        33
20.800        27
20.810        33
20.820        60
20.830        47
20.840        40
20.850        33
20.860        27
20.870        20
20.880        20
20.890        20
20.900        27
20.910        60
20.920        47
20.930        47
20.940        67
20.950        33
20.960        40
20.970         7
20.980        67
20.990        33
21.000        13
21.010        20
21.020        53
21.030        40
21.040        33
21.050        27
21.060        40
21.070        27
21.080        60
21.090        40
21.100        20
21.110        33
21.120        33
21.130        27
21.140        47
21.150        20
21.160        67
21.170        53
21.180        47
21.190        47
21.200        40
21.210        47
21.220        53
21.230        40
21.240        47
21.250        60
21.260        60
21.270        27
21.280        13
21.290        60
21.300        53
21.310        20
21.320        53
21.330        27
21.340        40
21.350        60
21.360        33
21.370        20
21.380        60
21.390        33
21.400        33
21.410        40
21.420        20
21.430        47
21.440        27
21.450        40
21.460        33
21.470        27
21.480        40
21.490        53
21.500        60
21.510        60
21.520        53
21.530        33
21.540        20
21.550        53
21.560        33
21.570        33
21.580        53
21.590        40
21.600        27
21.610        27
21.620        60
21.630        73
21.640        53
21.650        47
21.660        40
21.670        47
21.680        47
21.690        53
21.700        13
21.710        27
21.720        47
21.730        13
21.740        60
21.750        53
21.760        73
21.770        33
21.780        27
21.790        47
21.800        33
21.810        27
21.820        47
21.830        47
21.840        47
21.850        47
21.860        47
21.870        47
21.880        33
21.890        60
21.900        20
21.910        20
21.920        40
21.930        47
21.940        20
21.950        13
21.960        33
21.970        47
21.980        27
21.990        40
22.000        40
22.010        20
22.020        53
22.030        27
22.040        53
22.050        53
22.060        40
22.070        27
22.080        87
22.090        47
22.100        40
22.110        47
22.120        53
22.130        27
22.140        20
22.150        80
22.160        40
22.170        60
22.180         7
22.190        53
22.200        33
22.210        13
22.220        73
22.230        67
22.240        33
22.250        33
22.260        47
22.270        33
22.280        53
22.290        33
22.300        60
22.310        13
22.320        40
22.330        20
22.340        47
22.350        40
22.360        20
22.370        47
22.380        47
22.390        40
22.400        33
22.410        20
22.420        53
22.430        40
22.440        40
22.450        27
22.460        27
22.470        33
22.480        27
22.490        27
22.500        27
22.510        13
22.520        20
22.530        67
22.540        33
22.550        73
22.560        60
22.570        40
22.580        73
22.590        40
22.600        20
22.610        13
22.620         7
22.630        47
22.640        20
22.650        40
22.660        27
22.670        13
22.680        47
22.690        60
22.700        60
22.710        27
22.720        20
22.730        40
22.740        27
22.750        20
22.760        33
22.770        47
22.780        33
22.790        20
22.800        13
22.810        73
22.820        40
22.830        33
22.840        60
22.850        40
22.860        53
22.870        27
22.880        27
22.890        20
22.900        33
22.910        33
22.920        60
22.930        40
22.940        53
22.950        20
22.960        60
22.970        40
22.980        13
22.990        67
23.000        33
23.010        33
23.020        27
23.030        80
23.040        53
23.050        20
23.060        33
23.070        27
23.080        27
23.090        40
23.100        80
23.110        33
23.120        40
23.130        47
23.140        27
23.150        33
23.160        27
23.170        40
23.180        40
23.190        33
23.200        53
23.210        33
23.220        40
23.230        27
23.240        53
23.250        20
23.260        47
23.270        47
23.280        27
23.290        20
23.300         7
23.310        53
23.320        33
23.330        47
23.340        27
23.350        20
23.360        60
23.370        33
23.380        33
23.390        20
23.400        27
23.410        47
23.420        27
23.430        33
23.440        67
23.450        27
23.460        47
23.470        33
23.480        47
23.490        33
23.500        40
23.510        40
23.520        13
23.530        20
23.540        40
23.550        27
23.560        33
23.570        40
23.580        20
23.590        33
23.600        33
23.610         7
23.620        47
23.630        20
23.640        53
23.650        33
23.660        20
23.670        33
23.680        27
23.690        33
23.700        27
23.710        33
23.720        33
23.730        53
23.740        33
23.750        40
23.760        27
23.770        20
23.780        53
23.790        47
23.800        13
23.810        33
23.820        13
23.830        20
23.840        27
23.850        20
23.860        20
23.870        40
23.880        33
23.890        27
23.900        20
23.910        33
23.920        53
23.930        20
23.940        27
23.950        20
23.960        20
23.970        33
23.980        40
23.990        33
24.000        73
24.010        47
24.020        47
24.030        40
24.040        27
24.050        33
24.060        27
24.070        33
24.080        40
24.090        27
24.100        20
24.110        33
24.120        27
24.130        47
24.140        53
24.150         7
24.160        13
24.170        60
24.180        27
24.190        33
24.200        27
24.210        20
24.220        20
24.230        27
24.240        27
24.250        20
24.260        33
24.270        20
24.280        20
24.290        27
24.300        33
24.310        47
24.320        27
24.330        67
24.340        27
24.350        93
24.360        20
24.370        53
24.380        33
24.390        40
24.400        20
24.410        20
24.420         0
24.430        20
24.440        27
24.450        20
24.460        33
24.470        40
24.480        73
24.490        53
24.500        13
24.510         0
24.520        33
24.530        33
24.540        47
24.550        47
24.560        33
24.570        47
24.580        13
24.590        40
24.600        27
24.610        33
24.620        27
24.630        40
24.640        20
24.650        20
24.660        40
24.670        53
24.680        20
24.690        13
24.700        33
24.710        20
24.720        27
24.730        67
24.740        33
24.750        20
24.760        33
24.770        20
24.780        33
24.790         7
24.800        13
24.810        33
24.820         7
24.830        40
24.840        40
24.850        20
24.860        20
24.870        33
24.880        40
24.890        27
24.900        27
24.910        27
24.920        13
24.930        20
24.940        33
24.950        13
24.960        47
24.970        27
24.980        53
24.990        20
25.000        47
25.010        27
25.020        53
25.030        40
25.040        20
25.050        27
25.060        40
25.070        20
25.080        13
25.090        27
25.100        20
25.110        67
25.120        33
25.130        27
25.140        27
25.150        13
25.160        20
25.170        33
25.180        47
25.190        40
25.200        33
25.210        20
25.220        13
25.230        20
25.240        13
25.250        20
25.260        40
25.270        67
25.280        27
25.290        20
25.300        20
25.310        60
25.320        33
25.330        27
25.340         0
25.350        27
25.360        20
25.370        33
25.380        33
25.390        67
25.400        67
25.410        27
25.420        13
25.430        53
25.440        13
25.450        33
25.460        27
25.470        20
25.480         7
25.490        33
25.500        20
25.510        27
25.520        33
25.530        60
25.540        27
25.550        20
25.560        20
25.570        20
25.580        27
25.590        47
25.600        53
25.610        40
25.620        40
25.630        33
25.640        40
25.650         0
25.660        40
25.670        27
25.680        20
25.690        13
25.700        27
25.710        47
25.720        33
25.730         7
25.740        20
25.750        27
25.760        40
25.770        13
25.780        27
25.790        13
25.800        53
25.810         0
25.820        20
25.830        33
25.840        33
25.850        13
25.860        20
25.870        33
25.880        33
25.890        20
25.900        33
25.910        27
25.920         7
25.930        47
25.940         7
25.950        53
25.960        13
25.970        27
25.980        27
25.990        67
26.000        20
26.010        47
26.020         7
26.030         0
26.040        33
26.050        13
26.060        27
26.070        33
26.080         0
26.090        27
26.100         7
26.110         7
26.120        47
26.130        33
26.140        33
26.150        60
26.160        13
26.170        47
26.180        27
26.190        33
26.200        27
26.210        13
26.220        20
26.230        33
26.240        33
26.250        27
26.260        27
26.270        13
26.280        53
26.290         7
26.300        47
26.310        47
26.320        20
26.330        20
26.340        13
26.350        47
26.360        33
26.370        27
26.380        47
26.390        33
26.400        13
26.410         0
26.420        33
26.430        53
26.440        27
26.450        27
26.460        13
26.470        20
26.480        47
26.490        40
26.500        20
26.510        33
26.520        27
26.530        20
26.540        33
26.550        27
26.560        67
26.570        20
26.580        20
26.590        13
26.600        27
26.610        20
26.620        27
26.630         7
26.640         7
26.650        27
26.660        47
26.670        33
26.680        40
26.690        33
26.700        13
26.710        27
26.720        47
26.730        13
26.740        27
26.750        27
26.760        27
26.770        53
26.780        53
26.790        20
26.800        47
26.810        53
26.820         7
26.830        47
26.840        33
26.850        40
26.860        13
26.870        40
26.880        27
26.890        20
26.900        27
26.910        20
26.920        13
26.930        40
26.940        13
26.950        33
26.960        20
26.970        20
26.980        13
26.990        47
27.000        13
27.010        33
27.020        27
27.030        47
27.040        40
27.050        20
27.060        47
27.070        47
27.080        27
27.090        13
27.100        13
27.110        20
27.120        13
27.130        27
27.140         7
27.150        27
27.160        27
27.170        27
27.180        33
27.190        47
27.200        47
27.210        33
27.220        27
27.230        60
27.240        33
27.250        27
27.260        13
27.270        13
27.280        33
27.290        47
27.300        40
27.310        27
27.320        20
27.330        20
27.340        40
27.350        20
27.360        20
27.370        27
27.380        40
27.390        20
27.400        13
27.410        20
27.420        60
27.430        40
27.440        27
27.450         7
27.460        67
27.470         7
27.480        20
27.490         7
27.500        33
27.510        27
27.520        47
27.530        33
27.540        20
27.550        53
27.560        53
27.570        20
27.580        40
27.590         7
27.600        27
27.610        33
27.620        33
27.630        33
27.640        27
27.650        13
27.660        20
27.670        13
27.680        27
27.690        13
27.700        33
27.710        20
27.720        27
27.730        13
27.740        33
27.750        27
27.760         0
27.770        60
27.780        13
27.790        33
27.800        40
27.810        33
27.820        40
27.830        20
27.840        33
27.850        47
27.860        53
27.870        40
27.880        73
27.890        33
27.900        20
27.910        60
27.920        33
27.930        20
27.940        47
27.950        60
27.960        20
27.970        27
27.980        47
27.990        47
28.000        20
28.010        67
28.020        20
28.030        33
28.040        33
28.050        40
28.060        20
28.070        13
28.080        20
28.090        27
28.100        33
28.110        33
28.120        33
28.130        33
28.140        27
28.150        40
28.160        33
28.170        20
28.180        13
28.190        20
28.200        47
28.210        20
28.220        20
28.230        40
28.240        27
28.250        20
28.260        27
28.270        40
28.280        33
28.290        27
28.300        27
28.310        33
28.320         0
28.330        40
28.340        20
28.350        20
28.360        33
28.370        27
28.380         7
28.390        33
28.400        53
28.410        20
28.420        20
28.430        40
28.440        13
28.450        47
28.460        20
28.470        20
28.480        27
28.490        27
28.500        13
28.510        33
28.520        13
28.530        20
28.540        33
28.550        13
28.560         0
28.570        20
28.580         7
28.590         7
28.600        20
28.610        40
28.620        33
28.630        27
28.640        20
28.650         7
28.660        13
28.670        27
28.680        33
28.690        13
28.700        33
28.710        27
28.720        27
28.730        53
28.740        27
28.750         7
28.760        53
28.770        33
28.780        33
28.790        27
28.800        20
28.810        33
28.820         7
28.830        47
28.840        40
28.850        33
28.860        20
28.870        40
28.880         7
28.890        47
28.900        33
28.910        13
28.920        20
28.930        33
28.940        33
28.950        47
28.960        27
28.970        27
28.980        53
28.990        40
29.000        20
29.010        20
29.020        47
29.030        13
29.040        40
29.050        27
29.060        40
29.070        67
29.080        27
29.090        27
29.100        33
29.110        40
29.120        27
29.130        20
29.140        33
29.150        20
29.160        20
29.170         7
29.180        20
29.190        33
29.200        53
29.210         7
29.220        40
29.230        20
29.240        20
29.250        33
29.260        27
29.270         7
29.280        27
29.290        47
29.300        20
29.310        40
29.320        27
29.330        20
29.340        13
29.350        27
29.360        20
29.370        20
29.380        27
29.390        20
29.400        47
29.410        13
29.420        40
29.430        33
29.440        27
29.450        40
29.460        27
29.470        13
29.480        33
29.490        33
29.500        27
29.510        40
29.520        33
29.530        40
29.540         7
29.550        33
29.560        60
29.570        13
29.580        33
29.590        13
29.600        27
29.610        20
29.620        47
29.630        20
29.640        67
29.650         0
29.660        27
29.670        27
29.680        33
29.690        47
29.700        20
29.710        27
29.720        33
29.730        27
29.740        33
29.750        40
29.760        13
29.770        13
29.780        27
29.790        33
29.800        47
29.810        53
29.820        20
29.830        27
29.840        40
29.850        47
29.860        33
29.870        27
29.880        33
29.890        53
29.900        47
29.910        60
29.920        47
29.930        53
29.940        40
29.950        60
29.960        33
29.970        27
29.980        53
29.990        53
30.000        27
30.010         7
30.020        33
30.030        47
30.040        40
30.050        33
30.060         7
30.070        53
30.080        53
30.090        13
30.100        13
30.110        47
30.120        47
30.130        33
30.140        27
30.150         7
30.160        40
30.170        40
30.180        53
30.190        47
30.200        73
30.210        40
30.220        27
30.230        67
30.240        13
30.250        67
30.260        47
30.270        60
30.280        60
30.290        53
30.300        53
30.310        40
30.320        20
30.330        73
30.340        53
30.350        53
30.360        27
30.370        27
30.380        67
30.390        60
30.400        33
30.410        40
30.420        40
30.430        73
30.440        47
30.450        40
30.460        60
30.470        27
30.480        53
30.490        60
30.500        60
30.510        60
30.520        67
30.530       107
30.540        73
30.550        73
30.560        80
30.570        53
30.580        53
30.590       113
30.600        47
30.610       100
30.620        47
30.630        80
30.640       107
30.650       120
30.660        60
30.670       140
30.680       107
30.690       127
30.700       120
30.710       167
30.720       200
30.730       200
30.740       253
30.750       193
30.760       227
30.770       293
30.780       426
30.790       426
30.800       486
30.810       506
30.820       620
30.830       753
30.840       873
30.850       986
30.860      1033
30.870      1213
30.880      1353
30.890      1593
30.900      1806
30.910      2186
30.920      2512
30.930      2999
30.940      3325
30.950      3459
30.960      3645
30.970      3739
30.980      3705
30.990      3938
31.000      3659
31.010      3252
31.020      3339
31.030      2806
31.040      2925
31.050      2759
31.060      2312
31.070      1933
31.080      1859
31.090      1619
31.100      1359
31.110       986
31.120       860
31.130       733
31.140       566
31.150       486
31.160       413
31.170       320
31.180       260
31.190       267
31.200       220
31.210       147
31.220       160
31.230       140
31.240        87
31.250        60
31.260        67
31.270       100
31.280        53
31.290       107
31.300       127
31.310       100
31.320        33
31.330        93
31.340       120
31.350        53
31.360        87
31.370        27
31.380       100
31.390        47
31.400        67
31.410        73
31.420        40
31.430        73
31.440        67
31.450       100
31.460        47
31.470        40
31.480        60
31.490        27
31.500        93
31.510        60
31.520        53
31.530        60
31.540        33
31.550        53
31.560        40
31.570        53
31.580        87
31.590        60
31.600        60
31.610        53
31.620        47
31.630        47
31.640        27
31.650        47
31.660        40
31.670        60
31.680        53
31.690        27
31.700        20
31.710        47
31.720        20
31.730        53
31.740        40
31.750        20
31.760        27
31.770        60
31.780        33
31.790        47
31.800        33
31.810        60
31.820        40
31.830        13
31.840        47
31.850        47
31.860        60
31.870        40
31.880         7
31.890        27
31.900        27
31.910        80
31.920        33
31.930        67
31.940        27
31.950        20
31.960        60
31.970        27
31.980        53
31.990        20
32.000        40
32.010        27
32.020        20
32.030        27
32.040        33
32.050        40
32.060        40
32.070        20
32.080        27
32.090        20
32.100        53
32.110        40
32.120        40
32.130        33
32.140        60
32.150        20
32.160        33
32.170        60
32.180        40
32.190        33
32.200        27
32.210        53
32.220        27
32.230        67
32.240        33
32.250        53
32.260        33
32.270        20
32.280        20
32.290        40
32.300        33
32.310        53
32.320        27
32.330        33
32.340        33
32.350        13
32.360        40
32.370        40
32.380        27
32.390        33
32.400        40
32.410        60
32.420        27
32.430        27
32.440        27
32.450        60
32.460        33
32.470        33
32.480        40
32.490        13
32.500        40
32.510        60
32.520        40
32.530        40
32.540        33
32.550         7
32.560        13
32.570        33
32.580        40
32.590        40
32.600        27
32.610        20
32.620        27
32.630        40
32.640        27
32.650        40
32.660        67
32.670        53
32.680        40
32.690        13
32.700        47
32.710        40
32.720        53
32.730        47
32.740        40
32.750        20
32.760        27
32.770        40
32.780        33
32.790        27
32.800        13
32.810        13
32.820        20
32.830        27
32.840        40
32.850        33
32.860        33
32.870        33
32.880        27
32.890        27
32.900        33
32.910        13
32.920        67
32.930        20
32.940        33
32.950         7
32.960        13
32.970        13
32.980        27
32.990        13
33.000        27
33.010        27
33.020        53
33.030        33
33.040        27
33.050        20
33.060        13
33.070        40
33.080        13
33.090        27
33.100        47
33.110        60
33.120        33
33.130        13
33.140        13
33.150        33
33.160        27
33.170        40
33.180        33
33.190        33
33.200        27
33.210         7
33.220        27
33.230        20
33.240        40
33.250        40
33.260        13
33.270         7
33.280        13
33.290        20
33.300        27
33.310        53
33.320        40
33.330        33
33.340        13
33.350        40
33.360        40
33.370        67
33.380        33
33.390        33
33.400        53
33.410        20
33.420        20
33.430        27
33.440        13
33.450        33
33.460        60
33.470        13
33.480        20
33.490        20
33.500        20
33.510        27
33.520        47
33.530        27
33.540        33
33.550        27
33.560        47
33.570        20
33.580        53
33.590         7
33.600        27
33.610        40
33.620        33
33.630        13
33.640        27
33.650        40
33.660        20
33.670        13
33.680        33
33.690        33
33.700        20
33.710        33
33.720        33
33.730        40
33.740        53
33.750        47
33.760         0
33.770        33
33.780        33
33.790        27
33.800        20
33.810         7
33.820        40
33.830        27
33.840        20
33.850        27
33.860        20
33.870        20
33.880        47
33.890        53
33.900        33
33.910        33
33.920        27
33.930        27
33.940        20
33.950        60
33.960        47
33.970        40
33.980        27
33.990        20
34.000        20
34.010        20
34.020        40
34.030        27
34.040         7
34.050        40
34.060        27
34.070        53
34.080        47
34.090        20
34.100        27
34.110        27
34.120        33
34.130        47
34.140        33
34.150        20
34.160        40
34.170        13
34.180        27
34.190        13
34.200        13
34.210        27
34.220        20
34.230        33
34.240        33
34.250        40
34.260        20
34.270        27
34.280        13
34.290        13
34.300         0
34.310        13
34.320        33
34.330        13
34.340        60
34.350        27
34.360        27
34.370        53
34.380        13
34.390        40
34.400        13
34.410        60
34.420        20
34.430        13
34.440        40
34.450        33
34.460        20
34.470        53
34.480        27
34.490        13
34.500        13
34.510        27
34.520        27
34.530        27
34.540        20
34.550        20
34.560        60
34.570        40
34.580        20
34.590        33
34.600        20
34.610        20
34.620         7
34.630        20
34.640        20
34.650         7
34.660        40
34.670        60
34.680        40
34.690        33
34.700        47
34.710        13
34.720        27
34.730        20
34.740        13
34.750        33
34.760         7
34.770        33
34.780        20
34.790        47
34.800        33
34.810        13
34.820         0
34.830         7
34.840        27
34.850        13
34.860        33
34.870        33
34.880        53
34.890        33
34.900        33
34.910        27
34.920        20
34.930        20
34.940        27
34.950        13
34.960        20
34.970        20
34.980        13
34.990        27
35.000        13
35.010        27
35.020         7
35.030        40
35.040         0
35.050        40
35.060        13
35.070         0
35.080        47
35.090        27
35.100        53
35.110        60
35.120        27
35.130        47
35.140        80
35.150       107
35.160        53
35.170        73
35.180        80
35.190        80
35.200        60
35.210        80
35.220        60
35.230        60
35.240        80
35.250        67
35.260        53
35.270        53
35.280        67
35.290        47
35.300        53
35.310        73
35.320        47
35.330        33
35.340        13
35.350        13
35.360        33
35.370        53
35.380        33
35.390        27
35.400        20
35.410        27
35.420        33
35.430        13
35.440        27
35.450        33
35.460        20
35.470         7
35.480         7
35.490        13
35.500        20
35.510        60
35.520        33
35.530        27
35.540        33
35.550        27
35.560        33
35.570        20
35.580        13
35.590        33
35.600        13
35.610        27
35.620        27
35.630         7
35.640        27
35.650        33
35.660        33
35.670         7
35.680        27
35.690        20
35.700        27
35.710        13
35.720         7
35.730        40
35.740        33
35.750        27
35.760         7
35.770        13
35.780        13
35.790        20
35.800        13
35.810         7
35.820         0
35.830        27
35.840        13
35.850        33
35.860        53
35.870        27
35.880        47
35.890        20
35.900        13
35.910        20
35.920         7
35.930        27
35.940        13
35.950        20
35.960        27
35.970        40
35.980        13
35.990        20
36.000        27
36.010        20
36.020         7
36.030        27
36.040        20
36.050        13
36.060        13
36.070        40
36.080         7
36.090        13
36.100        27
36.110        27
36.120        13
36.130        33
36.140        33
36.150        40
36.160        20
36.170        47
36.180        13
36.190         0
36.200        27
36.210         7
36.220        13
36.230        60
36.240        27
36.250        13
36.260         7
36.270        20
36.280        13
36.290         7
36.300        20
36.310        27
36.320        40
36.330        27
36.340        20
36.350         0
36.360        13
36.370        20
36.380        40
36.390        40
36.400        20
36.410         7
36.420        47
36.430        27
36.440        27
36.450         7
36.460        33
36.470        13
36.480        13
36.490        27
36.500        13
36.510        13
36.520         7
36.530        20
36.540        33
36.550         0
36.560        33
36.570        27
36.580         7
36.590        33
36.600        20
36.610        33
36.620        33
36.630        27
36.640        13
36.650        27
36.660         0
36.670        13
36.680        27
36.690        27
36.700        27
36.710         7
36.720        40
36.730        33
36.740        13
36.750        27
36.760        27
36.770        27
36.780        27
36.790         0
36.800         7
36.810        27
36.820        40
36.830        27
36.840        20
36.850        33
36.860        27
36.870         7
36.880        27
36.890        20
36.900        20
36.910        20
36.920         7
36.930        13
36.940         7
36.950        13
36.960        33
36.970        13
36.980        40
36.990        33
37.000        13
37.010         7
37.020         7
37.030        13
37.040        20
37.050        40
37.060         0
37.070        27
37.080        20
37.090         0
37.100        47
37.110        40
37.120        33
37.130        13
37.140        20
37.150         7
37.160        13
37.170         7
37.180        33
37.190        13
37.200        20
37.210        13
37.220        20
37.230        13
37.240        33
37.250        13
37.260        27
37.270        20
37.280        20
37.290        20
37.300        33
37.310        20
37.320         0
37.330        13
37.340        33
37.350         7
37.360         7
37.370        13
37.380         0
37.390        13
37.400        27
37.410         7
37.420        27
37.430        40
37.440         7
37.450        33
37.460        33
37.470        27
37.480        33
37.490         7
37.500        33
37.510        40
37.520        33
37.530        27
37.540        40
37.550        13
37.560        20
37.570        20
37.580        20
37.590        27
37.600        47
37.610         7
37.620        27
37.630        20
37.640        27
37.650        47
37.660        27
37.670        20
37.680        47
37.690         7
37.700        47
37.710         0
37.720         7
37.730         7
37.740        33
37.750        20
37.760        33
37.770        47
37.780        20
37.790         7
37.800        13
37.810        33
37.820        13
37.830        13
37.840        33
37.850        27
37.860        20
37.870        53
37.880        20
37.890        13
37.900        47
37.910        33
37.920        40
37.930        40
37.940        53
37.950        27
37.960        80
37.970        27
37.980        47
37.990        40
38.000        40
38.010        47
38.020        40
38.030        47
38.040        27
38.050        47
38.060        27
38.070        27
38.080        13
38.090        20
38.100        33
38.110        33
38.120        93
38.130        33
38.140        67
38.150        20
38.160        53
38.170        33
38.180        40
38.190        40
38.200        40
38.210        40
38.220        27
38.230        53
38.240        40
38.250        73
38.260        60
38.270        60
38.280        53
38.290        67
38.300        27
38.310        47
38.320        73
38.330        33
38.340        20
38.350        27
38.360        53
38.370        33
38.380        33
38.390        53
38.400        93
38.410        53
38.420        47
38.430        40
38.440        87
38.450        33
38.460        33
38.470        33
38.480        53
38.490        40
38.500        20
38.510        27
38.520        47
38.530        20
38.540        20
38.550        53
38.560         7
38.570        73
38.580        33
38.590        13
38.600        47
38.610        60
38.620        27
38.630        27
38.640        27
38.650        33
38.660        27
38.670        13
38.680        13
38.690        13
38.700        13
38.710        27
38.720        60
38.730        40
38.740        40
38.750        67
38.760        27
38.770        40
38.780        40
38.790        13
38.800        33
38.810        20
38.820        20
38.830        40
38.840        33
38.850        13
38.860        27
38.870        20
38.880         0
38.890        47
38.900        27
38.910        20
38.920        40
38.930        13
38.940        20
38.950        27
38.960        47
38.970        27
38.980        33
38.990        20
39.000        27
39.010        13
39.020        40
39.030        13
39.040        20
39.050        27
39.060        33
39.070        13
39.080         0
39.090        40
39.100         7
39.110        33
39.120        40
39.130        20
39.140        27
39.150        27
39.160        33
39.170        20
39.180        47
39.190        20
39.200        33
39.210        20
39.220         7
39.230        27
39.240         7
39.250        33
39.260        20
39.270        13
39.280        27
39.290        20
39.300        20
39.310        13
39.320        27
39.330        33
39.340        20
39.350        20
39.360        20
39.370        27
39.380         7
39.390        27
39.400        20
39.410        40
39.420        40
39.430        40
39.440        40
39.450        20
39.460        13
39.470        33
39.480        20
39.490        27
39.500         7
39.510        13
39.520        20
39.530        13
39.540        13
39.550        13
39.560        27
39.570        20
39.580        20
39.590        33
39.600        33
39.610         0
39.620        13
39.630        40
39.640        27
39.650        33
39.660        27
39.670        27
39.680         7
39.690         7
39.700         7
39.710         7
39.720        13
39.730        20
39.740        33
39.750        20
39.760        27
39.770        20
39.780         0
39.790        33
39.800         0
39.810        40
39.820         7
39.830        33
39.840        13
39.850        20
39.860        40
39.870        40
39.880         7
39.890        13
39.900        13
39.910        33
39.920        27
39.930        13
39.940        27
39.950        20
39.960        20
39.970        13
39.980         7
39.990        13
40.000         7
40.010        20
40.020         7
40.030        27
40.040        20
40.050        13
40.060        20
40.070        33
40.080        13
40.090        27
40.100        13
40.110        20
40.120         7
40.130        13
40.140        53
40.150        20
40.160         7
40.170        47
40.180         7
40.190        13
40.200        20
40.210        20
40.220        20
40.230        27
40.240        13
40.250        13
40.260        33
40.270         0
40.280        13
40.290         0
40.300        13
40.310        27
40.320         7
40.330        13
40.340         7
40.350         7
40.360        20
40.370         7
40.380         7
40.390        27
40.400         7
40.410        20
40.420        13
40.430        27
40.440        20
40.450         7
40.460        13
40.470        20
40.480        33
40.490        13
40.500        20
40.510        13
40.520        33
40.530        33
40.540        20
40.550        20
40.560        20
40.570        13
40.580         7
40.590         7
40.600        20
40.610         7
40.620        20
40.630        13
40.640        20
40.650        13
40.660        13
40.670        27
40.680        13
40.690        20
40.700        27
40.710         0
40.720        20
40.730        20
40.740        27
40.750        13
40.760        13
40.770         0
40.780        33
40.790        20
40.800        27
40.810        20
40.820         7
40.830        20
40.840        27
40.850         7
40.860        20
40.870        20
40.880         7
40.890        20
40.900        27
40.910        13
40.920        33
40.930        27
40.940        27
40.950        33
40.960        13
40.970        13
40.980        27
40.990        33
41.000        13
41.010        40
41.020        13
41.030        27
41.040        13
41.050        27
41.060        20
41.070        20
41.080        47
41.090         7
41.100        20
41.110        40
41.120        27
41.130         7
41.140        27
41.150        33
41.160        13
41.170         7
41.180        13
41.190        13
41.200         7
41.210        27
41.220        13
41.230        33
41.240        20
41.250        27
41.260        60
41.270         0
41.280        53
41.290         7
41.300        20
41.310        27
41.320        13
41.330        20
41.340        20
41.350        27
41.360        40
41.370        33
41.380         7
41.390        33
41.400         7
41.410        27
41.420        13
41.430        13
41.440        20
41.450        47
41.460        20
41.470        20
41.480        33
41.490         7
41.500        13
41.510        27
41.520        40
41.530        33
41.540        27
41.550        20
41.560        33
41.570        40
41.580         7
41.590        20
41.600         7
41.610        40
41.620        13
41.630        40
41.640        33
41.650        20
41.660        33
41.670        53
41.680        80
41.690        93
41.700        67
41.710        67
41.720        40
41.730        47
41.740        73
41.750        33
41.760        20
41.770        53
41.780        40
41.790        60
41.800        47
41.810        60
41.820        60
41.830        33
41.840        53
41.850        53
41.860        27
41.870        20
41.880        13
41.890        33
41.900        20
41.910        40
41.920        33
41.930        20
41.940        13
41.950         7
41.960        20
41.970        33
41.980        13
41.990        20
42.000        33
42.010         7
42.020        27
42.030        20
42.040        20
42.050        20
42.060         7
42.070        27
42.080        33
42.090        53
42.100         0
42.110        40
42.120        27
42.130        20
42.140        47
42.150         7
42.160        20
42.170        13
42.180        13
42.190        27
42.200        13
42.210        13
42.220        13
42.230         0
42.240        13
42.250        13
42.260        13
42.270        27
42.280        20
42.290        20
42.300        13
42.310        20
42.320         7
42.330         7
42.340        13
42.350        13
42.360         7
42.370        13
42.380        27
42.390         0
42.400         7
42.410        20
42.420        13
42.430        13
42.440         7
42.450        13
42.460         7
42.470        27
42.480        20
42.490        13
42.500        27
42.510         7
42.520        27
42.530        13
42.540        13
42.550        33
42.560         7
42.570        33
42.580        27
42.590        20
42.600         7
42.610        40
42.620        13
42.630        33
42.640        27
42.650        27
42.660        13
42.670         7
42.680        13
42.690        20
42.700        53
42.710        27
42.720        20
42.730        20
42.740        13
42.750        13
42.760        33
42.770        13
42.780        27
42.790        20
42.800        20
42.810        27
42.820        20
42.830        13
42.840        13
42.850         0
42.860        20
42.870         0
42.880        13
42.890         7
42.900        13
42.910        20
42.920         7
42.930        27
42.940        20
42.950        13
42.960        20
42.970        20
42.980        20
42.990        27
43.000         0
43.010        13
43.020        13
43.030        40
43.040        20
43.050        20
43.060        47
43.070        27
43.080         7
43.090        27
43.100        27
43.110        13
43.120         7
43.130        27
43.140        20
43.150        47
43.160        20
43.170         7
43.180        13
43.190        13
43.200        33
43.210        13
43.220         7
43.230        20
43.240        20
43.250        13
43.260        27
43.270        53
43.280        33
43.290        13
43.300        13
43.310        20
43.320        20
43.330        13
43.340        27
43.350        40
43.360        20
43.370        47
43.380        60
43.390        33
43.400        27
43.410        47
43.420        33
43.430        47
43.440        33
43.450        53
43.460        33
43.470        33
43.480        47
43.490        27
43.500        27
43.510        20
43.520        27
43.530        33
43.540        13
43.550        40
43.560        33
43.570        47
43.580        40
43.590        27
43.600        40
43.610        27
43.620        27
43.630        27
43.640         7
43.650        13
43.660        27
43.670        53
43.680        27
43.690        27
43.700        33
43.710        20
43.720        53
43.730        33
43.740        53
43.750        40
43.760        20
43.770        33
43.780        33
43.790        33
43.800         7
43.810        20
43.820        27
43.830        40
43.840        27
43.850        27
43.860        33
43.870        13
43.880        13
43.890        13
43.900        33
43.910        20
43.920        27
43.930        20
43.940        33
43.950        47
43.960        27
43.970        33
43.980        20
43.990        33
44.000        13
44.010        13
44.020        13
44.030        27
44.040        47
44.050        27
44.060        27
44.070        13
44.080        27
44.090        40
44.100        13
44.110        27
44.120        13
44.130        53
44.140        27
44.150        20
44.160        40
44.170         7
44.180        20
44.190        40
44.200        13
44.210        47
44.220        27
44.230        40
44.240        13
44.250        33
44.260        33
44.270        53
44.280        40
44.290        13
44.300        20
44.310        27
44.320        33
44.330        33
44.340        47
44.350        27
44.360        13
44.370        27
44.380        27
44.390        27
44.400        13
44.410        13
44.420        33
44.430        20
44.440         0
44.450        33
44.460        20
44.470        20
44.480        13
44.490         7
44.500         7
44.510        20
44.520        40
44.530        40
44.540        47
44.550         7
44.560        27
44.570         7
44.580        53
44.590        27
44.600        20
44.610        20
44.620        13
44.630        13
44.640        33
44.650        47
44.660        33
44.670        13
44.680        20
44.690        13
44.700        40
44.710         7
44.720        27
44.730        40
44.740        33
44.750         7
44.760         7
44.770        13
44.780         0
44.790        20
44.800        27
44.810        27
44.820        27
44.830        33
44.840        27
44.850        13
44.860        33
44.870        20
44.880        13
44.890        40
44.900        13
44.910        13
44.920         7
44.930        20
44.940         0
44.950        13
44.960         7
44.970        13
44.980        13
44.990        13
45.000         7
45.010        60
45.020        33
45.030         7
45.040        60
45.050        20
45.060        33
45.070        27
45.080        13
45.090        40
45.100         0
45.110        13
45.120         7
45.130        13
45.140         7
45.150        33
45.160        13
45.170         0
45.180        60
45.190        13
45.200        27
45.210        27
45.220        40
45.230        13
45.240        27
45.250         7
45.260        33
45.270        27
45.280        27
45.290        13
45.300        13
45.310        27
45.320        40
45.330        20
45.340        27
45.350        20
45.360        20
45.370        40
45.380         7
45.390        40
45.400        27
45.410        27
45.420        13
45.430         0
45.440        27
45.450        13
45.460        13
45.470        33
45.480        47
45.490         0
45.500        13
45.510        27
45.520         7
45.530        33
45.540        13
45.550        27
45.560        13
45.570        13
45.580         7
45.590        20
45.600        20
45.610        13
45.620         7
45.630         7
45.640         7
45.650        20
45.660        47
45.670         7
45.680         7
45.690        40
45.700        20
45.710        27
45.720        20
45.730        27
45.740        20
45.750         7
45.760         7
45.770         7
45.780        13
45.790        13
45.800        27
45.810        13
45.820        20
45.830         0
45.840        20
45.850        27
45.860        20
45.870        20
45.880        13
45.890        33
45.900        13
45.910        13
45.920        20
45.930         7
45.940        67
45.950        13
45.960        27
45.970        27
45.980         7
45.990        13
46.000         7
46.010         0
46.020        13
46.030        27
46.040        20
46.050        13
46.060        13
46.070        27
46.080         0
46.090        47
46.100        40
46.110        13
46.120         0
46.130        13
46.140        13
46.150        13
46.160         7
46.170        20
46.180         7
46.190        13
46.200        20
46.210        20
46.220        20
46.230        20
46.240         7
46.250         7
46.260        20
46.270        33
46.280        13
46.290         7
46.300        13
46.310        20
46.320         7
46.330        33
46.340        27
46.350         0
46.360         7
46.370        13
46.380        20
46.390        27
46.400        33
46.410         7
46.420        13
46.430        20
46.440        20
46.450        33
46.460        13
46.470        20
46.480        27
46.490        13
46.500        13
46.510        20
46.520        13
46.530        33
46.540         7
46.550         7
46.560        20
46.570        20
46.580        13
46.590        20
46.600        13
46.610        33
46.620        27
46.630         0
46.640        20
46.650        13
46.660        27
46.670        20
46.680        20
46.690         0
46.700         0
46.710         0
46.720         7
46.730         7
46.740        33
46.750        20
46.760        27
46.770        27
46.780         7
46.790        13
46.800         7
46.810        13
46.820        27
46.830        33
46.840        33
46.850         7
46.860         7
46.870        20
46.880         0
46.890         7
46.900        13
46.910        20
46.920        13
46.930        27
46.940        20
46.950        13
46.960        13
46.970        20
46.980        20
46.990        27
47.000         0
47.010         7
47.020        33
47.030         0
47.040        13
47.050        27
47.060        40
47.070        13
47.080        33
47.090         7
47.100        27
47.110        13
47.120        27
47.130         0
47.140        20
47.150        13
47.160        13
47.170        20
47.180        27
47.190         7
47.200        20
47.210        47
47.220        13
47.230        13
47.240        13
47.250        13
47.260        20
47.270        40
47.280         7
47.290         7
47.300        20
47.310        47
47.320        27
47.330         7
47.340        20
47.350        33
47.360        27
47.370        13
47.380        13
47.390        33
47.400         7
47.410        13
47.420        20
47.430        47
47.440        20
47.450        20
47.460        27
47.470        27
47.480        47
47.490        13
47.500        27
47.510        27
47.520        13
47.530         7
47.540        27
47.550        27
47.560        53
47.570        20
47.580        20
47.590         7
47.600        13
47.610        20
47.620         7
47.630         7
47.640        40
47.650        40
47.660        13
47.670        20
47.680         7
47.690        27
47.700         7
47.710        13
47.720        27
47.730         0
47.740        27
47.750        20
47.760        33
47.770        33
47.780        20
47.790        20
47.800         7
47.810        40
47.820        20
47.830         7
47.840        33
47.850        20
47.860        33
47.870        27
47.880        20
47.890         7
47.900         0
47.910        13
47.920        33
47.930         7
47.940        40
47.950        20
47.960        33
47.970        33
47.980        33
47.990         7
48.000        20
48.010        20
48.020         7
48.030        33
48.040        20
48.050        20
48.060        13
48.070        20
48.080         0
48.090         0
48.100        13
48.110         0
48.120        47
48.130         7
48.140        13
48.150        27
48.160         7
48.170        27
48.180         7
48.190        13
48.200        33
48.210        20
48.220        20
48.230        13
48.240        13
48.250        27
48.260        20
48.270        27
48.280        33
48.290         7
48.300        20
48.310        27
48.320        20
48.330        20
48.340        13
48.350        20
48.360        13
48.370         0
48.380        20
48.390        13
48.400        20
48.410        33
48.420        13
48.430        27
48.440         7
48.450        47
48.460        27
48.470        13
48.480         7
48.490        33
48.500        20
48.510        20
48.520         7
48.530        40
48.540        27
48.550        33
48.560        13
48.570        13
48.580        27
48.590        13
48.600         7
48.610        13
48.620        33
48.630        13
48.640        27
48.650         7
48.660        13
48.670        13
48.680         7
48.690        13
48.700        47
48.710        40
48.720         7
48.730        20
48.740         7
48.750        27
48.760         7
48.770        33
48.780        33
48.790         7
48.800         7
48.810        33
48.820        20
48.830        27
48.840         7
48.850         7
48.860        20
48.870         7
48.880         7
48.890        33
48.900        27
48.910         7
48.920         0
48.930         0
48.940        20
48.950        27
48.960         7
48.970        20
48.980         7
48.990        20
49.000         0
49.010         0
49.020        20
49.030         7
49.040        33
49.050        33
49.060        40
49.070        13
49.080        13
49.090         0
49.100        20
49.110         7
49.120        40
49.130        27
49.140         0
49.150        27
49.160        53
49.170        33
49.180        27
49.190        20
49.200        27
49.210         7
49.220        13
49.230        13
49.240         7
49.250         7
49.260        13
49.270         7
49.280         7
49.290        27
49.300        20
49.310         7
49.320        13
49.330        27
49.340         0
49.350        33
49.360        13
49.370        13
49.380        13
49.390        13
49.400        20
49.410        13
49.420        20
49.430         0
49.440         0
49.450        20
49.460         7
49.470        13
49.480         7
49.490        27
49.500        13
49.510        13
49.520         7
49.530        27
49.540        27
49.550        27
49.560        40
49.570        13
49.580        13
49.590        20
49.600         7
49.610         0
49.620         0
49.630        13
49.640        33
49.650        27
49.660         7
49.670        27
49.680        13
49.690        27
49.700        13
49.710        13
49.720        20
49.730        20
49.740         7
49.750         7
49.760         0
49.770        27
49.780        13
49.790        13
49.800         7
49.810        33
49.820         7
49.830        27
49.840         7
49.850        20
49.860        27
49.870        13
49.880         7
49.890        20
49.900        27
49.910         0
49.920        20
49.930        13
49.940        27
49.950         7
49.960         7
49.970        27
49.980        20
49.990        13
50.000        20
50.010         0
50.020        20
50.030        27
50.040        33
50.050        13
50.060        20
50.070        13
50.080        40
50.090         0
50.100        20
50.110        20
50.120        20
50.130        33
50.140        20
50.150        20
50.160        20
50.170        27
50.180        13
50.190        27
50.200        13
50.210         0
50.220        20
50.230        13
50.240         7
50.250        33
50.260        20
50.270         7
50.280        20
50.290        27
50.300        20
50.310        13
50.320        27
50.330         7
50.340        33
50.350        20
50.360        27
50.370        20
50.380        13
50.390        33
50.400        40
50.410        13
50.420         7
50.430        53
50.440        13
50.450        20
50.460         0
50.470         0
50.480        27
50.490         0
50.500        27
50.510        20
50.520        20
50.530        20
50.540         0
50.550         7
50.560        20
50.570        20
50.580        27
50.590        13
50.600        13
50.610        20
50.620        13
50.630         7
50.640         0
50.650        20
50.660        27
50.670         7
50.680         7
50.690         7
50.700         7
50.710         7
50.720        13
50.730        27
50.740        20
50.750         7
50.760         0
50.770        20
50.780         7
50.790         0
50.800        27
50.810        27
50.820         7
50.830        27
50.840         7
50.850        13
50.860        20
50.870        40
50.880         7
50.890         0
50.900         7
50.910        20
50.920        47
50.930        13
50.940         7
50.950        13
50.960        13
50.970         0
50.980        20
50.990         0
51.000        20
51.010        27
51.020         0
51.030        20
51.040         7
51.050        27
51.060        20
51.070        20
51.080         0
51.090        27
51.100        27
51.110         0
51.120         7
51.130        13
51.140        20
51.150        40
51.160        27
51.170        13
51.180         7
51.190        13
51.200        13
51.210        40
51.220         7
51.230        27
51.240        20
51.250        20
51.260        13
51.270        40
51.280         7
51.290         7
51.300        13
51.310        20
51.320        20
51.330         0
51.340        40
51.350         7
51.360        27
51.370        27
51.380        33
51.390         7
51.400         0
51.410        13
51.420        27
51.430        20
51.440        20
51.450         0
51.460        27
51.470        13
51.480        20
51.490        20
51.500         0
51.510         7
51.520         7
51.530        13
51.540         7
51.550        27
51.560         7
51.570         7
51.580        20
51.590        20
51.600         7
51.610         7
51.620         7
51.630        27
51.640        13
51.650        20
51.660        20
51.670         7
51.680        20
51.690        20
51.700        20
51.710        27
51.720        33
51.730         7
51.740        33
51.750         0
51.760        13
51.770        33
51.780        13
51.790        27
51.800         0
51.810         0
51.820        20
51.830         7
51.840        27
51.850        20
51.860        33
51.870        20
51.880        13
51.890        13
51.900         0
51.910        20
51.920         7
51.930        27
51.940        13
51.950        33
51.960        27
51.970        13
51.980         0
51.990        27
52.000        27
52.010        40
52.020        27
52.030         7
52.040         0
52.050         7
52.060        20
52.070        13
52.080        20
52.090        13
52.100        27
52.110        13
52.120        13
52.130         0
52.140        27
52.150        27
52.160         7
52.170         7
52.180         7
52.190        13
52.200        20
52.210         7
52.220        13
52.230        20
52.240        33
52.250         7
52.260        27
52.270        13
52.280        20
52.290         0
52.300        33
52.310        67
52.320        20
52.330        13
52.340        20
52.350         7
52.360        20
52.370         7
52.380         7
52.390         7
52.400        13
52.410         7
52.420        33
52.430        20
52.440         7
52.450        20
52.460         7
52.470         7
52.480        20
52.490        13
52.500        13
52.510        20
52.520        20
52.530        27
52.540        40
52.550        33
52.560        27
52.570        20
52.580        67
52.590        93
52.600        60
52.610       107
52.620        67
52.630       127
52.640        80
52.650        67
52.660        27
52.670        20
52.680        27
52.690        20
52.700        80
52.710        40
52.720        33
52.730        20
52.740        33
52.750        40
52.760        40
52.770        33
52.780        33
52.790        73
52.800        33
52.810        27
52.820        27
52.830        60
52.840         7
52.850        27
52.860        13
52.870         7
52.880        33
52.890         0
52.900        20
52.910         7
52.920        13
52.930        27
52.940         7
52.950        13
52.960        20
52.970        13
52.980         7
52.990        27
53.000        13
53.010        20
53.020         7
53.030        13
53.040        13
53.050         0
53.060        33
53.070        20
53.080        20
53.090        13
53.100        20
53.110        13
53.120        20
53.130        20
53.140        13
53.150        27
53.160        47
53.170        20
53.180        13
53.190         7
53.200         7
53.210        20
53.220         7
53.230        27
53.240        20
53.250        20
53.260        27
53.270        27
53.280         7
53.290         7
53.300        27
53.310        20
53.320        27
53.330        13
53.340         7
53.350        27
53.360        13
53.370         0
53.380        33
53.390         7
53.400        20
53.410         7
53.420        13
53.430        13
53.440        33
53.450        13
53.460         0
53.470        20
53.480         0
53.490        27
53.500        13
53.510        13
53.520        20
53.530         7
53.540        47
53.550         7
53.560        13
53.570        20
53.580         0
53.590         7
53.600        13
53.610         7
53.620        27
53.630        13
53.640        13
53.650        13
53.660         0
53.670         7
53.680        13
53.690        27
53.700        20
53.710        33
53.720         7
53.730        13
53.740        27
53.750        13
53.760        20
53.770         7
53.780        13
53.790        20
53.800        27
53.810        13
53.820        13
53.830         7
53.840        20
53.850         7
53.860         7
53.870        20
53.880        13
53.890        20
53.900        20
53.910         0
53.920        33
53.930        40
53.940        33
53.950        33
53.960        13
53.970         7
53.980         7
53.990         0
54.000         7
54.010        13
54.020        13
54.030         7
54.040        20
54.050         7
54.060        33
54.070         7
54.080        20
54.090        27
54.100         7
54.110        13
54.120         7
54.130        40
54.140        20
54.150         7
54.160        13
54.170        27
54.180        20
54.190        13
54.200        27
54.210         0
54.220        13
54.230         7
54.240        47
54.250        13
54.260         7
54.270        33
54.280        20
54.290        13
54.300         7
54.310        33
54.320        27
54.330        27
54.340        27
54.350         7
54.360        20
54.370        27
54.380         7
54.390        27
54.400         0
54.410        27
54.420        20
54.430        20
54.440        13
54.450        20
54.460        13
54.470        13
54.480        13
54.490        27
54.500         7
54.510        20
54.520         0
54.530        27
54.540        27
54.550         7
54.560         7
54.570        27
54.580        20
54.590        33
54.600         0
54.610         0
54.620        27
54.630        13
54.640        33
54.650        20
54.660        13
54.670        33
54.680         7
54.690         7
54.700         0
54.710        13
54.720        13
54.730        27
54.740         7
54.750        47
54.760        13
54.770        27
54.780         7
54.790        27
54.800         7
54.810        33
54.820        20
54.830        20
54.840         7
54.850        13
54.860         7
54.870        40
54.880        27
54.890         0
54.900        33
54.910        27
54.920        60
54.930        27
54.940        13
54.950        27
54.960        40
54.970        67
54.980        40
54.990        40
55.000        67
55.010        40
55.020        80
55.030       100
55.040       113
55.050        53
55.060       153
55.070       120
55.080        73
55.090       140
55.100       180
55.110       113
55.120       127
55.130        87
55.140       153
55.150        80
55.160       133
55.170       120
55.180       100
55.190       127
55.200       147
55.210       113
55.220       113
55.230       120
55.240        60
55.250       120
55.260       127
55.270        53
55.280       147
55.290       107
55.300        73
55.310        67
55.320        67
55.330       107
55.340        87
55.350        60
55.360        60
55.370        53
55.380        53
55.390        47
55.400        40
55.410        33
55.420        47
55.430        60
55.440        47
55.450        33
55.460        33
55.470        20
55.480        47
55.490        40
55.500        20
55.510         7
55.520        13
55.530        27
55.540        27
55.550        27
55.560        33
55.570         7
55.580        13
55.590        13
55.600        20
55.610        20
55.620        13
55.630        33
55.640        20
55.650        27
55.660        20
55.670         7
55.680        27
55.690        33
55.700        13
55.710        27
55.720        20
55.730        20
55.740        20
55.750        13
55.760         7
55.770        20
55.780         7
55.790        27
55.800        20
55.810         7
55.820         7
55.830        20
55.840         7
55.850        40
55.860         7
55.870        33
55.880        27
55.890        20
55.900        27
55.910         7
55.920         7
55.930        13
55.940        13
55.950        20
55.960         7
55.970        13
55.980        13
55.990        20
56.000        13
56.010        33
56.020        20
56.030        13
56.040         7
56.050        27
56.060         7
56.070         7
56.080        13
56.090        20
56.100         7
56.110         7
56.120         7
56.130        40
56.140        20
56.150        13
56.160        20
56.170         7
56.180        13
56.190        20
56.200        27
56.210         0
56.220         7
56.230        13
56.240        40
56.250        27
56.260        13
56.270        13
56.280        13
56.290        33
56.300        27
56.310        27
56.320        13
56.330        13
56.340         7
56.350        27
56.360        13
56.370        13
56.380        20
56.390        13
56.400         7
56.410         7
56.420        13
56.430         7
56.440         0
56.450        13
56.460         7
56.470        13
56.480         7
56.490        33
56.500        13
56.510        13
56.520         7
56.530        20
56.540         7
56.550         7
56.560        27
56.570        13
56.580         7
56.590         7
56.600        20
56.610         7
56.620         7
56.630         0
56.640        13
56.650        33
56.660         7
56.670        20
56.680        13
56.690        13
56.700         7
56.710        13
56.720        13
56.730        27
56.740        13
56.750         0
56.760         7
56.770        20
56.780        20
56.790        20
56.800        13
56.810        13
56.820         0
56.830        20
56.840        20
56.850         0
56.860         7
56.870        33
56.880         7
56.890         7
56.900        13
56.910         7
56.920         0
56.930         7
56.940         0
56.950        13
56.960        20
56.970        20
56.980         7
56.990        20
57.000         0
57.010        13
57.020         7
57.030        20
57.040         7
57.050        20
57.060        27
57.070         0
57.080         0
57.090        20
57.100        27
57.110        13
57.120        13
57.130        20
57.140        33
57.150        13
57.160         0
57.170        33
57.180        33
57.190         7
57.200        20
57.210        13
57.220        20
57.230        27
57.240        20
57.250        40
57.260        20
57.270        13
57.280        13
57.290        13
57.300        40
57.310         7
57.320        13
57.330         7
57.340        27
57.350        33
57.360        20
57.370        27
57.380        13
57.390         7
57.400        27
57.410        20
57.420         7
57.430        60
57.440        27
57.450        27
57.460         7
57.470        27
57.480        13
57.490        33
57.500        20
57.510        47
57.520        53
57.530        47
57.540        67
57.550        40
57.560        87
57.570        67
57.580        67
57.590        40
57.600        40
57.610        20
57.620        33
57.630        27
57.640        40
57.650        20
57.660        27
57.670        60
57.680        20
57.690        13
57.700        47
57.710        13
57.720        40
57.730        33
57.740        53
57.750        13
57.760        40
57.770         7
57.780        13
57.790        13
57.800        13
57.810         7
57.820        13
57.830        13
57.840         0
57.850        33
57.860        33
57.870        13
57.880        13
57.890         7
57.900        27
57.910        27
57.920         7
57.930         7
57.940        13
57.950        20
57.960         0
57.970         7
57.980        20
57.990        20
58.000         7
58.010         7
58.020         7
58.030         7
58.040        40
58.050         7
58.060        20
58.070        40
58.080        13
58.090        33
58.100        13
58.110        13
58.120        13
58.130        33
58.140         7
58.150         7
58.160        13
58.170        20
58.180         0
58.190        13
58.200        13
58.210        40
58.220        20
58.230        13
58.240        20
58.250        27
58.260         7
58.270         0
58.280         7
58.290        13
58.300        20
58.310        20
58.320        13
58.330        47
58.340         7
58.350        33
58.360         7
58.370        13
58.380         0
58.390         0
58.400         7
58.410         0
58.420        13
58.430         7
58.440         7
58.450        20
58.460        20
58.470        20
58.480        20
58.490        27
58.500         7
58.510         7
58.520        13
58.530        20
58.540         7
58.550        13
58.560        13
58.570         7
58.580         7
58.590         7
58.600        27
58.610        20
58.620        40
58.630         7
58.640         0
58.650         7
58.660         0
58.670        20
58.680         7
58.690        20
58.700         7
58.710         7
58.720        13
58.730         7
58.740        20
58.750        27
58.760        13
58.770        20
58.780         7
58.790        40
58.800        13
58.810        20
58.820        13
58.830         7
58.840        13
58.850        13
58.860        13
58.870         7
58.880        20
58.890        20
58.900         0
58.910         7
58.920        27
58.930         7
58.940        33
58.950         7
58.960        13
58.970        13
58.980        33
58.990        20
59.000        13
59.010        40
59.020         7
59.030        13
59.040        13
59.050         7
59.060        13
59.070        20
59.080        13
59.090        40
59.100         7
59.110        27
59.120        27
59.130         7
59.140        20
59.150        20
59.160         7
59.170        13
59.180        27
59.190         0
59.200        13
59.210        27
59.220        40
59.230        20
59.240        40
59.250         7
59.260        13
59.270        20
59.280        33
59.290         7
59.300        20
59.310         7
59.320         7
59.330         7
59.340         0
59.350        20
59.360         7
59.370        20
59.380        13
59.390        13
59.400         7
59.410         7
59.420        27
59.430         7
59.440        27
59.450        27
59.460         0
59.470         0
59.480        27
59.490        20
59.500        20
59.510        20
59.520        20
59.530         7
59.540         7
59.550        13
59.560         0
59.570        33
59.580         0
59.590        20
59.600        33
59.610        13
59.620        27
59.630         0
59.640        20
59.650        20
59.660        13
59.670        13
59.680         0
59.690         7
59.700        33
59.710         0
59.720         7
59.730        27
59.740         0
59.750        13
59.760         7
59.770        13
59.780         7
59.790         0
59.800        13
59.810         0
59.820        13
59.830        13
59.840        40
59.850        13
59.860         7
59.870         7
59.880         0
59.890        13
59.900         0
59.910        13
59.920        20
59.930         0
59.940        40
59.950         7
59.960         7
59.970        13
59.980         7
59.990        13
60.000        13
